5.003444e+002,4.055272e+001
5.013087e+002,4.204272e+001
5.022729e+002,4.258324e+001
5.032371e+002,4.216959e+001
5.042014e+002,4.054388e+001
5.051656e+002,3.796123e+001
5.061298e+002,3.559846e+001
5.070941e+002,3.447881e+001
5.080583e+002,3.469487e+001
5.090225e+002,3.556145e+001
5.099868e+002,3.772163e+001
5.109510e+002,3.965135e+001
5.119152e+002,4.068187e+001
5.128795e+002,4.077931e+001
5.138437e+002,4.010506e+001
5.148079e+002,3.763669e+001
5.157722e+002,3.545021e+001
5.167364e+002,3.477411e+001
5.177006e+002,3.545506e+001
5.186649e+002,3.597365e+001
5.196291e+002,3.389232e+001
5.205933e+002,3.124716e+001
5.215576e+002,3.048520e+001
5.225218e+002,3.161987e+001
5.234860e+002,3.336214e+001
5.244503e+002,3.350914e+001
5.254145e+002,3.163220e+001
5.263787e+002,2.960266e+001
5.273430e+002,2.657678e+001
5.283072e+002,2.393765e+001
5.292714e+002,2.401830e+001
5.302357e+002,2.903659e+001
5.311999e+002,3.154134e+001
5.321641e+002,2.917513e+001
5.331284e+002,2.578770e+001
5.340926e+002,2.446393e+001
5.350568e+002,2.639326e+001
5.360211e+002,2.864742e+001
5.369853e+002,2.881186e+001
5.379495e+002,2.803711e+001
5.389138e+002,2.694673e+001
5.398780e+002,2.586369e+001
5.408422e+002,2.484589e+001
5.418065e+002,2.417981e+001
5.427707e+002,2.379857e+001
5.437349e+002,2.304562e+001
5.446992e+002,2.141055e+001
5.456634e+002,1.947603e+001
5.466276e+002,1.938576e+001
5.475919e+002,2.451390e+001
5.485561e+002,2.733139e+001
5.495203e+002,2.591458e+001
5.504846e+002,2.251453e+001
5.514488e+002,2.051181e+001
5.524130e+002,2.175719e+001
5.533773e+002,2.306851e+001
5.543415e+002,2.265399e+001
5.553057e+002,2.149609e+001
5.562700e+002,2.050587e+001
5.572342e+002,2.023253e+001
5.581984e+002,2.044724e+001
5.591627e+002,2.113445e+001
5.601269e+002,2.198540e+001
5.610911e+002,2.189169e+001
5.620554e+002,2.017139e+001
5.630196e+002,1.706523e+001
5.639838e+002,1.510197e+001
5.649481e+002,1.475401e+001
5.659123e+002,1.483766e+001
5.668765e+002,1.574088e+001
5.678408e+002,1.710757e+001
5.688050e+002,1.770906e+001
5.697692e+002,1.632877e+001
5.707335e+002,1.510442e+001
5.716977e+002,1.512990e+001
5.726619e+002,1.562907e+001
5.736262e+002,1.543309e+001
5.745904e+002,1.365120e+001
5.755546e+002,1.140634e+001
5.765189e+002,9.904663e+000
5.774831e+002,9.168152e+000
5.784473e+002,9.776550e+000
5.794116e+002,1.214571e+001
5.803758e+002,1.604288e+001
5.813400e+002,1.741435e+001
5.823043e+002,1.548451e+001
5.832685e+002,1.362198e+001
5.842327e+002,1.315501e+001
5.851970e+002,1.391469e+001
5.861612e+002,1.440465e+001
5.871254e+002,1.396204e+001
5.880897e+002,1.362360e+001
5.890539e+002,1.376915e+001
5.900181e+002,1.406378e+001
5.909824e+002,1.385005e+001
5.919466e+002,1.246809e+001
5.929108e+002,1.114651e+001
5.938751e+002,1.139407e+001
5.948393e+002,1.247112e+001
5.958035e+002,1.320631e+001
5.967678e+002,1.276590e+001
5.977320e+002,1.142755e+001
5.986962e+002,1.125786e+001
5.996605e+002,1.219649e+001
6.006247e+002,1.277246e+001
6.015889e+002,1.197708e+001
6.025532e+002,9.969940e+000
6.035174e+002,8.952423e+000
6.044816e+002,1.011302e+001
6.054459e+002,1.110423e+001
6.064101e+002,1.166460e+001
6.073743e+002,1.181242e+001
6.083386e+002,1.167270e+001
6.093028e+002,1.129506e+001
6.102670e+002,1.066379e+001
6.112313e+002,9.176819e+000
6.121955e+002,7.653580e+000
6.131597e+002,7.391113e+000
6.141240e+002,9.234299e+000
6.150882e+002,1.240659e+001
6.160524e+002,1.367876e+001
6.170167e+002,1.343390e+001
6.179809e+002,1.250183e+001
6.189451e+002,1.097325e+001
6.199094e+002,8.938400e+000
6.208736e+002,7.429626e+000
6.218378e+002,6.492172e+000
6.228021e+002,6.348602e+000
6.237663e+002,7.732941e+000
6.247305e+002,9.779770e+000
6.256948e+002,1.109052e+001
6.266590e+002,1.093767e+001
6.276232e+002,1.012637e+001
6.285875e+002,8.805634e+000
6.295517e+002,7.597351e+000
6.305159e+002,7.376831e+000
6.314802e+002,8.516846e+000
6.324444e+002,1.015082e+001
6.334086e+002,9.605698e+000
6.343729e+002,7.666351e+000
6.353371e+002,6.156555e+000
6.363013e+002,5.750015e+000
6.372656e+002,6.097687e+000
6.382298e+002,6.011154e+000
6.391940e+002,4.746933e+000
6.401583e+002,3.973221e+000
6.411225e+002,4.116806e+000
6.420867e+002,4.719635e+000
6.430510e+002,5.297791e+000
6.440152e+002,5.810593e+000
6.449794e+002,5.668274e+000
6.459437e+002,3.894424e+000
6.469079e+002,1.957214e+000
6.478721e+002,1.347702e+000
6.488364e+002,2.415527e+000
6.498006e+002,3.791763e+000
6.507648e+002,2.372330e+000
6.517291e+002,-5.936737e-001
6.526933e+002,-1.791626e+000
6.536575e+002,-5.364990e-001
6.546218e+002,2.017044e+000
6.555860e+002,3.689026e+000
6.565502e+002,4.131561e+000
6.575145e+002,4.189713e+000
6.584787e+002,3.338623e+000
6.594429e+002,2.577820e+000
6.604072e+002,2.941269e+000
6.613714e+002,4.726669e+000
6.623356e+002,6.037460e+000
6.632999e+002,5.338409e+000
6.642641e+002,4.379425e+000
6.652283e+002,4.308380e+000
6.661926e+002,5.076187e+000
6.671568e+002,5.632645e+000
6.681210e+002,4.388321e+000
6.690853e+002,2.248734e+000
6.700495e+002,1.865326e+000
6.710137e+002,3.192322e+000
6.719780e+002,4.819427e+000
6.729422e+002,5.219574e+000
6.739064e+002,4.076065e+000
6.748707e+002,3.341507e+000
6.758349e+002,3.166946e+000
6.767991e+002,3.061111e+000
6.777634e+002,2.801743e+000
6.787276e+002,2.493790e+000
6.796918e+002,2.556793e+000
6.806561e+002,3.304718e+000
6.816203e+002,4.163681e+000
6.825845e+002,5.243439e+000
6.835488e+002,6.219101e+000
6.845130e+002,6.462509e+000
6.854772e+002,5.410568e+000
6.864415e+002,4.033493e+000
6.874057e+002,4.786865e+000
6.883699e+002,6.816849e+000
6.893342e+002,8.146378e+000
6.902984e+002,7.683533e+000
6.912626e+002,5.664246e+000
6.922269e+002,3.540970e+000
6.931911e+002,5.079346e-001
6.941553e+002,-1.247055e+000
6.951196e+002,-8.726349e-001
6.960838e+002,5.096741e-001
6.970480e+002,1.105499e+000
6.980123e+002,1.759491e-001
6.989765e+002,-4.623108e-001
6.999407e+002,2.794495e-001
7.009050e+002,1.294830e+000
7.018692e+002,1.406097e+000
7.028334e+002,3.726807e-001
7.037977e+002,-5.750427e-001
7.047619e+002,1.139374e+000
7.057261e+002,4.279877e+000
7.066904e+002,6.197815e+000
7.076546e+002,6.456635e+000
7.086188e+002,5.676529e+000
7.095831e+002,4.757294e+000
7.105473e+002,3.473175e+000
7.115115e+002,2.704147e+000
7.124758e+002,2.912903e+000
7.134400e+002,3.022629e+000
7.144042e+002,2.063950e+000
7.153685e+002,1.022491e-001
7.163327e+002,-9.761353e-001
7.172969e+002,4.340515e-001
7.182612e+002,2.337097e+000
7.192254e+002,4.545303e+000
7.201896e+002,6.526398e+000
7.211539e+002,7.471191e+000
7.221181e+002,6.608994e+000
7.230823e+002,4.636124e+000
7.240466e+002,3.428589e+000
7.250108e+002,2.915558e+000
7.259750e+002,2.699936e+000
7.269393e+002,2.458496e+000
7.279035e+002,2.171661e+000
7.288677e+002,2.355072e+000
7.298320e+002,4.347626e+000
7.307962e+002,5.430222e+000
7.317604e+002,4.673676e+000
7.327247e+002,3.226364e+000
7.336889e+002,2.759277e+000
7.346531e+002,3.926071e+000
7.356174e+002,4.734589e+000
7.365816e+002,4.066284e+000
7.375458e+002,2.968430e+000
7.385101e+002,2.044495e+000
7.394743e+002,1.548569e+000
7.404385e+002,1.497681e+000
7.414028e+002,2.075897e+000
7.423670e+002,2.908646e+000
7.433312e+002,3.038406e+000
7.442955e+002,2.486084e+000
7.452597e+002,1.672012e+000
7.462239e+002,8.794098e-001
7.471882e+002,-1.044159e-001
7.481524e+002,-1.917877e-001
7.491166e+002,1.179321e+000
7.500809e+002,2.406921e+000
7.510451e+002,2.827850e+000
7.520093e+002,2.592438e+000
7.529736e+002,2.357559e+000
7.539378e+002,2.352890e+000
7.549020e+002,2.789398e+000
7.558663e+002,4.267609e+000
7.568306e+002,6.012924e+000
7.577948e+002,6.833267e+000
7.587590e+002,6.035675e+000
7.597233e+002,4.216644e+000
7.606875e+002,3.194366e+000
7.616517e+002,2.954788e+000
7.626160e+002,3.431030e+000
7.635802e+002,4.987350e+000
7.645444e+002,6.922577e+000
7.655087e+002,7.604843e+000
7.664729e+002,6.017380e+000
7.674371e+002,5.352676e+000
7.684014e+002,6.748306e+000
7.693656e+002,8.099518e+000
7.703298e+002,7.752655e+000
7.712941e+002,5.697662e+000
7.722583e+002,3.907318e+000
7.732225e+002,3.930222e+000
7.741868e+002,4.749283e+000
7.751510e+002,5.888931e+000
7.761152e+002,7.118423e+000
7.770795e+002,8.168777e+000
7.780437e+002,8.792389e+000
7.790079e+002,8.961502e+000
7.799722e+002,8.462845e+000
7.809364e+002,7.296082e+000
7.819006e+002,6.047714e+000
7.828649e+002,4.756866e+000
7.838291e+002,3.622513e+000
7.847933e+002,3.249237e+000
7.857576e+002,4.176651e+000
7.867218e+002,4.763824e+000
7.876860e+002,4.114029e+000
7.886503e+002,3.619843e+000
7.896145e+002,5.033401e+000
7.905787e+002,8.582092e+000
7.915430e+002,1.161617e+001
7.925072e+002,1.027769e+001
7.934714e+002,7.249710e+000
7.944357e+002,5.332092e+000
7.953999e+002,4.847870e+000
7.963641e+002,5.175308e+000
7.973284e+002,5.613739e+000
7.982926e+002,6.171967e+000
7.992568e+002,6.681274e+000
8.002211e+002,7.140320e+000
8.011853e+002,7.243057e+000
8.021495e+002,6.899506e+000
8.031138e+002,6.322144e+000
8.040780e+002,5.878967e+000
8.050422e+002,5.412567e+000
8.060065e+002,5.255264e+000
8.069707e+002,5.649902e+000
8.079349e+002,6.174088e+000
8.088992e+002,6.308792e+000
8.098634e+002,5.970810e+000
8.108276e+002,5.859207e+000
8.117919e+002,7.480850e+000
8.127561e+002,9.634384e+000
8.137203e+002,9.910141e+000
8.146846e+002,8.151123e+000
8.156488e+002,5.818710e+000
8.166130e+002,4.585403e+000
8.175773e+002,4.508652e+000
8.185415e+002,5.115555e+000
8.195057e+002,7.315018e+000
8.204700e+002,8.824020e+000
8.214342e+002,8.508301e+000
8.223984e+002,6.920059e+000
8.233627e+002,5.478226e+000
8.243269e+002,4.405991e+000
8.252911e+002,4.210632e+000
8.262554e+002,5.852386e+000
8.272196e+002,7.863113e+000
8.281838e+002,8.567566e+000
8.291481e+002,7.461380e+000
8.301123e+002,5.526321e+000
8.310765e+002,4.353134e+000
8.320408e+002,3.999588e+000
8.330050e+002,4.417068e+000
8.339692e+002,5.828888e+000
8.349335e+002,7.395172e+000
8.358977e+002,8.343704e+000
8.368619e+002,8.697266e+000
8.378262e+002,8.615631e+000
8.387904e+002,7.431641e+000
8.397546e+002,6.465637e+000
8.407189e+002,6.304398e+000
8.416831e+002,6.530960e+000
8.426473e+002,6.242065e+000
8.436116e+002,4.873581e+000
8.445758e+002,3.690628e+000
8.455400e+002,4.126297e+000
8.465043e+002,5.264023e+000
8.474685e+002,6.323990e+000
8.484327e+002,7.094223e+000
8.493970e+002,7.765762e+000
8.503612e+002,8.596344e+000
8.513254e+002,9.676605e+000
8.522897e+002,9.465698e+000
8.532539e+002,6.688828e+000
8.542181e+002,4.313614e+000
8.551824e+002,4.574875e+000
8.561466e+002,7.196121e+000
8.571108e+002,9.176041e+000
8.580751e+002,9.157745e+000
8.590393e+002,8.984665e+000
8.600035e+002,9.323273e+000
8.609678e+002,9.931046e+000
8.619320e+002,1.053015e+001
8.628962e+002,1.097749e+001
8.638605e+002,1.122932e+001
8.648247e+002,1.101720e+001
8.657889e+002,1.062299e+001
8.667532e+002,1.071541e+001
8.677174e+002,1.138121e+001
8.686816e+002,1.238972e+001
8.696459e+002,1.364259e+001
8.706101e+002,1.536047e+001
8.715743e+002,1.585452e+001
8.725386e+002,1.377672e+001
8.735028e+002,1.232108e+001
8.744670e+002,1.244215e+001
8.754313e+002,1.357228e+001
8.763955e+002,1.459808e+001
8.773597e+002,1.508105e+001
8.783240e+002,1.591821e+001
8.792882e+002,1.851419e+001
8.802524e+002,2.117279e+001
8.812167e+002,2.215836e+001
8.821809e+002,2.132774e+001
8.831451e+002,1.990172e+001
8.841094e+002,1.945602e+001
8.850736e+002,2.004834e+001
8.860378e+002,2.088606e+001
8.870021e+002,2.222456e+001
8.879663e+002,2.283904e+001
8.889305e+002,2.135718e+001
8.898948e+002,1.833810e+001
8.908590e+002,1.686035e+001
8.918232e+002,1.789732e+001
8.927875e+002,1.951694e+001
8.937517e+002,2.238451e+001
8.947159e+002,2.483136e+001
8.956802e+002,2.488466e+001
8.966444e+002,2.243860e+001
8.976086e+002,1.989351e+001
8.985729e+002,1.979091e+001
8.995371e+002,2.124677e+001
9.005013e+002,2.276831e+001
9.014656e+002,2.423988e+001
9.024298e+002,2.526900e+001
9.033940e+002,2.544313e+001
9.043583e+002,2.485455e+001
9.053225e+002,2.477751e+001
9.062867e+002,2.593033e+001
9.072510e+002,2.654144e+001
9.082152e+002,2.633043e+001
9.091794e+002,2.590393e+001
9.101437e+002,2.590828e+001
9.111079e+002,2.644228e+001
9.120721e+002,2.678033e+001
9.130364e+002,2.595192e+001
9.140006e+002,2.513115e+001
9.149648e+002,2.511351e+001
9.159291e+002,2.576884e+001
9.168933e+002,2.668283e+001
9.178575e+002,2.751529e+001
9.188218e+002,2.815919e+001
9.197860e+002,2.824814e+001
9.207502e+002,2.772357e+001
9.217145e+002,2.750735e+001
9.226787e+002,2.831703e+001
9.236429e+002,2.919374e+001
9.246072e+002,2.847316e+001
9.255714e+002,2.560783e+001
9.265356e+002,2.371034e+001
9.274999e+002,2.387561e+001
9.284641e+002,2.436923e+001
9.294283e+002,2.505580e+001
9.303926e+002,2.560767e+001
9.313568e+002,2.564455e+001
9.323210e+002,2.496722e+001
9.332853e+002,2.367796e+001
9.342495e+002,2.097935e+001
9.352137e+002,1.796603e+001
9.361780e+002,1.689923e+001
9.371422e+002,1.827901e+001
9.381064e+002,2.044524e+001
9.390707e+002,2.107539e+001
9.400349e+002,1.981754e+001
9.409991e+002,1.883333e+001
9.419634e+002,1.797774e+001
9.429276e+002,1.748703e+001
9.438918e+002,1.774361e+001
9.448561e+002,1.833376e+001
9.458203e+002,1.855252e+001
9.467845e+002,1.817941e+001
9.477488e+002,1.770349e+001
9.487130e+002,1.745767e+001
9.496772e+002,1.725461e+001
9.506415e+002,1.681815e+001
9.516057e+002,1.623783e+001
9.525699e+002,1.598476e+001
9.535342e+002,1.653141e+001
9.544984e+002,1.765810e+001
9.554626e+002,1.750233e+001
9.564269e+002,1.578441e+001
9.573911e+002,1.484176e+001
9.583553e+002,1.619072e+001
9.593196e+002,1.823412e+001
9.602838e+002,1.801514e+001
9.612480e+002,1.463982e+001
9.622123e+002,1.221938e+001
9.631765e+002,1.278790e+001
9.641407e+002,1.374059e+001
9.651050e+002,1.397916e+001
9.660692e+002,1.356519e+001
9.670334e+002,1.295394e+001
9.679977e+002,1.245457e+001
9.689619e+002,1.225436e+001
9.699261e+002,1.260124e+001
9.708904e+002,1.340029e+001
9.718546e+002,1.486331e+001
9.728188e+002,1.711471e+001
9.737831e+002,1.961208e+001
9.747473e+002,2.180863e+001
9.757115e+002,2.380783e+001
9.766758e+002,2.504111e+001
9.776400e+002,2.572025e+001
9.786042e+002,2.550439e+001
9.795685e+002,2.355125e+001
9.805327e+002,2.085290e+001
9.814969e+002,1.886403e+001
9.824612e+002,1.812856e+001
9.834254e+002,1.751566e+001
9.843896e+002,1.554882e+001
9.853539e+002,1.316916e+001
9.863181e+002,1.139219e+001
9.872823e+002,1.021242e+001
9.882466e+002,9.241035e+000
9.892108e+002,8.224823e+000
9.901750e+002,7.304466e+000
9.911393e+002,6.831619e+000
9.921035e+002,6.689583e+000
9.930677e+002,6.850983e+000
9.940320e+002,8.065422e+000
9.949962e+002,9.158920e+000
9.959604e+002,8.497780e+000
9.969247e+002,6.134064e+000
9.978889e+002,5.051613e+000
9.988531e+002,7.507538e+000
9.998174e+002,1.040070e+001
1.000782e+003,1.259698e+001
1.001746e+003,1.380352e+001
1.002710e+003,1.330281e+001
1.003674e+003,1.100814e+001
1.004639e+003,8.204346e+000
1.005603e+003,7.222038e+000
1.006567e+003,8.248352e+000
1.007531e+003,8.716316e+000
1.008495e+003,8.740967e+000
1.009460e+003,8.090767e+000
1.010424e+003,5.945190e+000
1.011388e+003,2.927986e+000
1.012352e+003,1.775604e+000
1.013317e+003,4.092735e+000
1.014281e+003,5.567322e+000
1.015245e+003,3.502464e+000
1.016209e+003,1.357300e+000
1.017174e+003,2.497658e+000
1.018138e+003,6.344818e+000
1.019102e+003,9.266922e+000
1.020066e+003,8.233551e+000
1.021031e+003,4.582794e+000
1.021995e+003,1.312798e+000
1.022959e+003,-1.589264e+000
1.023923e+003,-2.630043e+000
1.024887e+003,-7.827301e-001
1.025852e+003,2.173752e+000
1.026816e+003,3.379646e+000
1.027780e+003,2.467606e+000
1.028744e+003,1.790947e+000
1.029709e+003,1.650879e+000
1.030673e+003,1.582169e+000
1.031637e+003,1.489182e+000
1.032601e+003,1.327400e+000
1.033566e+003,1.124954e+000
1.034530e+003,9.044266e-001
1.035494e+003,5.386200e-001
1.036458e+003,-3.315201e-001
1.037422e+003,-1.361298e+000
1.038387e+003,-2.026703e+000
1.039351e+003,-2.303429e+000
1.040315e+003,-2.093254e+000
1.041279e+003,-1.183746e+000
1.042244e+003,1.784515e-001
1.043208e+003,5.472183e-001
1.044172e+003,-1.402679e+000
1.045136e+003,-2.165878e+000
1.046101e+003,-8.388290e-001
1.047065e+003,8.411255e-001
1.048029e+003,2.128777e+000
1.048993e+003,2.781441e+000
1.049958e+003,2.180176e+000
1.050922e+003,-6.361389e-001
1.051886e+003,-2.907341e+000
1.052850e+003,-8.939514e-001
1.053814e+003,2.820488e+000
1.054779e+003,4.906715e+000
1.055743e+003,4.666946e+000
1.056707e+003,3.624313e+000
1.057671e+003,3.671997e+000
1.058636e+003,4.806190e+000
1.059600e+003,4.178032e+000
1.060564e+003,-6.469193e-001
1.061528e+003,-3.459320e+000
1.062493e+003,-2.268791e+000
1.063457e+003,4.330444e-001
1.064421e+003,2.250771e+000
1.065385e+003,2.900856e+000
1.066349e+003,2.677963e+000
1.067314e+003,7.421188e-001
1.068278e+003,-8.245926e-001
1.069242e+003,-8.171844e-002
1.070206e+003,1.857903e+000
1.071171e+003,3.189056e+000
1.072135e+003,3.122810e+000
1.073099e+003,2.284645e+000
1.074063e+003,1.788902e+000
1.075028e+003,1.726425e+000
1.075992e+003,1.022766e+000
1.076956e+003,-1.284714e+000
1.077920e+003,-2.684914e+000
1.078885e+003,-1.456535e+000
1.079849e+003,1.078941e+000
1.080813e+003,2.412148e+000
1.081777e+003,2.055756e+000
1.082741e+003,1.438225e+000
1.083706e+003,3.951111e-001
1.084670e+003,-7.466888e-002
1.085634e+003,1.586639e+000
1.086598e+003,4.108788e+000
1.087563e+003,4.874207e+000
1.088527e+003,2.576660e+000
1.089491e+003,-1.102455e+000
1.090455e+003,-2.982048e+000
1.091420e+003,-2.868011e+000
1.092384e+003,-2.776237e+000
1.093348e+003,-2.918526e+000
1.094312e+003,-2.807259e+000
1.095276e+003,-1.788261e+000
1.096241e+003,-2.302399e-001
1.097205e+003,5.830688e-001
1.098169e+003,3.117905e-001
1.099133e+003,-3.122864e-001
1.100098e+003,-1.958801e+000
1.101062e+003,-2.933388e+000
1.102026e+003,-1.534882e+000
1.102990e+003,1.411568e+000
1.103955e+003,3.972412e+000
1.104919e+003,4.951591e+000
1.105883e+003,4.652977e+000
1.106847e+003,3.525047e+000
1.107812e+003,1.565552e+000
1.108776e+003,4.632797e-001
1.109740e+003,6.892853e-001
1.110704e+003,9.389114e-001
1.111668e+003,5.797577e-002
1.112633e+003,-1.547043e+000
1.113597e+003,-2.158546e+000
1.114561e+003,-1.154701e+000
1.115525e+003,-3.687057e-001
1.116490e+003,-1.123276e+000
1.117454e+003,-1.587303e+000
1.118418e+003,3.414688e-001
1.119382e+003,3.618721e+000
1.120347e+003,5.218300e+000
1.121311e+003,3.244072e+000
1.122275e+003,-4.836502e-001
1.123239e+003,-2.211800e+000
1.124203e+003,-1.925430e+000
1.125168e+003,-1.125351e+000
1.126132e+003,4.836807e-001
1.127096e+003,1.632545e+000
1.128060e+003,8.952103e-001
1.129025e+003,-1.258766e+000
1.129989e+003,-2.407867e+000
1.130953e+003,-1.988838e+000
1.131917e+003,-1.529297e+000
1.132882e+003,-1.522583e+000
1.133846e+003,-1.484970e+000
1.134810e+003,-1.021095e+000
1.135774e+003,-2.775269e-001
1.136739e+003,2.674866e-001
1.137703e+003,3.485947e-001
1.138667e+003,4.007797e-001
1.139631e+003,1.484886e+000
1.140595e+003,3.302864e+000
1.141560e+003,3.287888e+000
1.142524e+003,6.285477e-001
1.143488e+003,-1.188736e+000
1.144452e+003,8.263931e-001
1.145417e+003,5.567726e+000
1.146381e+003,8.988068e+000
1.147345e+003,1.062398e+001
1.148309e+003,1.175758e+001
1.149274e+003,1.201580e+001
1.150238e+003,1.266559e+001
1.151202e+003,1.484727e+001
1.152166e+003,1.784792e+001
1.153130e+003,2.032374e+001
1.154095e+003,2.158615e+001
1.155059e+003,2.195811e+001
1.156023e+003,2.197169e+001
1.156987e+003,2.161211e+001
1.157952e+003,2.081049e+001
1.158916e+003,1.972054e+001
1.159880e+003,1.802173e+001
1.160844e+003,1.452383e+001
1.161809e+003,1.040477e+001
1.162773e+003,8.919792e+000
1.163737e+003,1.090444e+001
1.164701e+003,1.181834e+001
1.165666e+003,9.406998e+000
1.166630e+003,6.929245e+000
1.167594e+003,5.655052e+000
1.168558e+003,4.993965e+000
1.169522e+003,3.997124e+000
1.170487e+003,2.400688e+000
1.171451e+003,6.794434e-001
1.172415e+003,-7.677078e-001
1.173379e+003,-1.761147e+000
1.174344e+003,-8.611069e-001
1.175308e+003,2.142792e+000
1.176272e+003,3.886650e+000
1.177236e+003,2.353012e+000
1.178201e+003,-2.074051e-001
1.179165e+003,-7.010498e-001
1.180129e+003,8.591690e-001
1.181093e+003,1.496315e+000
1.182057e+003,-8.836365e-002
1.183022e+003,-1.584106e+000
1.183986e+003,-2.390045e+000
1.184950e+003,-2.530861e+000
1.185914e+003,-1.514000e+000
1.186879e+003,2.441254e-001
1.187843e+003,1.282669e+000
1.188807e+003,3.715210e-001
1.189771e+003,-1.791840e+000
1.190736e+003,-3.083389e+000
1.191700e+003,-3.426933e+000
1.192664e+003,-3.579269e+000
1.193628e+003,-3.259216e+000
1.194593e+003,-3.132805e+000
1.195557e+003,-3.866074e+000
1.196521e+003,-5.207413e+000
1.197485e+003,-6.306992e+000
1.198449e+003,-7.132713e+000
1.199414e+003,-7.369385e+000
1.200378e+003,-6.369049e+000
1.201342e+003,-5.192368e+000
1.202306e+003,-4.544571e+000
1.203271e+003,-4.282242e+000
1.204235e+003,-3.741264e+000
1.205199e+003,-2.673439e+000
1.206163e+003,-1.869080e+000
1.207128e+003,-2.766624e+000
1.208092e+003,-5.482483e+000
1.209056e+003,-7.209618e+000
1.210020e+003,-7.530960e+000
1.210984e+003,-7.884094e+000
1.211949e+003,-8.940651e+000
1.212913e+003,-1.011147e+001
1.213877e+003,-1.034597e+001
1.214841e+003,-9.621956e+000
1.215806e+003,-9.734093e+000
1.216770e+003,-1.232967e+001
1.217734e+003,-1.439848e+001
1.218698e+003,-1.328455e+001
1.219663e+003,-1.095412e+001
1.220627e+003,-9.914970e+000
1.221591e+003,-1.048856e+001
1.222555e+003,-1.109883e+001
1.223520e+003,-1.023901e+001
1.224484e+003,-8.458389e+000
1.225448e+003,-8.533028e+000
1.226412e+003,-1.200388e+001
1.227376e+003,-1.389117e+001
1.228341e+003,-1.292115e+001
1.229305e+003,-1.189678e+001
1.230269e+003,-1.250893e+001
1.231233e+003,-1.409996e+001
1.232198e+003,-1.534364e+001
1.233162e+003,-1.590365e+001
1.234126e+003,-1.567491e+001
1.235090e+003,-1.403793e+001
1.236055e+003,-1.213515e+001
1.237019e+003,-1.110635e+001
1.237983e+003,-1.084817e+001
1.238947e+003,-1.101247e+001
1.239911e+003,-1.141866e+001
1.240876e+003,-1.190051e+001
1.241840e+003,-1.224413e+001
1.242804e+003,-1.244023e+001
1.243768e+003,-1.260934e+001
1.244733e+003,-1.295095e+001
1.245697e+003,-1.296369e+001
1.246661e+003,-1.226017e+001
1.247625e+003,-1.162720e+001
1.248590e+003,-1.194555e+001
1.249554e+003,-1.278837e+001
1.250518e+003,-1.270189e+001
1.251482e+003,-1.097421e+001
1.252447e+003,-9.091728e+000
1.253411e+003,-8.905922e+000
1.254375e+003,-9.741943e+000
1.255339e+003,-1.018978e+001
1.256303e+003,-1.017527e+001
1.257268e+003,-1.020057e+001
1.258232e+003,-1.060941e+001
1.259196e+003,-1.126942e+001
1.260160e+003,-1.200897e+001
1.261125e+003,-1.294617e+001
1.262089e+003,-1.288408e+001
1.263053e+003,-1.072516e+001
1.264017e+003,-8.839897e+000
1.264982e+003,-7.646500e+000
1.265946e+003,-7.021873e+000
1.266910e+003,-6.700958e+000
1.267874e+003,-6.777153e+000
1.268839e+003,-7.896294e+000
1.269803e+003,-1.050853e+001
1.270767e+003,-1.349004e+001
1.271731e+003,-1.452658e+001
1.272695e+003,-1.362656e+001
1.273660e+003,-1.323759e+001
1.274624e+003,-1.374516e+001
1.275588e+003,-1.410510e+001
1.276552e+003,-1.330077e+001
1.277517e+003,-1.208769e+001
1.278481e+003,-1.233745e+001
1.279445e+003,-1.435411e+001
1.280409e+003,-1.504755e+001
1.281374e+003,-1.207101e+001
1.282338e+003,-9.375534e+000
1.283302e+003,-9.439087e+000
1.284266e+003,-1.062051e+001
1.285230e+003,-1.112656e+001
1.286195e+003,-1.064490e+001
1.287159e+003,-9.744286e+000
1.288123e+003,-8.864021e+000
1.289087e+003,-8.227486e+000
1.290052e+003,-8.685883e+000
1.291016e+003,-1.088132e+001
1.291980e+003,-1.196706e+001
1.292944e+003,-1.116862e+001
1.293909e+003,-1.046387e+001
1.294873e+003,-1.061074e+001
1.295837e+003,-1.120183e+001
1.296801e+003,-1.173701e+001
1.297766e+003,-1.212901e+001
1.298730e+003,-1.248853e+001
1.299694e+003,-1.304465e+001
1.300658e+003,-1.332888e+001
1.301622e+003,-1.236754e+001
1.302587e+003,-1.094368e+001
1.303551e+003,-1.060989e+001
1.304515e+003,-1.148608e+001
1.305479e+003,-1.188911e+001
1.306444e+003,-1.028403e+001
1.307408e+003,-7.539139e+000
1.308372e+003,-6.673065e+000
1.309336e+003,-8.458076e+000
1.310301e+003,-9.769203e+000
1.311265e+003,-1.041005e+001
1.312229e+003,-1.056105e+001
1.313193e+003,-9.655777e+000
1.314157e+003,-8.703773e+000
1.315122e+003,-9.052139e+000
1.316086e+003,-1.055492e+001
1.317050e+003,-1.164552e+001
1.318014e+003,-1.123346e+001
1.318979e+003,-1.023697e+001
1.319943e+003,-1.048859e+001
1.320907e+003,-1.175149e+001
1.321871e+003,-1.200916e+001
1.322836e+003,-1.099661e+001
1.323800e+003,-9.889709e+000
1.324764e+003,-9.031120e+000
1.325728e+003,-8.584846e+000
1.326693e+003,-9.012093e+000
1.327657e+003,-1.036521e+001
1.328621e+003,-1.171295e+001
1.329585e+003,-1.318291e+001
1.330549e+003,-1.366006e+001
1.331514e+003,-1.206297e+001
1.332478e+003,-9.986389e+000
1.333442e+003,-8.636063e+000
1.334406e+003,-8.240379e+000
1.335371e+003,-8.972847e+000
1.336335e+003,-1.086093e+001
1.337299e+003,-1.286118e+001
1.338263e+003,-1.292622e+001
1.339228e+003,-1.075840e+001
1.340192e+003,-9.431900e+000
1.341156e+003,-9.372780e+000
1.342120e+003,-9.457176e+000
1.343084e+003,-9.831215e+000
1.344049e+003,-1.011768e+001
1.345013e+003,-9.723503e+000
1.345977e+003,-8.915184e+000
1.346941e+003,-8.828583e+000
1.347906e+003,-9.949303e+000
1.348870e+003,-1.058530e+001
1.349834e+003,-8.435730e+000
1.350798e+003,-5.417717e+000
1.351763e+003,-5.547035e+000
1.352727e+003,-8.232552e+000
1.353691e+003,-9.873787e+000
1.354655e+003,-8.955048e+000
1.355620e+003,-7.325569e+000
1.356584e+003,-7.416817e+000
1.357548e+003,-8.915817e+000
1.358512e+003,-8.898880e+000
1.359476e+003,-6.334259e+000
1.360441e+003,-4.900940e+000
1.361405e+003,-6.732254e+000
1.362369e+003,-8.522537e+000
1.363333e+003,-8.415634e+000
1.364298e+003,-7.359383e+000
1.365262e+003,-6.808243e+000
1.366226e+003,-7.126060e+000
1.367190e+003,-7.736771e+000
1.368155e+003,-8.137024e+000
1.369119e+003,-8.314377e+000
1.370083e+003,-8.209892e+000
1.371047e+003,-7.755440e+000
1.372011e+003,-7.113953e+000
1.372976e+003,-5.927383e+000
1.373940e+003,-5.140480e+000
1.374904e+003,-5.242912e+000
1.375868e+003,-5.794716e+000
1.376833e+003,-6.417603e+000
1.377797e+003,-7.007675e+000
1.378761e+003,-7.222847e+000
1.379725e+003,-6.781479e+000
1.380690e+003,-6.320213e+000
1.381654e+003,-6.724457e+000
1.382618e+003,-7.380478e+000
1.383582e+003,-7.285233e+000
1.384547e+003,-6.517952e+000
1.385511e+003,-6.158554e+000
1.386475e+003,-6.910385e+000
1.387439e+003,-7.843231e+000
1.388403e+003,-7.281296e+000
1.389368e+003,-5.237091e+000
1.390332e+003,-4.031837e+000
1.391296e+003,-3.761078e+000
1.392260e+003,-4.247612e+000
1.393225e+003,-6.334770e+000
1.394189e+003,-8.156853e+000
1.395153e+003,-8.506737e+000
1.396117e+003,-7.942619e+000
1.397082e+003,-7.285736e+000
1.398046e+003,-6.863800e+000
1.399010e+003,-6.747650e+000
1.399974e+003,-7.054092e+000
1.400938e+003,-7.592705e+000
1.401903e+003,-7.568695e+000
1.402867e+003,-6.644737e+000
1.403831e+003,-6.009796e+000
1.404795e+003,-6.095467e+000
1.405760e+003,-6.002274e+000
1.406724e+003,-5.358490e+000
1.407688e+003,-4.588730e+000
1.408652e+003,-3.911415e+000
1.409617e+003,-3.409386e+000
1.410581e+003,-3.578354e+000
1.411545e+003,-4.729324e+000
1.412509e+003,-5.990166e+000
1.413474e+003,-6.602493e+000
1.414438e+003,-6.796646e+000
1.415402e+003,-6.830223e+000
1.416366e+003,-6.679718e+000
1.417330e+003,-6.369576e+000
1.418295e+003,-5.888878e+000
1.419259e+003,-5.324745e+000
1.420223e+003,-4.789497e+000
1.421187e+003,-4.311920e+000
1.422152e+003,-3.834343e+000
1.423116e+003,-3.208527e+000
1.424080e+003,-2.876724e+000
1.425044e+003,-3.655624e+000
1.426009e+003,-4.094231e+000
1.426973e+003,-3.074745e+000
1.427937e+003,-1.693329e+000
1.428901e+003,-1.275970e+000
1.429865e+003,-1.881386e+000
1.430830e+003,-2.853180e+000
1.431794e+003,-3.752731e+000
1.432758e+003,-4.246529e+000
1.433722e+003,-3.500267e+000
1.434687e+003,-1.243507e+000
1.435651e+003,-2.567978e-001
1.436615e+003,-2.029518e+000
1.437579e+003,-3.193336e+000
1.438544e+003,-2.782646e+000
1.439508e+003,-2.322716e+000
1.440472e+003,-3.114220e+000
1.441436e+003,-4.445518e+000
1.442401e+003,-4.746544e+000
1.443365e+003,-3.750748e+000
1.444329e+003,-2.846825e+000
1.445293e+003,-3.131821e+000
1.446257e+003,-3.816734e+000
1.447222e+003,-3.269073e+000
1.448186e+003,-1.771133e+000
1.449150e+003,-8.224869e-001
1.450114e+003,-5.836868e-001
1.451079e+003,-8.154755e-001
1.452043e+003,-1.910553e+000
1.453007e+003,-2.984528e+000
1.453971e+003,-2.540894e+000
1.454936e+003,-8.445892e-001
1.455900e+003,1.871719e-001
1.456864e+003,1.561203e-001
1.457828e+003,-4.650421e-001
1.458792e+003,-2.069458e+000
1.459757e+003,-3.632408e+000
1.460721e+003,-4.187263e+000
1.461685e+003,-4.083015e+000
1.462649e+003,-4.157280e+000
1.463614e+003,-4.572411e+000
1.464578e+003,-4.645325e+000
1.465542e+003,-3.673927e+000
1.466506e+003,-2.184952e+000
1.467471e+003,-1.604118e+000
1.468435e+003,-1.878784e+000
1.469399e+003,-3.055145e+000
1.470363e+003,-6.841209e+000
1.471328e+003,-9.178955e+000
1.472292e+003,-8.489845e+000
1.473256e+003,-6.861176e+000
1.474220e+003,-5.222473e+000
1.475184e+003,-3.927330e+000
1.476149e+003,-3.370453e+000
1.477113e+003,-3.612717e+000
1.478077e+003,-4.157379e+000
1.479041e+003,-4.500267e+000
1.480006e+003,-4.573914e+000
1.480970e+003,-4.230843e+000
1.481934e+003,-3.407089e+000
1.482898e+003,-2.643257e+000
1.483863e+003,-1.769653e+000
1.484827e+003,-1.212257e+000
1.485791e+003,-1.196999e+000
1.486755e+003,-1.363228e+000
1.487719e+003,-1.518036e+000
1.488684e+003,-1.607910e+000
1.489648e+003,-1.508171e+000
1.490612e+003,-1.162270e+000
1.491576e+003,-7.372665e-001
1.492541e+003,-3.807449e-001
1.493505e+003,-8.193207e-002
1.494469e+003,5.582428e-002
1.495433e+003,6.187439e-002
1.496398e+003,6.823425e-001
1.497362e+003,2.408508e+000
1.498326e+003,3.733734e+000
1.499290e+003,3.266708e+000
1.500255e+003,2.373215e+000
1.501219e+003,3.104790e+000
1.502183e+003,5.168053e+000
1.503147e+003,6.603943e+000
1.504111e+003,6.854225e+000
1.505076e+003,7.157829e+000
1.506040e+003,8.431190e+000
1.507004e+003,9.879478e+000
1.507968e+003,1.067826e+001
1.508933e+003,1.105846e+001
1.509897e+003,1.115922e+001
1.510861e+003,1.118829e+001
1.511825e+003,1.265796e+001
1.512790e+003,1.699522e+001
1.513754e+003,2.255978e+001
1.514718e+003,2.616496e+001
1.515682e+003,2.777798e+001
1.516646e+003,2.985372e+001
1.517611e+003,3.308789e+001
1.518575e+003,3.568717e+001
1.519539e+003,3.696643e+001
1.520503e+003,3.769006e+001
1.521468e+003,3.817522e+001
1.522432e+003,3.832426e+001
1.523396e+003,3.804581e+001
1.524360e+003,3.726278e+001
1.525325e+003,3.574268e+001
1.526289e+003,3.335023e+001
1.527253e+003,3.058105e+001
1.528217e+003,2.828806e+001
1.529182e+003,2.651434e+001
1.530146e+003,2.471602e+001
1.531110e+003,2.279382e+001
1.532074e+003,2.096476e+001
1.533039e+003,1.930715e+001
1.534003e+003,1.744570e+001
1.534967e+003,1.501915e+001
1.535931e+003,1.261891e+001
1.536896e+003,1.108308e+001
1.537860e+003,1.022971e+001
1.538824e+003,9.050095e+000
1.539788e+003,7.026421e+000
1.540752e+003,4.772118e+000
1.541717e+003,3.100174e+000
1.542681e+003,1.985428e+000
1.543645e+003,1.045052e+000
1.544609e+003,2.084351e-001
1.545573e+003,-6.469727e-002
1.546538e+003,-6.529236e-002
1.547502e+003,7.067642e-001
1.548466e+003,3.176880e+000
1.549430e+003,6.033142e+000
1.550395e+003,8.162766e+000
1.551359e+003,9.385765e+000
1.552323e+003,9.722092e+000
1.553287e+003,9.211723e+000
1.554252e+003,7.974449e+000
1.555216e+003,5.958900e+000
1.556180e+003,3.691544e+000
1.557144e+003,2.484543e+000
1.558109e+003,2.409348e+000
1.559073e+003,2.101143e+000
1.560037e+003,1.194351e+000
1.561001e+003,6.092224e-001
1.561966e+003,9.526062e-001
1.562930e+003,1.595650e+000
1.563894e+003,1.845612e+000
1.564858e+003,1.891449e+000
1.565823e+003,2.394348e+000
1.566787e+003,3.437218e+000
1.567751e+003,4.324913e+000
1.568715e+003,4.713173e+000
1.569679e+003,4.709007e+000
1.570644e+003,4.210945e+000
1.571608e+003,3.426506e+000
1.572572e+003,3.117790e+000
1.573536e+003,3.354225e+000
1.574500e+003,3.449532e+000
1.575465e+003,2.993774e+000
1.576429e+003,2.587143e+000
1.577393e+003,2.534233e+000
1.578357e+003,2.912056e+000
1.579322e+003,4.287445e+000
1.580286e+003,6.552177e+000
1.581250e+003,7.798294e+000
1.582214e+003,7.221092e+000
1.583179e+003,6.381340e+000
1.584143e+003,6.480843e+000
1.585107e+003,6.821541e+000
1.586071e+003,6.337006e+000
1.587036e+003,5.413277e+000
1.588000e+003,5.226234e+000
1.588964e+003,6.044113e+000
1.589928e+003,6.649910e+000
1.590893e+003,5.923370e+000
1.591857e+003,4.861023e+000
1.592821e+003,5.202324e+000
1.593785e+003,6.649666e+000
1.594750e+003,7.346001e+000
1.595714e+003,6.942917e+000
1.596678e+003,6.393120e+000
1.597642e+003,5.727333e+000
1.598606e+003,5.574585e+000
1.599571e+003,6.877312e+000
1.600535e+003,8.716087e+000
1.601499e+003,9.940285e+000
1.602463e+003,1.049630e+001
1.603427e+003,1.081139e+001
1.604392e+003,1.107342e+001
1.605356e+003,1.108381e+001
1.606320e+003,1.052166e+001
1.607284e+003,9.598259e+000
1.608249e+003,8.722900e+000
1.609213e+003,7.874863e+000
1.610177e+003,8.058380e+000
1.611141e+003,9.970833e+000
1.612106e+003,1.159634e+001
1.613070e+003,1.176894e+001
1.614034e+003,1.144511e+001
1.614998e+003,1.089017e+001
1.615963e+003,1.048582e+001
1.616927e+003,1.117023e+001
1.617891e+003,1.281031e+001
1.618855e+003,1.364474e+001
1.619820e+003,1.252294e+001
1.620784e+003,1.051672e+001
1.621748e+003,8.736382e+000
1.622712e+003,7.464897e+000
1.623677e+003,8.630524e+000
1.624641e+003,1.295647e+001
1.625605e+003,1.545177e+001
1.626569e+003,1.384142e+001
1.627533e+003,1.199924e+001
1.628498e+003,1.183447e+001
1.629462e+003,1.234106e+001
1.630426e+003,1.294775e+001
1.631390e+003,1.344156e+001
1.632354e+003,1.341446e+001
1.633319e+003,1.285496e+001
1.634283e+003,1.249608e+001
1.635247e+003,1.283946e+001
1.636211e+003,1.378164e+001
1.637176e+003,1.564331e+001
1.638140e+003,1.828107e+001
1.639104e+003,1.898749e+001
1.640068e+003,1.720420e+001
1.641033e+003,1.518726e+001
1.641997e+003,1.274478e+001
1.642961e+003,1.131001e+001
1.643925e+003,1.249426e+001
1.644890e+003,1.417554e+001
1.645854e+003,1.397295e+001
1.646818e+003,1.247370e+001
1.647782e+003,1.161771e+001
1.648747e+003,1.201726e+001
1.649711e+003,1.312861e+001
1.650675e+003,1.476945e+001
1.651639e+003,1.635117e+001
1.652604e+003,1.626640e+001
1.653568e+003,1.457520e+001
1.654532e+003,1.397739e+001
1.655496e+003,1.510026e+001
1.656460e+003,1.553143e+001
1.657425e+003,1.393589e+001
1.658389e+003,1.242782e+001
1.659353e+003,1.264327e+001
1.660317e+003,1.314511e+001
1.661281e+003,1.204839e+001
1.662246e+003,9.849777e+000
1.663210e+003,8.376083e+000
1.664174e+003,8.250664e+000
1.665138e+003,8.966637e+000
1.666103e+003,1.042123e+001
1.667067e+003,1.183695e+001
1.668031e+003,1.118695e+001
1.668995e+003,8.717270e+000
1.669960e+003,8.110245e+000
1.670924e+003,1.018055e+001
1.671888e+003,1.182992e+001
1.672852e+003,1.213450e+001
1.673817e+003,1.168420e+001
1.674781e+003,1.055201e+001
1.675745e+003,9.143211e+000
1.676709e+003,7.586250e+000
1.677674e+003,6.165375e+000
1.678638e+003,5.665695e+000
1.679602e+003,6.329346e+000
1.680566e+003,7.321541e+000
1.681531e+003,8.202065e+000
1.682495e+003,8.822800e+000
1.683459e+003,8.739441e+000
1.684423e+003,8.051910e+000
1.685387e+003,7.617729e+000
1.686352e+003,7.571342e+000
1.687316e+003,7.412552e+000
1.688280e+003,6.910316e+000
1.689244e+003,6.386475e+000
1.690208e+003,5.887299e+000
1.691173e+003,5.606667e+000
1.692137e+003,6.152855e+000
1.693101e+003,7.161469e+000
1.694065e+003,7.220345e+000
1.695030e+003,5.910240e+000
1.695994e+003,4.583870e+000
1.696958e+003,4.050285e+000
1.697922e+003,4.010246e+000
1.698887e+003,4.206673e+000
1.699851e+003,4.578133e+000
1.700815e+003,4.975594e+000
1.701779e+003,5.351311e+000
1.702744e+003,5.290329e+000
1.703708e+003,4.568451e+000
1.704672e+003,4.011749e+000
1.705636e+003,4.413376e+000
1.706601e+003,4.976913e+000
1.707565e+003,4.356979e+000
1.708529e+003,3.016792e+000
1.709493e+003,2.360756e+000
1.710458e+003,2.599907e+000
1.711422e+003,2.957916e+000
1.712386e+003,3.358070e+000
1.713350e+003,3.551819e+000
1.714314e+003,2.997665e+000
1.715279e+003,2.217453e+000
1.716243e+003,2.258484e+000
1.717207e+003,3.003311e+000
1.718171e+003,3.569130e+000
1.719135e+003,3.722290e+000
1.720100e+003,3.299545e+000
1.721064e+003,1.926231e+000
1.722028e+003,6.411514e-001
1.722992e+003,1.261078e+000
1.723957e+003,3.362984e+000
1.724921e+003,4.149170e+000
1.725885e+003,3.344292e+000
1.726849e+003,2.644859e+000
1.727814e+003,2.388359e+000
1.728778e+003,2.344803e+000
1.729742e+003,2.633812e+000
1.730706e+003,2.862251e+000
1.731671e+003,2.396408e+000
1.732635e+003,1.575371e+000
1.733599e+003,1.213654e+000
1.734563e+003,1.491173e+000
1.735528e+003,2.257195e+000
1.736492e+003,3.405258e+000
1.737456e+003,4.107178e+000
1.738420e+003,3.268791e+000
1.739385e+003,1.430206e+000
1.740349e+003,7.604523e-001
1.741313e+003,1.615913e+000
1.742277e+003,2.004829e+000
1.743241e+003,1.669495e+000
1.744206e+003,1.381912e+000
1.745170e+003,1.380409e+000
1.746134e+003,1.233681e+000
1.747098e+003,1.431351e-001
1.748063e+003,-8.156509e-001
1.749027e+003,1.533203e-001
1.749991e+003,2.299896e+000
1.750955e+003,3.156738e+000
1.751919e+003,2.040283e+000
1.752884e+003,7.378464e-001
1.753848e+003,7.360764e-001
1.754812e+003,1.303406e+000
1.755776e+003,9.095459e-001
1.756741e+003,-3.503113e-001
1.757705e+003,-4.731369e-001
1.758669e+003,1.023598e+000
1.759633e+003,2.142090e+000
1.760598e+003,2.674515e+000
1.761562e+003,2.732132e+000
1.762526e+003,2.188759e+000
1.763490e+003,1.453125e+000
1.764455e+003,5.213470e-001
1.765419e+003,-2.558136e-001
1.766383e+003,-3.019409e-001
1.767347e+003,2.974319e-001
1.768312e+003,8.785172e-001
1.769276e+003,1.118515e+000
1.770240e+003,1.238228e+000
1.771204e+003,1.662476e+000
1.772168e+003,2.073425e+000
1.773133e+003,1.364227e+000
1.774097e+003,-2.914505e-001
1.775061e+003,-9.148560e-001
1.776025e+003,-1.571579e-001
1.776990e+003,-1.082611e-002
1.777954e+003,-1.550972e+000
1.778918e+003,-2.776253e+000
1.779882e+003,-2.078598e+000
1.780846e+003,-4.514999e-001
1.781811e+003,1.251579e+000
1.782775e+003,2.746635e+000
1.783739e+003,2.836227e+000
1.784703e+003,1.225952e+000
1.785668e+003,-1.089859e-001
1.786632e+003,-5.513687e-001
1.787596e+003,-3.202286e-001
1.788560e+003,1.157120e+000
1.789525e+003,2.806030e+000
1.790489e+003,2.862328e+000
1.791453e+003,1.684120e+000
1.792417e+003,6.034775e-001
1.793382e+003,-2.348328e-002
1.794346e+003,-9.108734e-002
1.795310e+003,4.830704e-001
1.796274e+003,1.262077e+000
1.797239e+003,1.856354e+000
1.798203e+003,2.173660e+000
1.799167e+003,1.582893e+000
1.800131e+003,-3.785095e-001
1.801095e+003,-7.165527e-001
1.802060e+003,2.144157e+000
1.803024e+003,4.112206e+000
1.803988e+003,4.329742e+000
1.804952e+003,4.097092e+000
1.805917e+003,3.973595e+000
1.806881e+003,3.739662e+000
1.807845e+003,2.904625e+000
1.808809e+003,1.861946e+000
1.809773e+003,1.569740e+000
1.810738e+003,2.055992e+000
1.811702e+003,2.141792e+000
1.812666e+003,1.110367e+000
1.813630e+003,3.813171e-002
1.814595e+003,4.612961e-001
1.815559e+003,1.928314e+000
1.816523e+003,2.661499e+000
1.817487e+003,2.629173e+000
1.818452e+003,2.214050e+000
1.819416e+003,1.123222e+000
1.820380e+003,6.971359e-001
1.821344e+003,1.535675e+000
1.822309e+003,2.701790e+000
1.823273e+003,4.188942e+000
1.824237e+003,5.364479e+000
1.825201e+003,5.316460e+000
1.826166e+003,4.411629e+000
1.827130e+003,3.676888e+000
1.828094e+003,3.277771e+000
1.829058e+003,2.837509e+000
1.830022e+003,2.062073e+000
1.830987e+003,1.526474e+000
1.831951e+003,1.640991e+000
1.832915e+003,2.330841e+000
1.833879e+003,4.294304e+000
1.834844e+003,6.612549e+000
1.835808e+003,5.991188e+000
1.836772e+003,2.349792e+000
1.837736e+003,-1.570969e-001
1.838700e+003,2.820663e-001
1.839665e+003,1.617813e+000
1.840629e+003,2.037315e+000
1.841593e+003,2.088112e+000
1.842557e+003,3.012444e+000
1.843522e+003,4.783745e+000
1.844486e+003,5.521240e+000
1.845450e+003,4.666809e+000
1.846414e+003,3.930550e+000
1.847379e+003,3.164742e+000
1.848343e+003,2.582924e+000
1.849307e+003,2.223625e+000
1.850271e+003,2.141167e+000
1.851236e+003,2.477737e+000
1.852200e+003,3.082336e+000
1.853164e+003,3.904465e+000
1.854128e+003,4.697830e+000
1.855093e+003,4.874809e+000
1.856057e+003,4.338997e+000
1.857021e+003,3.957932e+000
1.857985e+003,4.483093e+000
1.858949e+003,5.291359e+000
1.859914e+003,5.302284e+000
1.860878e+003,4.653694e+000
1.861842e+003,4.011330e+000
1.862806e+003,3.363716e+000
1.863771e+003,2.776901e+000
1.864735e+003,2.154953e+000
1.865699e+003,2.037071e+000
1.866663e+003,2.919655e+000
1.867627e+003,3.969460e+000
1.868592e+003,4.724831e+000
1.869556e+003,4.899925e+000
1.870520e+003,3.649239e+000
1.871484e+003,1.284027e+000
1.872449e+003,-6.254578e-002
1.873413e+003,4.188538e-002
1.874377e+003,7.088013e-001
1.875341e+003,1.838272e+000
1.876306e+003,3.080605e+000
1.877270e+003,5.014702e+000
1.878234e+003,6.251274e+000
1.879198e+003,4.439751e+000
1.880163e+003,1.371361e+000
1.881127e+003,5.405579e-001
1.882091e+003,2.039047e+000
1.883055e+003,3.638527e+000
1.884020e+003,4.339645e+000
1.884984e+003,4.636299e+000
1.885948e+003,4.978088e+000
1.886912e+003,5.298737e+000
1.887876e+003,5.492790e+000
1.888841e+003,5.552605e+000
1.889805e+003,5.270401e+000
1.890769e+003,4.557533e+000
1.891733e+003,3.928459e+000
1.892698e+003,3.175186e+000
1.893662e+003,3.076027e+000
1.894626e+003,4.367279e+000
1.895590e+003,5.803406e+000
1.896554e+003,6.874588e+000
1.897519e+003,7.421898e+000
1.898483e+003,6.892532e+000
1.899447e+003,5.596642e+000
1.900411e+003,4.650307e+000
1.901376e+003,4.246613e+000
1.902340e+003,4.270859e+000
1.903304e+003,5.301727e+000
1.904268e+003,5.750877e+000
1.905233e+003,3.675766e+000
1.906197e+003,1.504265e+000
1.907161e+003,2.440147e+000
1.908125e+003,4.787918e+000
1.909090e+003,5.054916e+000
1.910054e+003,3.344994e+000
1.911018e+003,1.958244e+000
1.911982e+003,1.773659e+000
1.912947e+003,2.446968e+000
1.913911e+003,3.713989e+000
1.914875e+003,5.337112e+000
1.915839e+003,7.051163e+000
1.916803e+003,8.554436e+000
1.917768e+003,8.225037e+000
1.918732e+003,5.663506e+000
1.919696e+003,4.049164e+000
1.920660e+003,3.492928e+000
1.921625e+003,3.866188e+000
1.922589e+003,6.059258e+000
1.923553e+003,7.633133e+000
1.924517e+003,6.576164e+000
1.925481e+003,4.994667e+000
1.926446e+003,4.846649e+000
1.927410e+003,5.476593e+000
1.928374e+003,5.255974e+000
1.929338e+003,4.199051e+000
1.930303e+003,4.371185e+000
1.931267e+003,6.871803e+000
1.932231e+003,8.943573e+000
1.933195e+003,9.120934e+000
1.934160e+003,8.638023e+000
1.935124e+003,8.150810e+000
1.936088e+003,7.683250e+000
1.937052e+003,7.244934e+000
1.938017e+003,6.884193e+000
1.938981e+003,6.702736e+000
1.939945e+003,6.659126e+000
1.940909e+003,6.543205e+000
1.941874e+003,6.257813e+000
1.942838e+003,5.909157e+000
1.943802e+003,5.605110e+000
1.944766e+003,5.580330e+000
1.945730e+003,6.342941e+000
1.946695e+003,7.721252e+000
1.947659e+003,8.469215e+000
1.948623e+003,8.514984e+000
1.949587e+003,8.677498e+000
1.950552e+003,9.141716e+000
1.951516e+003,9.400917e+000
1.952480e+003,9.240852e+000
1.953444e+003,8.934341e+000
1.954408e+003,8.664833e+000
1.955373e+003,8.305153e+000
1.956337e+003,7.528099e+000
1.957301e+003,6.599693e+000
1.958265e+003,6.273056e+000
1.959230e+003,6.580101e+000
1.960194e+003,7.438370e+000
1.961158e+003,9.622604e+000
1.962122e+003,1.101512e+001
1.963087e+003,1.085893e+001
1.964051e+003,1.005196e+001
1.965015e+003,8.425644e+000
1.965979e+003,7.077095e+000
1.966944e+003,7.528603e+000
1.967908e+003,8.770050e+000
1.968872e+003,8.567131e+000
1.969836e+003,7.043327e+000
1.970801e+003,6.552925e+000
1.971765e+003,8.011078e+000
1.972729e+003,9.366478e+000
1.973693e+003,8.764626e+000
1.974657e+003,7.469925e+000
1.975622e+003,7.110268e+000
1.976586e+003,7.613693e+000
1.977550e+003,9.315948e+000
1.978514e+003,1.184023e+001
1.979479e+003,1.296415e+001
1.980443e+003,1.241562e+001
1.981407e+003,1.165818e+001
1.982371e+003,1.122720e+001
1.983335e+003,1.117038e+001
1.984300e+003,1.159136e+001
1.985264e+003,1.191184e+001
1.986228e+003,1.119792e+001
1.987192e+003,9.707428e+000
1.988157e+003,8.792213e+000
1.989121e+003,8.553482e+000
1.990085e+003,8.481400e+000
1.991049e+003,8.704948e+000
1.992014e+003,8.884857e+000
1.992978e+003,9.102722e+000
1.993942e+003,9.054970e+000
1.994906e+003,8.127602e+000
1.995871e+003,7.424942e+000
1.996835e+003,7.837639e+000
1.997799e+003,8.966927e+000
1.998763e+003,1.063807e+001
1.999728e+003,1.242303e+001
