5.003444e+002,3.032434e+001
5.013087e+002,2.938531e+001
5.022729e+002,2.633310e+001
5.032371e+002,2.241940e+001
5.042014e+002,2.095926e+001
5.051656e+002,2.164337e+001
5.061298e+002,2.283923e+001
5.070941e+002,2.300183e+001
5.080583e+002,2.168280e+001
5.090225e+002,2.111362e+001
5.099868e+002,2.155139e+001
5.109510e+002,2.217502e+001
5.119152e+002,2.259265e+001
5.128795e+002,2.279080e+001
5.138437e+002,2.310605e+001
5.148079e+002,2.478552e+001
5.157722e+002,2.572574e+001
5.167364e+002,2.422672e+001
5.177006e+002,2.050189e+001
5.186649e+002,1.671564e+001
5.196291e+002,1.616525e+001
5.205933e+002,1.713644e+001
5.215576e+002,1.732178e+001
5.225218e+002,1.632550e+001
5.234860e+002,1.478821e+001
5.244503e+002,1.414850e+001
5.254145e+002,1.516171e+001
5.263787e+002,1.503574e+001
5.273430e+002,1.260202e+001
5.283072e+002,9.811920e+000
5.292714e+002,9.562195e+000
5.302357e+002,1.345697e+001
5.311999e+002,1.566843e+001
5.321641e+002,1.528989e+001
5.331284e+002,1.404605e+001
5.340926e+002,1.293909e+001
5.350568e+002,1.217972e+001
5.360211e+002,1.166605e+001
5.369853e+002,1.203189e+001
5.379495e+002,1.264114e+001
5.389138e+002,1.268634e+001
5.398780e+002,1.191034e+001
5.408422e+002,1.082498e+001
5.418065e+002,1.115259e+001
5.427707e+002,1.266415e+001
5.437349e+002,1.392300e+001
5.446992e+002,1.461057e+001
5.456634e+002,1.468381e+001
5.466276e+002,1.406012e+001
5.475919e+002,1.154831e+001
5.485561e+002,1.004352e+001
5.495203e+002,1.002863e+001
5.504846e+002,1.075003e+001
5.514488e+002,1.133334e+001
5.524130e+002,1.183765e+001
5.533773e+002,1.168561e+001
5.543415e+002,1.033386e+001
5.553057e+002,8.508759e+000
5.562700e+002,6.823914e+000
5.572342e+002,5.625702e+000
5.581984e+002,4.784210e+000
5.591627e+002,4.298004e+000
5.601269e+002,4.157959e+000
5.610911e+002,4.064514e+000
5.620554e+002,3.793274e+000
5.630196e+002,3.273956e+000
5.639838e+002,2.711456e+000
5.649481e+002,1.800964e+000
5.659123e+002,1.306671e+000
5.668765e+002,2.193604e+000
5.678408e+002,3.956604e+000
5.688050e+002,4.659027e+000
5.697692e+002,2.186493e+000
5.707335e+002,1.390686e-001
5.716977e+002,-1.945496e-001
5.726619e+002,6.316528e-001
5.736262e+002,1.854004e+000
5.745904e+002,3.025909e+000
5.755546e+002,4.370575e+000
5.765189e+002,6.571716e+000
5.774831e+002,8.783447e+000
5.784473e+002,9.517090e+000
5.794116e+002,7.871429e+000
5.803758e+002,4.333557e+000
5.813400e+002,3.237183e+000
5.823043e+002,4.906830e+000
5.832685e+002,6.312653e+000
5.842327e+002,6.697388e+000
5.851970e+002,6.314178e+000
5.861612e+002,5.788788e+000
5.871254e+002,4.784576e+000
5.880897e+002,3.679077e+000
5.890539e+002,1.792480e+000
5.900181e+002,-1.416321e-001
5.909824e+002,-5.994568e-001
5.919466e+002,2.215881e+000
5.929108e+002,5.098175e+000
5.938751e+002,4.209625e+000
5.948393e+002,1.229034e+000
5.958035e+002,-1.158630e+000
5.967678e+002,-9.777527e-001
5.977320e+002,1.335083e+000
5.986962e+002,1.254791e+000
5.996605e+002,-1.535645e+000
6.006247e+002,-3.882385e+000
6.015889e+002,-4.045959e+000
6.025532e+002,-2.173401e+000
6.035174e+002,-9.454956e-001
6.044816e+002,-4.979858e-001
6.054459e+002,-5.945129e-001
6.064101e+002,-1.818390e+000
6.073743e+002,-3.504547e+000
6.083386e+002,-4.485870e+000
6.093028e+002,-3.978363e+000
6.102670e+002,-2.754791e+000
6.112313e+002,-1.082245e+000
6.121955e+002,5.371399e-001
6.131597e+002,1.240753e+000
6.141240e+002,4.692383e-001
6.150882e+002,-1.176239e+000
6.160524e+002,-2.762451e-001
6.170167e+002,2.807892e+000
6.179809e+002,4.698486e+000
6.189451e+002,3.237732e+000
6.199094e+002,-1.079590e+000
6.208736e+002,-3.523773e+000
6.218378e+002,-1.388580e+000
6.228021e+002,1.417542e-001
6.237663e+002,4.288940e-001
6.247305e+002,-2.236938e-002
6.256948e+002,-5.394897e-001
6.266590e+002,-1.305786e+000
6.276232e+002,-1.651917e+000
6.285875e+002,-5.451660e-001
6.295517e+002,1.074921e+000
6.305159e+002,2.183289e+000
6.314802e+002,2.147217e+000
6.324444e+002,1.180328e+000
6.334086e+002,-4.463806e-001
6.343729e+002,-2.202423e+000
6.353371e+002,-2.615112e+000
6.363013e+002,-9.362488e-001
6.372656e+002,1.932739e+000
6.382298e+002,2.937195e+000
6.391940e+002,-3.431091e-001
6.401583e+002,-2.614349e+000
6.411225e+002,-2.488800e+000
6.420867e+002,-1.497040e+000
6.430510e+002,-1.933533e+000
6.440152e+002,-5.236389e+000
6.449794e+002,-7.882385e+000
6.459437e+002,-7.855774e+000
6.469079e+002,-6.727875e+000
6.478721e+002,-5.117737e+000
6.488364e+002,-3.453461e+000
6.498006e+002,-2.306061e+000
6.507648e+002,-3.334045e+000
6.517291e+002,-5.809723e+000
6.526933e+002,-8.117828e+000
6.536575e+002,-1.004742e+001
6.546218e+002,-1.093787e+001
6.555860e+002,-9.276672e+000
6.565502e+002,-2.336029e+000
6.575145e+002,9.183350e-001
6.584787e+002,-1.680359e+000
6.594429e+002,-5.654541e+000
6.604072e+002,-7.478729e+000
6.613714e+002,-6.488312e+000
6.623356e+002,-5.388367e+000
6.632999e+002,-5.973816e+000
6.642641e+002,-6.663147e+000
6.652283e+002,-6.334167e+000
6.661926e+002,-4.932983e+000
6.671568e+002,-3.211334e+000
6.681210e+002,-2.122559e+000
6.690853e+002,-1.672089e+000
6.700495e+002,-1.457336e+000
6.710137e+002,-1.442230e+000
6.719780e+002,-1.498627e+000
6.729422e+002,-1.514099e+000
6.739064e+002,-1.535675e+000
6.748707e+002,-1.797394e+000
6.758349e+002,-2.757263e+000
6.767991e+002,-3.474731e+000
6.777634e+002,-3.209137e+000
6.787276e+002,-1.938293e+000
6.796918e+002,-5.789185e-001
6.806561e+002,8.028259e-001
6.816203e+002,1.363098e+000
6.825845e+002,9.869385e-002
6.835488e+002,-2.041901e+000
6.845130e+002,-3.491241e+000
6.854772e+002,-2.988556e+000
6.864415e+002,-1.269226e+000
6.874057e+002,-2.503052e-001
6.883699e+002,-2.859497e-002
6.893342e+002,-4.416199e-001
6.902984e+002,-1.387573e+000
6.912626e+002,-2.674194e+000
6.922269e+002,-3.481934e+000
6.931911e+002,-2.910492e+000
6.941553e+002,-2.402283e+000
6.951196e+002,-2.500000e+000
6.960838e+002,-2.988068e+000
6.970480e+002,-3.311768e+000
6.980123e+002,-3.136078e+000
6.989765e+002,-3.033264e+000
6.999407e+002,-3.533661e+000
7.009050e+002,-4.075836e+000
7.018692e+002,-4.507019e+000
7.028334e+002,-4.655426e+000
7.037977e+002,-3.927551e+000
7.047619e+002,3.931580e-001
7.057261e+002,5.890747e+000
7.066904e+002,6.212219e+000
7.076546e+002,3.256226e-001
7.086188e+002,-7.531555e+000
7.095831e+002,-1.059402e+001
7.105473e+002,-7.134369e+000
7.115115e+002,-4.194244e+000
7.124758e+002,-1.645050e+000
7.134400e+002,2.555237e-001
7.144042e+002,1.565338e+000
7.153685e+002,2.351410e+000
7.163327e+002,2.245178e+000
7.172969e+002,-4.731445e-001
7.182612e+002,-2.653473e+000
7.192254e+002,-2.511292e+000
7.201896e+002,-9.279785e-001
7.211539e+002,1.066895e-001
7.221181e+002,-1.129761e+000
7.230823e+002,-3.556641e+000
7.240466e+002,-3.944885e+000
7.250108e+002,-2.606781e+000
7.259750e+002,-1.450470e+000
7.269393e+002,-1.821930e+000
7.279035e+002,-3.770874e+000
7.288677e+002,-5.647369e+000
7.298320e+002,-7.702026e+000
7.307962e+002,-8.288300e+000
7.317604e+002,-6.177460e+000
7.327247e+002,-2.909912e+000
7.336889e+002,-9.322510e-001
7.346531e+002,-1.600647e+000
7.356174e+002,-2.553345e+000
7.365816e+002,-1.763733e+000
7.375458e+002,-3.656616e-001
7.385101e+002,1.008484e+000
7.394743e+002,2.020416e+000
7.404385e+002,2.414581e+000
7.414028e+002,1.353210e+000
7.423670e+002,-1.141449e+000
7.433312e+002,-2.554504e+000
7.442955e+002,-2.307220e+000
7.452597e+002,-1.130310e+000
7.462239e+002,7.373047e-002
7.471882e+002,1.269836e+000
7.481524e+002,2.074005e+000
7.491166e+002,1.921478e+000
7.500809e+002,1.415436e+000
7.510451e+002,8.607788e-001
7.520093e+002,1.799316e-001
7.529736e+002,-9.967041e-001
7.539378e+002,-2.931549e+000
7.549020e+002,-4.633331e+000
7.558663e+002,-6.187317e+000
7.568306e+002,-7.028229e+000
7.577948e+002,-6.094147e+000
7.587590e+002,-2.955902e+000
7.597233e+002,1.157318e+000
7.606875e+002,2.925812e+000
7.616517e+002,2.794800e+000
7.626160e+002,2.427887e+000
7.635802e+002,2.196198e+000
7.645444e+002,2.068604e+000
7.655087e+002,2.025909e+000
7.664729e+002,2.502533e+000
7.674371e+002,1.787964e+000
7.684014e+002,-1.721436e+000
7.693656e+002,-4.931702e+000
7.703298e+002,-5.541809e+000
7.712941e+002,-3.422943e+000
7.722583e+002,-8.823547e-001
7.732225e+002,6.673279e-001
7.741868e+002,1.678436e+000
7.751510e+002,2.597687e+000
7.761152e+002,3.321472e+000
7.770795e+002,3.384644e+000
7.780437e+002,2.327362e+000
7.790079e+002,3.106384e-001
7.799722e+002,-6.742859e-001
7.809364e+002,-6.987610e-001
7.819006e+002,-3.449402e-001
7.828649e+002,6.832275e-001
7.838291e+002,2.193176e+000
7.847933e+002,3.116425e+000
7.857576e+002,2.811127e+000
7.867218e+002,2.125427e+000
7.876860e+002,1.524261e+000
7.886503e+002,9.170532e-001
7.896145e+002,-2.068481e-001
7.905787e+002,-1.838135e+000
7.915430e+002,-2.619598e+000
7.925072e+002,-4.004517e-001
7.934714e+002,2.695862e+000
7.944357e+002,4.837830e+000
7.953999e+002,5.966827e+000
7.963641e+002,6.578461e+000
7.973284e+002,7.147522e+000
7.982926e+002,7.723450e+000
7.992568e+002,7.083252e+000
8.002211e+002,4.217621e+000
8.011853e+002,1.148132e+000
8.021495e+002,-1.415131e+000
8.031138e+002,-2.983917e+000
8.040780e+002,-2.801514e+000
8.050422e+002,1.037292e-001
8.060065e+002,2.743744e+000
8.069707e+002,3.952148e+000
8.079349e+002,4.301605e+000
8.088992e+002,4.558411e+000
8.098634e+002,5.058929e+000
8.108276e+002,5.300110e+000
8.117919e+002,3.738159e+000
8.127561e+002,1.088959e+000
8.137203e+002,-2.708435e-001
8.146846e+002,1.755371e-001
8.156488e+002,1.616272e+000
8.166130e+002,2.997498e+000
8.175773e+002,4.392242e+000
8.185415e+002,4.809875e+000
8.195057e+002,3.087891e+000
8.204700e+002,1.551056e+000
8.214342e+002,1.330963e+000
8.223984e+002,1.900452e+000
8.233627e+002,1.593262e+000
8.243269e+002,-9.480896e-001
8.252911e+002,-2.527130e+000
8.262554e+002,-9.412537e-001
8.272196e+002,1.987976e+000
8.281838e+002,4.638214e+000
8.291481e+002,6.256012e+000
8.301123e+002,6.940277e+000
8.310765e+002,6.612915e+000
8.320408e+002,5.343048e+000
8.330050e+002,4.932098e+000
8.339692e+002,5.770691e+000
8.349335e+002,6.754974e+000
8.358977e+002,6.647400e+000
8.368619e+002,5.324646e+000
8.378262e+002,4.911865e+000
8.387904e+002,6.402832e+000
8.397546e+002,7.323669e+000
8.407189e+002,6.742004e+000
8.416831e+002,5.299011e+000
8.426473e+002,3.985718e+000
8.436116e+002,3.118805e+000
8.445758e+002,3.209167e+000
8.455400e+002,5.386353e+000
8.465043e+002,7.928101e+000
8.474685e+002,9.051544e+000
8.484327e+002,8.539856e+000
8.493970e+002,7.580505e+000
8.503612e+002,7.892853e+000
8.513254e+002,9.698212e+000
8.522897e+002,1.013132e+001
8.532539e+002,8.304840e+000
8.542181e+002,6.136902e+000
8.551824e+002,4.441742e+000
8.561466e+002,3.597504e+000
8.571108e+002,4.933899e+000
8.580751e+002,1.064304e+001
8.590393e+002,1.478537e+001
8.600035e+002,1.477853e+001
8.609678e+002,1.307855e+001
8.619320e+002,1.257919e+001
8.628962e+002,1.435733e+001
8.638605e+002,1.658395e+001
8.648247e+002,1.603281e+001
8.657889e+002,1.401465e+001
8.667532e+002,1.362650e+001
8.677174e+002,1.526483e+001
8.686816e+002,1.749918e+001
8.696459e+002,1.882431e+001
8.706101e+002,1.930515e+001
8.715743e+002,1.925729e+001
8.725386e+002,1.783783e+001
8.735028e+002,1.705081e+001
8.744670e+002,1.752563e+001
8.754313e+002,1.858951e+001
8.763955e+002,1.907672e+001
8.773597e+002,1.850421e+001
8.783240e+002,1.823376e+001
8.792882e+002,1.969122e+001
8.802524e+002,2.136774e+001
8.812167e+002,2.173480e+001
8.821809e+002,2.070468e+001
8.831451e+002,1.951263e+001
8.841094e+002,1.982718e+001
8.850736e+002,2.177451e+001
8.860378e+002,2.346768e+001
8.870021e+002,2.494769e+001
8.879663e+002,2.568256e+001
8.889305e+002,2.484070e+001
8.898948e+002,2.272205e+001
8.908590e+002,2.124008e+001
8.918232e+002,2.056152e+001
8.927875e+002,2.105264e+001
8.937517e+002,2.349915e+001
8.947159e+002,2.647348e+001
8.956802e+002,2.865082e+001
8.966444e+002,2.964014e+001
8.976086e+002,3.017548e+001
8.985729e+002,3.147226e+001
8.995371e+002,3.275995e+001
9.005013e+002,3.205164e+001
9.014656e+002,2.986917e+001
9.024298e+002,2.840152e+001
9.033940e+002,2.925827e+001
9.043583e+002,3.186719e+001
9.053225e+002,3.315475e+001
9.062867e+002,3.143533e+001
9.072510e+002,3.014523e+001
9.082152e+002,3.010281e+001
9.091794e+002,3.057266e+001
9.101437e+002,3.074161e+001
9.111079e+002,3.045410e+001
9.120721e+002,3.017450e+001
9.130364e+002,2.991324e+001
9.140006e+002,2.953128e+001
9.149648e+002,2.935150e+001
9.159291e+002,2.929160e+001
9.168933e+002,2.886029e+001
9.178575e+002,2.761823e+001
9.188218e+002,2.577350e+001
9.197860e+002,2.436417e+001
9.207502e+002,2.323425e+001
9.217145e+002,2.297061e+001
9.226787e+002,2.452951e+001
9.236429e+002,2.678937e+001
9.246072e+002,2.793146e+001
9.255714e+002,2.753409e+001
9.265356e+002,2.730777e+001
9.274999e+002,2.777335e+001
9.284641e+002,2.797394e+001
9.294283e+002,2.821536e+001
9.303926e+002,2.798993e+001
9.313568e+002,2.582700e+001
9.323210e+002,2.074255e+001
9.332853e+002,1.571579e+001
9.342495e+002,1.702106e+001
9.352137e+002,2.131393e+001
9.361780e+002,2.381165e+001
9.371422e+002,2.365793e+001
9.381064e+002,2.281677e+001
9.390707e+002,2.378125e+001
9.400349e+002,2.676648e+001
9.409991e+002,2.830078e+001
9.419634e+002,2.750043e+001
9.429276e+002,2.648248e+001
9.438918e+002,2.564490e+001
9.448561e+002,2.507800e+001
9.458203e+002,2.499625e+001
9.467845e+002,2.565497e+001
9.477488e+002,2.622046e+001
9.487130e+002,2.539352e+001
9.496772e+002,2.457126e+001
9.506415e+002,2.544760e+001
9.516057e+002,2.763354e+001
9.525699e+002,2.891699e+001
9.535342e+002,2.703989e+001
9.544984e+002,2.253864e+001
9.554626e+002,2.123788e+001
9.564269e+002,2.395935e+001
9.573911e+002,2.665536e+001
9.583553e+002,2.836356e+001
9.593196e+002,2.924286e+001
9.602838e+002,2.931400e+001
9.612480e+002,2.816779e+001
9.622123e+002,2.761841e+001
9.631765e+002,2.951364e+001
9.641407e+002,3.097537e+001
9.651050e+002,3.041071e+001
9.660692e+002,2.816544e+001
9.670334e+002,2.524197e+001
9.679977e+002,2.236539e+001
9.689619e+002,2.007355e+001
9.699261e+002,1.906259e+001
9.708904e+002,1.901361e+001
9.718546e+002,2.011517e+001
9.728188e+002,2.244016e+001
9.737831e+002,2.537415e+001
9.747473e+002,2.851257e+001
9.757115e+002,3.223254e+001
9.766758e+002,3.449478e+001
9.776400e+002,3.544714e+001
9.786042e+002,3.516327e+001
9.795685e+002,3.221750e+001
9.805327e+002,2.829324e+001
9.814969e+002,2.592252e+001
9.824612e+002,2.611685e+001
9.834254e+002,2.700891e+001
9.843896e+002,2.632883e+001
9.853539e+002,2.521408e+001
9.863181e+002,2.509656e+001
9.872823e+002,2.576862e+001
9.882466e+002,2.630203e+001
9.892108e+002,2.613745e+001
9.901750e+002,2.575504e+001
9.911393e+002,2.617749e+001
9.921035e+002,2.709424e+001
9.930677e+002,2.799084e+001
9.940320e+002,2.861713e+001
9.949962e+002,2.988431e+001
9.959604e+002,3.308652e+001
9.969247e+002,3.822217e+001
9.978889e+002,4.284317e+001
9.988531e+002,4.554968e+001
9.998174e+002,4.684152e+001
1.000782e+003,4.678333e+001
1.001746e+003,4.618338e+001
1.002710e+003,4.620264e+001
1.003674e+003,4.719662e+001
1.004639e+003,4.813596e+001
1.005603e+003,4.706342e+001
1.006567e+003,4.364993e+001
1.007531e+003,4.223987e+001
1.008495e+003,4.378317e+001
1.009460e+003,4.539822e+001
1.010424e+003,4.566629e+001
1.011388e+003,4.475623e+001
1.012352e+003,4.291052e+001
1.013317e+003,3.920325e+001
1.014281e+003,3.619769e+001
1.015245e+003,3.472372e+001
1.016209e+003,3.377713e+001
1.017174e+003,3.309552e+001
1.018138e+003,3.236145e+001
1.019102e+003,3.103375e+001
1.020066e+003,2.869159e+001
1.021031e+003,2.575229e+001
1.021995e+003,2.233170e+001
1.022959e+003,1.843518e+001
1.023923e+003,1.639230e+001
1.024887e+003,1.764163e+001
1.025852e+003,1.979361e+001
1.026816e+003,1.872089e+001
1.027780e+003,1.352692e+001
1.028744e+003,1.031683e+001
1.029709e+003,1.178586e+001
1.030673e+003,1.252393e+001
1.031637e+003,9.789215e+000
1.032601e+003,5.680084e+000
1.033566e+003,3.409271e+000
1.034530e+003,4.149750e+000
1.035494e+003,6.162476e+000
1.036458e+003,8.134979e+000
1.037422e+003,9.534851e+000
1.038387e+003,9.300873e+000
1.039351e+003,7.526306e+000
1.040315e+003,5.542511e+000
1.041279e+003,4.323608e+000
1.042244e+003,3.990570e+000
1.043208e+003,4.754761e+000
1.044172e+003,7.443451e+000
1.045136e+003,9.322693e+000
1.046101e+003,1.026636e+001
1.047065e+003,1.075919e+001
1.048029e+003,1.080890e+001
1.048993e+003,1.054022e+001
1.049958e+003,1.042923e+001
1.050922e+003,1.085617e+001
1.051886e+003,1.153415e+001
1.052850e+003,1.253485e+001
1.053814e+003,1.333502e+001
1.054779e+003,1.288538e+001
1.055743e+003,1.110223e+001
1.056707e+003,9.170135e+000
1.057671e+003,8.524750e+000
1.058636e+003,9.125061e+000
1.059600e+003,9.921814e+000
1.060564e+003,1.155756e+001
1.061528e+003,1.308276e+001
1.062493e+003,1.438260e+001
1.063457e+003,1.502634e+001
1.064421e+003,1.431842e+001
1.065385e+003,1.234369e+001
1.066349e+003,1.102621e+001
1.067314e+003,1.186191e+001
1.068278e+003,1.308456e+001
1.069242e+003,1.371771e+001
1.070206e+003,1.389264e+001
1.071171e+003,1.350278e+001
1.072135e+003,1.254626e+001
1.073099e+003,1.168658e+001
1.074063e+003,1.232623e+001
1.075028e+003,1.479587e+001
1.075992e+003,1.565536e+001
1.076956e+003,1.419052e+001
1.077920e+003,1.226950e+001
1.078885e+003,1.038348e+001
1.079849e+003,8.884064e+000
1.080813e+003,8.199921e+000
1.081777e+003,8.412048e+000
1.082741e+003,9.521912e+000
1.083706e+003,1.248077e+001
1.084670e+003,1.502298e+001
1.085634e+003,1.555579e+001
1.086598e+003,1.473288e+001
1.087563e+003,1.438943e+001
1.088527e+003,1.552756e+001
1.089491e+003,1.669937e+001
1.090455e+003,1.430566e+001
1.091420e+003,7.642975e+000
1.092384e+003,4.642609e+000
1.093348e+003,6.600342e+000
1.094312e+003,9.336151e+000
1.095276e+003,1.120032e+001
1.096241e+003,1.226059e+001
1.097205e+003,1.195258e+001
1.098169e+003,9.294464e+000
1.099133e+003,7.358673e+000
1.100098e+003,8.316345e+000
1.101062e+003,9.582642e+000
1.102026e+003,9.219177e+000
1.102990e+003,7.841644e+000
1.103955e+003,7.197296e+000
1.104919e+003,8.304291e+000
1.105883e+003,1.052417e+001
1.106847e+003,1.290479e+001
1.107812e+003,1.534137e+001
1.108776e+003,1.631198e+001
1.109740e+003,1.523132e+001
1.110704e+003,1.378003e+001
1.111668e+003,1.306918e+001
1.112633e+003,1.324213e+001
1.113597e+003,1.442661e+001
1.114561e+003,1.705457e+001
1.115525e+003,1.920801e+001
1.116490e+003,2.004691e+001
1.117454e+003,2.045792e+001
1.118418e+003,2.112616e+001
1.119382e+003,2.214792e+001
1.120347e+003,2.324661e+001
1.121311e+003,2.405356e+001
1.122275e+003,2.420813e+001
1.123239e+003,2.341376e+001
1.124203e+003,2.211249e+001
1.125168e+003,2.170050e+001
1.126132e+003,2.241382e+001
1.127096e+003,2.388681e+001
1.128060e+003,2.622198e+001
1.129025e+003,2.899417e+001
1.129989e+003,3.040054e+001
1.130953e+003,2.941891e+001
1.131917e+003,2.887079e+001
1.132882e+003,2.956158e+001
1.133846e+003,3.099091e+001
1.134810e+003,3.326651e+001
1.135774e+003,3.601501e+001
1.136739e+003,3.835730e+001
1.137703e+003,3.980438e+001
1.138667e+003,4.126520e+001
1.139631e+003,4.440506e+001
1.140595e+003,4.915521e+001
1.141560e+003,5.475430e+001
1.142524e+003,6.155457e+001
1.143488e+003,6.858096e+001
1.144452e+003,7.422852e+001
1.145417e+003,7.944608e+001
1.146381e+003,8.806354e+001
1.147345e+003,1.014642e+002
1.148309e+003,1.146203e+002
1.149274e+003,1.269478e+002
1.150238e+003,1.383623e+002
1.151202e+003,1.489464e+002
1.152166e+003,1.587984e+002
1.153130e+003,1.687695e+002
1.154095e+003,1.787089e+002
1.155059e+003,1.852257e+002
1.156023e+003,1.835102e+002
1.156987e+003,1.740790e+002
1.157952e+003,1.627471e+002
1.158916e+003,1.493774e+002
1.159880e+003,1.375144e+002
1.160844e+003,1.296756e+002
1.161809e+003,1.235809e+002
1.162773e+003,1.142709e+002
1.163737e+003,1.005672e+002
1.164701e+003,8.905359e+001
1.165666e+003,8.332794e+001
1.166630e+003,7.846292e+001
1.167594e+003,7.248566e+001
1.168558e+003,6.629388e+001
1.169522e+003,6.124838e+001
1.170487e+003,5.782486e+001
1.171451e+003,5.569302e+001
1.172415e+003,5.448859e+001
1.173379e+003,5.409601e+001
1.174344e+003,5.452628e+001
1.175308e+003,5.597794e+001
1.176272e+003,5.664999e+001
1.177236e+003,5.605106e+001
1.178201e+003,5.449591e+001
1.179165e+003,5.154684e+001
1.180129e+003,4.698199e+001
1.181093e+003,4.438251e+001
1.182057e+003,4.618469e+001
1.183022e+003,4.782065e+001
1.183986e+003,4.740622e+001
1.184950e+003,4.621463e+001
1.185914e+003,4.503937e+001
1.186879e+003,4.443484e+001
1.187843e+003,4.526773e+001
1.188807e+003,4.822525e+001
1.189771e+003,5.218292e+001
1.190736e+003,5.401431e+001
1.191700e+003,5.349689e+001
1.192664e+003,5.256702e+001
1.193628e+003,5.178864e+001
1.194593e+003,5.041620e+001
1.195557e+003,4.696265e+001
1.196521e+003,4.233984e+001
1.197485e+003,4.032019e+001
1.198449e+003,4.253326e+001
1.199414e+003,4.410437e+001
1.200378e+003,4.219531e+001
1.201342e+003,3.954184e+001
1.202306e+003,3.733356e+001
1.203271e+003,3.568063e+001
1.204235e+003,3.462708e+001
1.205199e+003,3.414728e+001
1.206163e+003,3.369949e+001
1.207128e+003,3.224823e+001
1.208092e+003,2.974121e+001
1.209056e+003,2.806729e+001
1.210020e+003,2.801837e+001
1.210984e+003,2.715390e+001
1.211949e+003,2.393573e+001
1.212913e+003,1.994202e+001
1.213877e+003,1.757736e+001
1.214841e+003,1.699722e+001
1.215806e+003,1.571652e+001
1.216770e+003,1.226913e+001
1.217734e+003,8.550873e+000
1.218698e+003,4.961182e+000
1.219663e+003,2.186920e+000
1.220627e+003,1.552826e+000
1.221591e+003,2.935669e+000
1.222555e+003,4.738434e+000
1.223520e+003,5.542511e+000
1.224484e+003,5.566071e+000
1.225448e+003,5.402893e+000
1.226412e+003,4.889526e+000
1.227376e+003,4.408264e+000
1.228341e+003,4.106171e+000
1.229305e+003,3.509033e+000
1.230269e+003,1.826660e+000
1.231233e+003,-2.136536e-001
1.232198e+003,-8.320923e-001
1.233162e+003,6.113892e-001
1.234126e+003,2.138275e+000
1.235090e+003,1.994690e+000
1.236055e+003,1.228180e+000
1.237019e+003,9.340210e-001
1.237983e+003,9.723511e-001
1.238947e+003,1.225494e+000
1.239911e+003,1.743225e+000
1.240876e+003,2.016144e+000
1.241840e+003,1.007111e+000
1.242804e+003,-1.396515e+000
1.243768e+003,-2.743744e+000
1.244733e+003,-2.906036e+000
1.245697e+003,-1.969727e+000
1.246661e+003,8.467407e-001
1.247625e+003,3.626648e+000
1.248590e+003,5.451782e+000
1.249554e+003,6.247040e+000
1.250518e+003,5.565338e+000
1.251482e+003,2.902496e+000
1.252447e+003,3.640747e-001
1.253411e+003,1.008118e+000
1.254375e+003,3.739380e+000
1.255339e+003,6.151947e+000
1.256303e+003,8.210205e+000
1.257268e+003,1.000165e+001
1.258232e+003,1.142007e+001
1.259196e+003,1.225104e+001
1.260160e+003,1.210861e+001
1.261125e+003,1.082922e+001
1.262089e+003,1.095508e+001
1.263053e+003,1.390390e+001
1.264017e+003,1.641010e+001
1.264982e+003,1.830991e+001
1.265946e+003,1.918109e+001
1.266910e+003,1.836829e+001
1.267874e+003,1.615280e+001
1.268839e+003,1.338208e+001
1.269803e+003,1.061783e+001
1.270767e+003,8.220581e+000
1.271731e+003,6.955383e+000
1.272695e+003,6.971405e+000
1.273660e+003,7.611938e+000
1.274624e+003,8.865021e+000
1.275588e+003,9.733826e+000
1.276552e+003,1.000378e+001
1.277517e+003,9.799347e+000
1.278481e+003,8.910034e+000
1.279445e+003,7.184967e+000
1.280409e+003,5.701477e+000
1.281374e+003,5.076843e+000
1.282338e+003,4.482941e+000
1.283302e+003,2.757538e+000
1.284266e+003,1.198425e+000
1.285230e+003,1.719055e+000
1.286195e+003,4.143890e+000
1.287159e+003,6.637970e+000
1.288123e+003,7.788666e+000
1.289087e+003,7.749023e+000
1.290052e+003,6.431824e+000
1.291016e+003,2.820374e+000
1.291980e+003,1.059143e+000
1.292944e+003,2.348206e+000
1.293909e+003,3.345856e+000
1.294873e+003,2.471130e+000
1.295837e+003,1.095856e+000
1.296801e+003,1.374603e+000
1.297766e+003,3.433655e+000
1.298730e+003,4.791718e+000
1.299694e+003,3.537781e+000
1.300658e+003,1.897797e+000
1.301622e+003,3.567780e+000
1.302587e+003,6.283325e+000
1.303551e+003,5.442688e+000
1.304515e+003,7.266846e-001
1.305479e+003,-2.943848e+000
1.306444e+003,-1.407257e+000
1.307408e+003,3.472717e+000
1.308372e+003,5.611267e+000
1.309336e+003,3.991089e+000
1.310301e+003,2.666229e+000
1.311265e+003,1.596344e+000
1.312229e+003,1.403778e+000
1.313193e+003,3.477539e+000
1.314157e+003,5.632080e+000
1.315122e+003,5.395325e+000
1.316086e+003,2.673950e+000
1.317050e+003,-1.038086e+000
1.318014e+003,-4.803925e+000
1.318979e+003,-7.723114e+000
1.319943e+003,-8.207733e+000
1.320907e+003,-6.271790e+000
1.321871e+003,-3.498718e+000
1.322836e+003,1.592712e-001
1.323800e+003,3.233948e+000
1.324764e+003,5.135742e+000
1.325728e+003,5.970215e+000
1.326693e+003,5.490356e+000
1.327657e+003,3.544952e+000
1.328621e+003,1.880676e+000
1.329585e+003,1.607452e+000
1.330549e+003,1.869812e+000
1.331514e+003,1.516541e+000
1.332478e+003,9.757996e-001
1.333442e+003,1.002777e+000
1.334406e+003,1.566040e+000
1.335371e+003,2.180023e+000
1.336335e+003,2.504272e+000
1.337299e+003,2.105713e+000
1.338263e+003,-1.725464e-001
1.339228e+003,-4.918732e+000
1.340192e+003,-5.810577e+000
1.341156e+003,1.227692e+000
1.342120e+003,5.838776e+000
1.343084e+003,4.529083e+000
1.344049e+003,1.694244e+000
1.345013e+003,1.090607e+000
1.345977e+003,2.447845e+000
1.346941e+003,3.533905e+000
1.347906e+003,3.521179e+000
1.348870e+003,3.270538e+000
1.349834e+003,3.549225e+000
1.350798e+003,3.930969e+000
1.351763e+003,3.744171e+000
1.352727e+003,3.159454e+000
1.353691e+003,2.910706e+000
1.354655e+003,3.411896e+000
1.355620e+003,3.918091e+000
1.356584e+003,3.229767e+000
1.357548e+003,1.666199e+000
1.358512e+003,1.662140e+000
1.359476e+003,3.908295e+000
1.360441e+003,5.309967e+000
1.361405e+003,4.641846e+000
1.362369e+003,3.700317e+000
1.363333e+003,3.374176e+000
1.364298e+003,3.339386e+000
1.365262e+003,2.993683e+000
1.366226e+003,2.237793e+000
1.367190e+003,1.507263e+000
1.368155e+003,1.193848e+000
1.369119e+003,1.133545e+000
1.370083e+003,8.480835e-001
1.371047e+003,3.403931e-001
1.372011e+003,1.244507e-001
1.372976e+003,5.081787e-001
1.373940e+003,2.767639e-001
1.374904e+003,-1.878937e+000
1.375868e+003,-4.140228e+000
1.376833e+003,-4.094788e+000
1.377797e+003,-1.821014e+000
1.378761e+003,9.726563e-001
1.379725e+003,4.075745e+000
1.380690e+003,6.071381e+000
1.381654e+003,4.247589e+000
1.382618e+003,1.093567e+000
1.383582e+003,2.268066e-001
1.384547e+003,1.561218e+000
1.385511e+003,2.549255e+000
1.386475e+003,1.702087e+000
1.387439e+003,2.878418e-001
1.388403e+003,4.383240e-001
1.389368e+003,2.123901e+000
1.390332e+003,3.300201e+000
1.391296e+003,3.788116e+000
1.392260e+003,4.334412e+000
1.393225e+003,5.389435e+000
1.394189e+003,6.143250e+000
1.395153e+003,6.103607e+000
1.396117e+003,5.483337e+000
1.397082e+003,4.617065e+000
1.398046e+003,3.699738e+000
1.399010e+003,2.643219e+000
1.399974e+003,1.197266e+000
1.400938e+003,-3.768311e-001
1.401903e+003,-3.981323e-001
1.402867e+003,2.332123e+000
1.403831e+003,4.155396e+000
1.404795e+003,3.586060e+000
1.405760e+003,3.574615e+000
1.406724e+003,5.743378e+000
1.407688e+003,7.803101e+000
1.408652e+003,6.864655e+000
1.409617e+003,3.650513e+000
1.410581e+003,1.945160e+000
1.411545e+003,3.412384e+000
1.412509e+003,5.707062e+000
1.413474e+003,6.612518e+000
1.414438e+003,6.478088e+000
1.415402e+003,6.269928e+000
1.416366e+003,6.215363e+000
1.417330e+003,6.229675e+000
1.418295e+003,6.200287e+000
1.419259e+003,6.552917e+000
1.420223e+003,7.934784e+000
1.421187e+003,9.975708e+000
1.422152e+003,1.120535e+001
1.423116e+003,1.164084e+001
1.424080e+003,1.199673e+001
1.425044e+003,1.196954e+001
1.426009e+003,1.195502e+001
1.426973e+003,1.249673e+001
1.427937e+003,1.289044e+001
1.428901e+003,1.178778e+001
1.429865e+003,9.729919e+000
1.430830e+003,9.263489e+000
1.431794e+003,1.190036e+001
1.432758e+003,1.539380e+001
1.433722e+003,1.539114e+001
1.434687e+003,1.174908e+001
1.435651e+003,1.113452e+001
1.436615e+003,1.584708e+001
1.437579e+003,1.853259e+001
1.438544e+003,1.773703e+001
1.439508e+003,1.578867e+001
1.440472e+003,1.384521e+001
1.441436e+003,1.233936e+001
1.442401e+003,1.156192e+001
1.443365e+003,1.148407e+001
1.444329e+003,1.195676e+001
1.445293e+003,1.311618e+001
1.446257e+003,1.438718e+001
1.447222e+003,1.450467e+001
1.448186e+003,1.357108e+001
1.449150e+003,1.215549e+001
1.450114e+003,1.007388e+001
1.451079e+003,8.121094e+000
1.452043e+003,6.599396e+000
1.453007e+003,5.818237e+000
1.453971e+003,6.324524e+000
1.454936e+003,7.842834e+000
1.455900e+003,8.944641e+000
1.456864e+003,9.220398e+000
1.457828e+003,9.928131e+000
1.458792e+003,1.229227e+001
1.459757e+003,1.462967e+001
1.460721e+003,1.554828e+001
1.461685e+003,1.539041e+001
1.462649e+003,1.523846e+001
1.463614e+003,1.537708e+001
1.464578e+003,1.456305e+001
1.465542e+003,1.127475e+001
1.466506e+003,6.733154e+000
1.467471e+003,5.041168e+000
1.468435e+003,7.117859e+000
1.469399e+003,8.736084e+000
1.470363e+003,8.655975e+000
1.471328e+003,9.014618e+000
1.472292e+003,1.017239e+001
1.473256e+003,1.154111e+001
1.474220e+003,1.382611e+001
1.475184e+003,1.615512e+001
1.476149e+003,1.620859e+001
1.477113e+003,1.354507e+001
1.478077e+003,1.101245e+001
1.479041e+003,1.160751e+001
1.480006e+003,1.436652e+001
1.480970e+003,1.554279e+001
1.481934e+003,1.422522e+001
1.482898e+003,1.413672e+001
1.483863e+003,1.608456e+001
1.484827e+003,1.786450e+001
1.485791e+003,1.914532e+001
1.486755e+003,2.020572e+001
1.487719e+003,2.128415e+001
1.488684e+003,2.210687e+001
1.489648e+003,2.174313e+001
1.490612e+003,2.010394e+001
1.491576e+003,1.964886e+001
1.492541e+003,2.254105e+001
1.493505e+003,2.732053e+001
1.494469e+003,3.112460e+001
1.495433e+003,3.382162e+001
1.496398e+003,3.586450e+001
1.497362e+003,3.729938e+001
1.498326e+003,3.937357e+001
1.499290e+003,4.303479e+001
1.500255e+003,4.739240e+001
1.501219e+003,5.076959e+001
1.502183e+003,5.346597e+001
1.503147e+003,5.797488e+001
1.504111e+003,6.515070e+001
1.505076e+003,7.250870e+001
1.506040e+003,7.834015e+001
1.507004e+003,8.414099e+001
1.507968e+003,9.074393e+001
1.508933e+003,9.859290e+001
1.509897e+003,1.092915e+002
1.510861e+003,1.232511e+002
1.511825e+003,1.373275e+002
1.512790e+003,1.490190e+002
1.513754e+003,1.592267e+002
1.514718e+003,1.696821e+002
1.515682e+003,1.801869e+002
1.516646e+003,1.924159e+002
1.517611e+003,2.090194e+002
1.518575e+003,2.220433e+002
1.519539e+003,2.281521e+002
1.520503e+003,2.313959e+002
1.521468e+003,2.333513e+002
1.522432e+003,2.336821e+002
1.523396e+003,2.323245e+002
1.524360e+003,2.287551e+002
1.525325e+003,2.208398e+002
1.526289e+003,2.072619e+002
1.527253e+003,1.918902e+002
1.528217e+003,1.818784e+002
1.529182e+003,1.775176e+002
1.530146e+003,1.694891e+002
1.531110e+003,1.562238e+002
1.532074e+003,1.416666e+002
1.533039e+003,1.245101e+002
1.534003e+003,1.072146e+002
1.534967e+003,9.003510e+001
1.535931e+003,7.473773e+001
1.536896e+003,6.324451e+001
1.537860e+003,5.540103e+001
1.538824e+003,5.008398e+001
1.539788e+003,4.640622e+001
1.540752e+003,4.286322e+001
1.541717e+003,3.760089e+001
1.542681e+003,3.110187e+001
1.543645e+003,2.557584e+001
1.544609e+003,2.082980e+001
1.545573e+003,1.854135e+001
1.546538e+003,2.075342e+001
1.547502e+003,2.196408e+001
1.548466e+003,1.926157e+001
1.549430e+003,1.598230e+001
1.550395e+003,1.539575e+001
1.551359e+003,1.704547e+001
1.552323e+003,1.931229e+001
1.553287e+003,2.148666e+001
1.554252e+003,2.211383e+001
1.555216e+003,1.954947e+001
1.556180e+003,1.544238e+001
1.557144e+003,1.383304e+001
1.558109e+003,1.492511e+001
1.559073e+003,1.515103e+001
1.560037e+003,1.357507e+001
1.561001e+003,1.217142e+001
1.561966e+003,1.221893e+001
1.562930e+003,1.277914e+001
1.563894e+003,1.289172e+001
1.564858e+003,1.253641e+001
1.565823e+003,1.186252e+001
1.566787e+003,1.090500e+001
1.567751e+003,1.007022e+001
1.568715e+003,9.745148e+000
1.569679e+003,9.460144e+000
1.570644e+003,8.126678e+000
1.571608e+003,6.252747e+000
1.572572e+003,5.786865e+000
1.573536e+003,6.960052e+000
1.574500e+003,8.607239e+000
1.575465e+003,1.052347e+001
1.576429e+003,1.233633e+001
1.577393e+003,1.361963e+001
1.578357e+003,1.446332e+001
1.579322e+003,1.548053e+001
1.580286e+003,1.667099e+001
1.581250e+003,1.653500e+001
1.582214e+003,1.425571e+001
1.583179e+003,1.185623e+001
1.584143e+003,1.054184e+001
1.585107e+003,9.939423e+000
1.586071e+003,9.646851e+000
1.587036e+003,1.003021e+001
1.588000e+003,1.168124e+001
1.588964e+003,1.464703e+001
1.589928e+003,1.738342e+001
1.590893e+003,1.926877e+001
1.591857e+003,2.005072e+001
1.592821e+003,1.881580e+001
1.593785e+003,1.602472e+001
1.594750e+003,1.403918e+001
1.595714e+003,1.303146e+001
1.596678e+003,1.285684e+001
1.597642e+003,1.386295e+001
1.598606e+003,1.516687e+001
1.599571e+003,1.659857e+001
1.600535e+003,1.773038e+001
1.601499e+003,1.744299e+001
1.602463e+003,1.602997e+001
1.603427e+003,1.563351e+001
1.604392e+003,1.729984e+001
1.605356e+003,1.890076e+001
1.606320e+003,1.802176e+001
1.607284e+003,1.552240e+001
1.608249e+003,1.358008e+001
1.609213e+003,1.219012e+001
1.610177e+003,1.208713e+001
1.611141e+003,1.416809e+001
1.612106e+003,1.561472e+001
1.613070e+003,1.380338e+001
1.614034e+003,1.198126e+001
1.614998e+003,1.327982e+001
1.615963e+003,1.590427e+001
1.616927e+003,1.624963e+001
1.617891e+003,1.403793e+001
1.618855e+003,1.229846e+001
1.619820e+003,1.279199e+001
1.620784e+003,1.400406e+001
1.621748e+003,1.473312e+001
1.622712e+003,1.506693e+001
1.623677e+003,1.248672e+001
1.624641e+003,5.796082e+000
1.625605e+003,3.669647e+000
1.626569e+003,1.067090e+001
1.627533e+003,1.676749e+001
1.628498e+003,1.678705e+001
1.629462e+003,1.473334e+001
1.630426e+003,1.334940e+001
1.631390e+003,1.265768e+001
1.632354e+003,1.215976e+001
1.633319e+003,1.167096e+001
1.634283e+003,1.117685e+001
1.635247e+003,1.064606e+001
1.636211e+003,1.001620e+001
1.637176e+003,8.745148e+000
1.638140e+003,7.129150e+000
1.639104e+003,8.767609e+000
1.640068e+003,1.504395e+001
1.641033e+003,1.919281e+001
1.641997e+003,1.885040e+001
1.642961e+003,1.724548e+001
1.643925e+003,1.518115e+001
1.644890e+003,1.336301e+001
1.645854e+003,1.241272e+001
1.646818e+003,1.223602e+001
1.647782e+003,1.264407e+001
1.648747e+003,1.349747e+001
1.649711e+003,1.431223e+001
1.650675e+003,1.488141e+001
1.651639e+003,1.521240e+001
1.652604e+003,1.466278e+001
1.653568e+003,1.318323e+001
1.654532e+003,1.346701e+001
1.655496e+003,1.675397e+001
1.656460e+003,1.777481e+001
1.657425e+003,1.308151e+001
1.658389e+003,8.614075e+000
1.659353e+003,7.312805e+000
1.660317e+003,7.976013e+000
1.661281e+003,1.021048e+001
1.662246e+003,1.305484e+001
1.663210e+003,1.451495e+001
1.664174e+003,1.403897e+001
1.665138e+003,1.272568e+001
1.666103e+003,1.128482e+001
1.667067e+003,9.656860e+000
1.668031e+003,7.536835e+000
1.668995e+003,5.106415e+000
1.669960e+003,4.329041e+000
1.670924e+003,5.832123e+000
1.671888e+003,7.181793e+000
1.672852e+003,7.171143e+000
1.673817e+003,7.263916e+000
1.674781e+003,8.948547e+000
1.675745e+003,1.076605e+001
1.676709e+003,1.090961e+001
1.677674e+003,9.727722e+000
1.678638e+003,8.741425e+000
1.679602e+003,8.428131e+000
1.680566e+003,7.948242e+000
1.681531e+003,6.544800e+000
1.682495e+003,5.041473e+000
1.683459e+003,4.683441e+000
1.684423e+003,5.188477e+000
1.685387e+003,5.635040e+000
1.686352e+003,6.029144e+000
1.687316e+003,6.214569e+000
1.688280e+003,5.682159e+000
1.689244e+003,5.791473e+000
1.690208e+003,9.301544e+000
1.691173e+003,1.263504e+001
1.692137e+003,1.092798e+001
1.693101e+003,5.843262e+000
1.694065e+003,2.509277e+000
1.695030e+003,1.976746e+000
1.695994e+003,2.631714e+000
1.696958e+003,4.102631e+000
1.697922e+003,5.746216e+000
1.698887e+003,6.995270e+000
1.699851e+003,7.790619e+000
1.700815e+003,7.596436e+000
1.701779e+003,6.285370e+000
1.702744e+003,4.661469e+000
1.703708e+003,2.992035e+000
1.704672e+003,2.053986e+000
1.705636e+003,2.286530e+000
1.706601e+003,3.073639e+000
1.707565e+003,4.709961e+000
1.708529e+003,6.585052e+000
1.709493e+003,5.356201e+000
1.710458e+003,5.361938e-002
1.711422e+003,-3.072083e+000
1.712386e+003,5.317688e-001
1.713350e+003,5.158875e+000
1.714314e+003,5.863190e+000
1.715279e+003,4.436523e+000
1.716243e+003,4.139862e+000
1.717207e+003,4.936218e+000
1.718171e+003,4.996216e+000
1.719135e+003,3.865021e+000
1.720100e+003,2.758118e+000
1.721064e+003,2.406433e+000
1.722028e+003,2.363800e+000
1.722992e+003,2.380585e+000
1.723957e+003,2.530884e+000
1.724921e+003,1.767548e+000
1.725885e+003,-5.330505e-001
1.726849e+003,-2.238434e+000
1.727814e+003,-2.458923e+000
1.728778e+003,-1.963623e+000
1.729742e+003,-1.149414e+000
1.730706e+003,1.337585e-001
1.731671e+003,2.606873e+000
1.732635e+003,5.038544e+000
1.733599e+003,5.063873e+000
1.734563e+003,2.897919e+000
1.735528e+003,1.172699e+000
1.736492e+003,1.173920e+000
1.737456e+003,2.061096e+000
1.738420e+003,3.024567e+000
1.739385e+003,3.485352e+000
1.740349e+003,1.728119e+000
1.741313e+003,-3.126556e+000
1.742277e+003,-4.811554e+000
1.743241e+003,-6.539307e-001
1.744206e+003,2.617859e+000
1.745170e+003,4.341949e+000
1.746134e+003,4.549835e+000
1.747098e+003,1.978912e+000
1.748063e+003,-1.167908e+000
1.749027e+003,-2.369354e+000
1.749991e+003,-1.808838e+000
1.750955e+003,-8.154907e-001
1.751919e+003,-6.823730e-002
1.752884e+003,9.582520e-002
1.753848e+003,-6.133423e-001
1.754812e+003,-1.840210e+000
1.755776e+003,-2.684906e+000
1.756741e+003,-2.976196e+000
1.757705e+003,-3.671387e+000
1.758669e+003,-5.399414e+000
1.759633e+003,-6.207153e+000
1.760598e+003,-5.453705e+000
1.761562e+003,-4.725128e+000
1.762526e+003,-4.295685e+000
1.763490e+003,-3.843933e+000
1.764455e+003,-3.036652e+000
1.765419e+003,-2.036102e+000
1.766383e+003,-1.089172e+000
1.767347e+003,-4.529724e-001
1.768312e+003,-5.320740e-001
1.769276e+003,-1.589661e+000
1.770240e+003,-3.120819e+000
1.771204e+003,-4.726990e+000
1.772168e+003,-5.653198e+000
1.773133e+003,-3.710266e+000
1.774097e+003,5.591125e-001
1.775061e+003,9.683533e-001
1.776025e+003,-4.073944e+000
1.776990e+003,-7.036163e+000
1.777954e+003,-4.241730e+000
1.778918e+003,-7.060547e-001
1.779882e+003,-2.978821e-001
1.780846e+003,-1.387482e+000
1.781811e+003,-1.543335e+000
1.782775e+003,-1.004486e+000
1.783739e+003,-9.142151e-001
1.784703e+003,-1.441406e+000
1.785668e+003,-1.348724e+000
1.786632e+003,6.271362e-001
1.787596e+003,1.808258e+000
1.788560e+003,-2.780457e-001
1.789525e+003,-3.378601e+000
1.790489e+003,-4.785126e+000
1.791453e+003,-4.748627e+000
1.792417e+003,-4.345490e+000
1.793382e+003,-3.825104e+000
1.794346e+003,-2.900726e+000
1.795310e+003,-1.368805e+000
1.796274e+003,-5.084534e-001
1.797239e+003,-1.913910e+000
1.798203e+003,-4.270660e+000
1.799167e+003,-4.049194e+000
1.800131e+003,-1.087708e+000
1.801095e+003,1.444092e-001
1.802060e+003,-6.335144e-001
1.803024e+003,-1.633209e+000
1.803988e+003,-3.668915e+000
1.804952e+003,-5.006470e+000
1.805917e+003,-4.592041e+000
1.806881e+003,-3.301575e+000
1.807845e+003,-1.120667e+000
1.808809e+003,9.941406e-001
1.809773e+003,9.223938e-001
1.810738e+003,-1.292999e+000
1.811702e+003,-2.920197e+000
1.812666e+003,-2.281769e+000
1.813630e+003,-5.565186e-001
1.814595e+003,9.009399e-001
1.815559e+003,1.764374e+000
1.816523e+003,4.586182e-001
1.817487e+003,-3.319550e+000
1.818452e+003,-5.038666e+000
1.819416e+003,-3.660461e+000
1.820380e+003,-1.942261e+000
1.821344e+003,-1.152954e-001
1.822309e+003,6.869202e-001
1.823273e+003,-1.413361e+000
1.824237e+003,-3.536194e+000
1.825201e+003,-2.003845e+000
1.826166e+003,1.621307e+000
1.827130e+003,2.872955e+000
1.828094e+003,9.545593e-001
1.829058e+003,-1.030670e+000
1.830022e+003,-1.698334e+000
1.830987e+003,-1.460663e+000
1.831951e+003,6.845703e-001
1.832915e+003,2.566437e+000
1.833879e+003,-5.349121e-001
1.834844e+003,-6.462097e+000
1.835808e+003,-7.819550e+000
1.836772e+003,-3.889465e+000
1.837736e+003,-2.913208e-001
1.838700e+003,4.451904e-001
1.839665e+003,-1.799622e-001
1.840629e+003,-8.429871e-001
1.841593e+003,-1.452759e+000
1.842557e+003,-1.932800e+000
1.843522e+003,-2.302490e+000
1.844486e+003,-3.234222e+000
1.845450e+003,-5.469116e+000
1.846414e+003,-6.226746e+000
1.847379e+003,-4.403320e+000
1.848343e+003,-3.373260e+000
1.849307e+003,-4.611633e+000
1.850271e+003,-6.201172e+000
1.851236e+003,-6.849121e+000
1.852200e+003,-6.685638e+000
1.853164e+003,-6.288025e+000
1.854128e+003,-5.874573e+000
1.855093e+003,-5.103851e+000
1.856057e+003,-3.722015e+000
1.857021e+003,-2.258942e+000
1.857985e+003,-1.279327e+000
1.858949e+003,-6.122742e-001
1.859914e+003,2.870178e-001
1.860878e+003,1.304474e+000
1.861842e+003,1.208954e+000
1.862806e+003,-1.200256e-001
1.863771e+003,-8.477478e-001
1.864735e+003,-7.458801e-001
1.865699e+003,1.129150e-002
1.866663e+003,2.368286e+000
1.867627e+003,3.759552e+000
1.868592e+003,4.458923e-001
1.869556e+003,-4.826843e+000
1.870520e+003,-6.000549e+000
1.871484e+003,-3.809509e+000
1.872449e+003,-3.151642e+000
1.873413e+003,-4.431000e+000
1.874377e+003,-4.937653e+000
1.875341e+003,-4.403015e+000
1.876306e+003,-3.376129e+000
1.877270e+003,-1.599823e+000
1.878234e+003,-1.041870e-001
1.879198e+003,9.719849e-002
1.880163e+003,-6.002502e-001
1.881127e+003,-1.374786e+000
1.882091e+003,-2.106323e+000
1.883055e+003,-3.499329e+000
1.884020e+003,-5.679047e+000
1.884984e+003,-6.798248e+000
1.885948e+003,-5.082703e+000
1.886912e+003,-2.423126e+000
1.887876e+003,-2.990356e+000
1.888841e+003,-6.263550e+000
1.889805e+003,-5.449615e+000
1.890769e+003,7.738037e-001
1.891733e+003,3.622345e+000
1.892698e+003,2.032166e-001
1.893662e+003,-1.885162e+000
1.894626e+003,1.897186e+000
1.895590e+003,5.293304e+000
1.896554e+003,2.833557e+000
1.897519e+003,-1.306122e+000
1.898483e+003,-2.440247e+000
1.899447e+003,-1.221344e+000
1.900411e+003,2.040710e-001
1.901376e+003,1.608948e+000
1.902340e+003,2.670929e+000
1.903304e+003,3.637604e+000
1.904268e+003,3.570923e+000
1.905233e+003,6.658325e-001
1.906197e+003,-2.212311e+000
1.907161e+003,-1.073883e+000
1.908125e+003,1.836334e+000
1.909090e+003,1.590179e+000
1.910054e+003,-1.558167e+000
1.911018e+003,-3.565430e+000
1.911982e+003,-3.029633e+000
1.912947e+003,-1.912659e+000
1.913911e+003,-1.721375e+000
1.914875e+003,-1.658203e+000
1.915839e+003,-4.960632e-001
1.916803e+003,1.302185e+000
1.917768e+003,2.395325e+000
1.918732e+003,3.058228e+000
1.919696e+003,1.968201e+000
1.920660e+003,-2.064545e+000
1.921625e+003,-3.977814e+000
1.922589e+003,-1.354584e+000
1.923553e+003,1.084961e+000
1.924517e+003,1.960449e-001
1.925481e+003,-1.290466e+000
1.926446e+003,-5.010681e-001
1.927410e+003,1.272003e+000
1.928374e+003,7.306213e-001
1.929338e+003,-2.132965e+000
1.930303e+003,-2.692322e+000
1.931267e+003,1.619019e+000
1.932231e+003,4.843079e+000
1.933195e+003,2.686951e+000
1.934160e+003,-4.208374e-002
1.935124e+003,3.128357e-001
1.936088e+003,1.816223e+000
1.937052e+003,2.608429e+000
1.938017e+003,2.653015e+000
1.938981e+003,2.056763e+000
1.939945e+003,9.436646e-001
1.940909e+003,-5.142517e-001
1.941874e+003,-2.191467e+000
1.942838e+003,-3.408905e+000
1.943802e+003,-3.349243e+000
1.944766e+003,-2.178375e+000
1.945730e+003,-4.566345e-001
1.946695e+003,1.505219e+000
1.947659e+003,2.320953e+000
1.948623e+003,1.858032e+000
1.949587e+003,1.054962e+000
1.950552e+003,6.408691e-004
1.951516e+003,-9.080505e-001
1.952480e+003,-1.759949e+000
1.953444e+003,-1.957581e+000
1.954408e+003,-5.729675e-001
1.955373e+003,9.148865e-001
1.956337e+003,2.332153e-001
1.957301e+003,-1.633209e+000
1.958265e+003,-1.707031e+000
1.959230e+003,4.507751e-001
1.960194e+003,1.408081e+000
1.961158e+003,-4.567261e-001
1.962122e+003,-2.541534e+000
1.963087e+003,-4.949951e+000
1.964051e+003,-6.355042e+000
1.965015e+003,-4.834869e+000
1.965979e+003,-2.561523e+000
1.966944e+003,-2.335236e+000
1.967908e+003,-3.200470e+000
1.968872e+003,-2.567719e+000
1.969836e+003,-3.612976e-001
1.970801e+003,1.453339e+000
1.971765e+003,2.050079e+000
1.972729e+003,2.006805e+000
1.973693e+003,1.619202e+000
1.974657e+003,1.366119e+000
1.975622e+003,2.109497e+000
1.976586e+003,3.349365e+000
1.977550e+003,4.020721e+000
1.978514e+003,4.221588e+000
1.979479e+003,4.300781e+000
1.980443e+003,4.240936e+000
1.981407e+003,3.529388e+000
1.982371e+003,2.017029e+000
1.983335e+003,5.958862e-001
1.984300e+003,-3.018494e-001
1.985264e+003,-2.977600e-001
1.986228e+003,1.604675e+000
1.987192e+003,4.788025e+000
1.988157e+003,6.018311e+000
1.989121e+003,5.027466e+000
1.990085e+003,3.879333e+000
1.991049e+003,2.572296e+000
1.992014e+003,1.370422e+000
1.992978e+003,-1.259766e-001
1.993942e+003,-1.164459e+000
1.994906e+003,-1.552765e+000
1.995871e+003,-1.322632e+000
1.996835e+003,-4.550171e-002
1.997799e+003,1.714417e+000
1.998763e+003,3.109863e+000
1.999728e+003,3.998230e+000
