5.003444e+002,2.989111e+001
5.013087e+002,3.000078e+001
5.022729e+002,3.314935e+001
5.032371e+002,3.779202e+001
5.042014e+002,3.816586e+001
5.051656e+002,3.493248e+001
5.061298e+002,3.076025e+001
5.070941e+002,2.791208e+001
5.080583e+002,2.645093e+001
5.090225e+002,2.579744e+001
5.099868e+002,2.586447e+001
5.109510e+002,2.648584e+001
5.119152e+002,2.794116e+001
5.128795e+002,3.033275e+001
5.138437e+002,3.204062e+001
5.148079e+002,3.238574e+001
5.157722e+002,3.215964e+001
5.167364e+002,3.159938e+001
5.177006e+002,3.068716e+001
5.186649e+002,2.912469e+001
5.196291e+002,2.577017e+001
5.205933e+002,2.242607e+001
5.215576e+002,2.112050e+001
5.225218e+002,2.184398e+001
5.234860e+002,2.360782e+001
5.244503e+002,2.484364e+001
5.254145e+002,2.562289e+001
5.263787e+002,2.561996e+001
5.273430e+002,2.426091e+001
5.283072e+002,2.250984e+001
5.292714e+002,2.169948e+001
5.302357e+002,2.221225e+001
5.311999e+002,2.243286e+001
5.321641e+002,2.273355e+001
5.331284e+002,2.267926e+001
5.340926e+002,2.158331e+001
5.350568e+002,1.903128e+001
5.360211e+002,1.647281e+001
5.369853e+002,1.518959e+001
5.379495e+002,1.481960e+001
5.389138e+002,1.541730e+001
5.398780e+002,1.681744e+001
5.408422e+002,1.848547e+001
5.418065e+002,1.886143e+001
5.427707e+002,1.814249e+001
5.437349e+002,1.771544e+001
5.446992e+002,1.803926e+001
5.456634e+002,1.878131e+001
5.466276e+002,1.880917e+001
5.475919e+002,1.723051e+001
5.485561e+002,1.610353e+001
5.495203e+002,1.581944e+001
5.504846e+002,1.580936e+001
5.514488e+002,1.526950e+001
5.524130e+002,1.379852e+001
5.533773e+002,1.227072e+001
5.543415e+002,1.099226e+001
5.553057e+002,9.979156e+000
5.562700e+002,9.276047e+000
5.572342e+002,8.886673e+000
5.581984e+002,8.641571e+000
5.591627e+002,8.069992e+000
5.601269e+002,7.453751e+000
5.610911e+002,7.352982e+000
5.620554e+002,8.047592e+000
5.630196e+002,9.367050e+000
5.639838e+002,1.026416e+001
5.649481e+002,1.066867e+001
5.659123e+002,1.078561e+001
5.668765e+002,1.051788e+001
5.678408e+002,1.015852e+001
5.688050e+002,1.043088e+001
5.697692e+002,1.244984e+001
5.707335e+002,1.324928e+001
5.716977e+002,1.087668e+001
5.726619e+002,7.295715e+000
5.736262e+002,5.289093e+000
5.745904e+002,6.996109e+000
5.755546e+002,1.002312e+001
5.765189e+002,1.029543e+001
5.774831e+002,8.782776e+000
5.784473e+002,7.309555e+000
5.794116e+002,7.172043e+000
5.803758e+002,8.282455e+000
5.813400e+002,8.293350e+000
5.823043e+002,6.670197e+000
5.832685e+002,5.167542e+000
5.842327e+002,4.577652e+000
5.851970e+002,4.853683e+000
5.861612e+002,5.111847e+000
5.871254e+002,5.233887e+000
5.880897e+002,5.112000e+000
5.890539e+002,4.203537e+000
5.900181e+002,3.057083e+000
5.909824e+002,2.699722e+000
5.919466e+002,4.136887e+000
5.929108e+002,5.897186e+000
5.938751e+002,6.504623e+000
5.948393e+002,6.285461e+000
5.958035e+002,5.625549e+000
5.967678e+002,4.841507e+000
5.977320e+002,4.057159e+000
5.986962e+002,3.875107e+000
5.996605e+002,4.102600e+000
6.006247e+002,4.414200e+000
6.015889e+002,5.007233e+000
6.025532e+002,5.808212e+000
6.035174e+002,5.538681e+000
6.044816e+002,2.210999e+000
6.054459e+002,3.341675e-003
6.064101e+002,2.152557e-001
6.073743e+002,1.832886e+000
6.083386e+002,2.958298e+000
6.093028e+002,2.464386e+000
6.102670e+002,1.663895e+000
6.112313e+002,9.931030e-001
6.121955e+002,8.539581e-001
6.131597e+002,2.223999e+000
6.141240e+002,5.691071e+000
6.150882e+002,1.016908e+001
6.160524e+002,1.051201e+001
6.170167e+002,7.543671e+000
6.179809e+002,4.533981e+000
6.189451e+002,2.707870e+000
6.199094e+002,1.943054e+000
6.208736e+002,1.796494e+000
6.218378e+002,3.335526e+000
6.228021e+002,4.588806e+000
6.237663e+002,5.601822e+000
6.247305e+002,6.220459e+000
6.256948e+002,6.039703e+000
6.266590e+002,4.383484e+000
6.276232e+002,2.734451e+000
6.285875e+002,2.402573e+000
6.295517e+002,2.561783e+000
6.305159e+002,2.038437e+000
6.314802e+002,2.380371e-001
6.324444e+002,-1.945206e+000
6.334086e+002,-1.273041e+000
6.343729e+002,1.414383e+000
6.353371e+002,3.869141e+000
6.363013e+002,5.324036e+000
6.372656e+002,5.853470e+000
6.382298e+002,5.827499e+000
6.391940e+002,4.756393e+000
6.401583e+002,3.576645e+000
6.411225e+002,2.467514e+000
6.420867e+002,1.456497e+000
6.430510e+002,3.761902e-001
6.440152e+002,-1.071381e+000
6.449794e+002,-2.169144e+000
6.459437e+002,-2.173264e+000
6.469079e+002,-1.998428e+000
6.478721e+002,-2.436676e+000
6.488364e+002,-3.666946e+000
6.498006e+002,-5.032135e+000
6.507648e+002,-5.467560e+000
6.517291e+002,-5.193802e+000
6.526933e+002,-4.483154e+000
6.536575e+002,-3.361298e+000
6.546218e+002,-2.093124e+000
6.555860e+002,-1.153839e+000
6.565502e+002,-5.645599e-001
6.575145e+002,-4.489441e-001
6.584787e+002,-1.023743e+000
6.594429e+002,-1.806091e+000
6.604072e+002,-2.540359e+000
6.613714e+002,-3.227493e+000
6.623356e+002,-3.478622e+000
6.632999e+002,-2.580643e+000
6.642641e+002,-1.827408e+000
6.652283e+002,-1.937561e+000
6.661926e+002,-2.803177e+000
6.671568e+002,-3.760483e+000
6.681210e+002,-4.134842e+000
6.690853e+002,-4.059509e+000
6.700495e+002,-3.867447e+000
6.710137e+002,-3.558731e+000
6.719780e+002,-3.062683e+000
6.729422e+002,-2.274811e+000
6.739064e+002,-1.122589e+000
6.748707e+002,-4.750366e-001
6.758349e+002,-3.760223e-001
6.767991e+002,-6.058960e-001
6.777634e+002,-1.182556e+000
6.787276e+002,-1.930893e+000
6.796918e+002,-2.216537e+000
6.806561e+002,-9.396973e-001
6.816203e+002,-4.458160e-001
6.825845e+002,-2.767960e+000
6.835488e+002,-6.255875e+000
6.845130e+002,-7.990143e+000
6.854772e+002,-5.596390e+000
6.864415e+002,-1.139175e+000
6.874057e+002,3.318939e-001
6.883699e+002,-4.005737e-001
6.893342e+002,-1.099930e+000
6.902984e+002,-4.572449e-001
6.912626e+002,1.263092e+000
6.922269e+002,1.944595e+000
6.931911e+002,8.385925e-001
6.941553e+002,6.629944e-002
6.951196e+002,-2.294769e-001
6.960838e+002,-3.346100e-001
6.970480e+002,-7.113190e-001
6.980123e+002,-1.734970e+000
6.989765e+002,-2.048553e+000
6.999407e+002,-3.531036e-001
7.009050e+002,1.542908e+000
7.018692e+002,2.047256e+000
7.028334e+002,6.979523e-001
7.037977e+002,-1.439713e+000
7.047619e+002,-2.756241e+000
7.057261e+002,-3.408142e+000
7.066904e+002,-4.044464e+000
7.076546e+002,-4.762955e+000
7.086188e+002,-5.028351e+000
7.095831e+002,-3.881409e+000
7.105473e+002,-5.555573e-001
7.115115e+002,1.481049e+000
7.124758e+002,1.984512e+000
7.134400e+002,1.688141e+000
7.144042e+002,7.704468e-001
7.153685e+002,-6.502228e-001
7.163327e+002,-1.731430e+000
7.172969e+002,-2.042755e+000
7.182612e+002,-1.884338e+000
7.192254e+002,-8.871155e-001
7.201896e+002,4.019012e-001
7.211539e+002,9.831543e-001
7.221181e+002,-4.466248e-002
7.230823e+002,-1.994797e+000
7.240466e+002,-3.197174e+000
7.250108e+002,-3.614807e+000
7.259750e+002,-3.064529e+000
7.269393e+002,-1.348114e+000
7.279035e+002,1.127258e+000
7.288677e+002,2.077866e+000
7.298320e+002,1.461029e-001
7.307962e+002,-1.153641e+000
7.317604e+002,-1.706650e+000
7.327247e+002,-1.431549e+000
7.336889e+002,1.090851e-001
7.346531e+002,3.553375e+000
7.356174e+002,5.545639e+000
7.365816e+002,3.201584e+000
7.375458e+002,1.327972e-001
7.385101e+002,-8.782196e-001
7.394743e+002,8.087769e-001
7.404385e+002,3.718796e+000
7.414028e+002,5.827011e+000
7.423670e+002,6.853348e+000
7.433312e+002,7.338654e+000
7.442955e+002,7.564468e+000
7.452597e+002,7.008820e+000
7.462239e+002,4.423477e+000
7.471882e+002,-1.471573e+000
7.481524e+002,-3.812729e+000
7.491166e+002,-5.424500e-001
7.500809e+002,2.850067e+000
7.510451e+002,4.642609e+000
7.520093e+002,4.881317e+000
7.529736e+002,4.344849e+000
7.539378e+002,3.018417e+000
7.549020e+002,1.883575e+000
7.558663e+002,1.571091e+000
7.568306e+002,1.755249e+000
7.577948e+002,2.046555e+000
7.587590e+002,2.141846e+000
7.597233e+002,1.893524e+000
7.606875e+002,8.819122e-001
7.616517e+002,-6.747589e-001
7.626160e+002,-1.623962e+000
7.635802e+002,-1.430405e+000
7.645444e+002,-6.558075e-001
7.655087e+002,-7.053070e-001
7.664729e+002,-2.841293e+000
7.674371e+002,-2.927277e+000
7.684014e+002,1.036789e+000
7.693656e+002,5.110336e+000
7.703298e+002,6.709412e+000
7.712941e+002,5.626801e+000
7.722583e+002,3.882111e+000
7.732225e+002,2.237762e+000
7.741868e+002,1.189041e+000
7.751510e+002,1.557785e+000
7.761152e+002,2.869415e+000
7.770795e+002,3.886536e+000
7.780437e+002,3.487015e+000
7.790079e+002,1.935287e+000
7.799722e+002,2.259415e+000
7.809364e+002,4.715317e+000
7.819006e+002,6.315643e+000
7.828649e+002,5.345779e+000
7.838291e+002,2.768997e+000
7.847933e+002,1.716446e+000
7.857576e+002,3.413803e+000
7.867218e+002,4.340073e+000
7.876860e+002,3.921860e+000
7.886503e+002,2.839828e+000
7.896145e+002,1.258209e+000
7.905787e+002,-6.341095e-001
7.915430e+002,-1.892227e+000
7.925072e+002,-9.692841e-001
7.934714e+002,6.594238e-001
7.944357e+002,1.630112e+000
7.953999e+002,1.906067e+000
7.963641e+002,1.886398e+000
7.973284e+002,1.948593e+000
7.982926e+002,2.083450e+000
7.992568e+002,2.646210e+000
8.002211e+002,4.148453e+000
8.011853e+002,4.615662e+000
8.021495e+002,2.701843e+000
8.031138e+002,-5.682373e-001
8.040780e+002,-2.047379e+000
8.050422e+002,-5.066071e-001
8.060065e+002,1.550186e+000
8.069707e+002,4.027008e+000
8.079349e+002,5.966202e+000
8.088992e+002,6.289490e+000
8.098634e+002,4.791794e+000
8.108276e+002,2.613724e+000
8.117919e+002,7.460327e-001
8.127561e+002,-6.382751e-001
8.137203e+002,-3.296661e-001
8.146846e+002,1.888229e+000
8.156488e+002,4.434830e+000
8.166130e+002,5.271545e+000
8.175773e+002,4.093216e+000
8.185415e+002,2.740189e+000
8.195057e+002,-1.084595e-001
8.204700e+002,-1.788864e+000
8.214342e+002,-5.873566e-001
8.223984e+002,2.476929e+000
8.233627e+002,4.695679e+000
8.243269e+002,5.061081e+000
8.252911e+002,4.681580e+000
8.262554e+002,3.647980e+000
8.272196e+002,2.707413e+000
8.281838e+002,2.882050e+000
8.291481e+002,4.369675e+000
8.301123e+002,6.171402e+000
8.310765e+002,6.401688e+000
8.320408e+002,5.184769e+000
8.330050e+002,4.905548e+000
8.339692e+002,5.945084e+000
8.349335e+002,7.224396e+000
8.358977e+002,7.650543e+000
8.368619e+002,7.167343e+000
8.378262e+002,6.828766e+000
8.387904e+002,6.480148e+000
8.397546e+002,6.281769e+000
8.407189e+002,6.542038e+000
8.416831e+002,6.941116e+000
8.426473e+002,6.847382e+000
8.436116e+002,5.875717e+000
8.445758e+002,4.905762e+000
8.455400e+002,4.785904e+000
8.465043e+002,4.956985e+000
8.474685e+002,5.064285e+000
8.484327e+002,5.065521e+000
8.493970e+002,4.969421e+000
8.503612e+002,4.579315e+000
8.513254e+002,3.683121e+000
8.522897e+002,3.999405e+000
8.532539e+002,6.227493e+000
8.542181e+002,8.423294e+000
8.551824e+002,9.430328e+000
8.561466e+002,9.541382e+000
8.571108e+002,1.022118e+001
8.580751e+002,1.245230e+001
8.590393e+002,1.361334e+001
8.600035e+002,1.218222e+001
8.609678e+002,9.893661e+000
8.619320e+002,8.559662e+000
8.628962e+002,8.919571e+000
8.638605e+002,1.038605e+001
8.648247e+002,1.298726e+001
8.657889e+002,1.570998e+001
8.667532e+002,1.592751e+001
8.677174e+002,1.330595e+001
8.686816e+002,1.023320e+001
8.696459e+002,9.542480e+000
8.706101e+002,1.169061e+001
8.715743e+002,1.339935e+001
8.725386e+002,1.481844e+001
8.735028e+002,1.571107e+001
8.744670e+002,1.551791e+001
8.754313e+002,1.467766e+001
8.763955e+002,1.401062e+001
8.773597e+002,1.372585e+001
8.783240e+002,1.413326e+001
8.792882e+002,1.595984e+001
8.802524e+002,1.804114e+001
8.812167e+002,1.929573e+001
8.821809e+002,1.959073e+001
8.831451e+002,1.967421e+001
8.841094e+002,2.059685e+001
8.850736e+002,2.233398e+001
8.860378e+002,2.249255e+001
8.870021e+002,2.044266e+001
8.879663e+002,1.890195e+001
8.889305e+002,1.986285e+001
8.898948e+002,2.266685e+001
8.908590e+002,2.408368e+001
8.918232e+002,2.327113e+001
8.927875e+002,2.222258e+001
8.937517e+002,2.068846e+001
8.947159e+002,1.960658e+001
8.956802e+002,1.998837e+001
8.966444e+002,2.177660e+001
8.976086e+002,2.356093e+001
8.985729e+002,2.394334e+001
8.995371e+002,2.368835e+001
9.005013e+002,2.390694e+001
9.014656e+002,2.465771e+001
9.024298e+002,2.582524e+001
9.033940e+002,2.731148e+001
9.043583e+002,2.889471e+001
9.053225e+002,2.964980e+001
9.062867e+002,2.873418e+001
9.072510e+002,2.780779e+001
9.082152e+002,2.712955e+001
9.091794e+002,2.660706e+001
9.101437e+002,2.581485e+001
9.111079e+002,2.465782e+001
9.120721e+002,2.449097e+001
9.130364e+002,2.778188e+001
9.140006e+002,3.061470e+001
9.149648e+002,3.025459e+001
9.159291e+002,2.779666e+001
9.168933e+002,2.568042e+001
9.178575e+002,2.555385e+001
9.188218e+002,2.671172e+001
9.197860e+002,2.701749e+001
9.207502e+002,2.640828e+001
9.217145e+002,2.568262e+001
9.226787e+002,2.500101e+001
9.236429e+002,2.455469e+001
9.246072e+002,2.459608e+001
9.255714e+002,2.517937e+001
9.265356e+002,2.542885e+001
9.274999e+002,2.496133e+001
9.284641e+002,2.428812e+001
9.294283e+002,2.351523e+001
9.303926e+002,2.277499e+001
9.313568e+002,2.224429e+001
9.323210e+002,2.202040e+001
9.332853e+002,2.181032e+001
9.342495e+002,2.108713e+001
9.352137e+002,2.003835e+001
9.361780e+002,1.897855e+001
9.371422e+002,1.807623e+001
9.381064e+002,1.740411e+001
9.390707e+002,1.690024e+001
9.400349e+002,1.635344e+001
9.409991e+002,1.651691e+001
9.419634e+002,1.797536e+001
9.429276e+002,1.922520e+001
9.438918e+002,2.024413e+001
9.448561e+002,2.074521e+001
9.458203e+002,1.989957e+001
9.467845e+002,1.710486e+001
9.477488e+002,1.506412e+001
9.487130e+002,1.649284e+001
9.496772e+002,1.895822e+001
9.506415e+002,2.101486e+001
9.516057e+002,2.227391e+001
9.525699e+002,2.262845e+001
9.535342e+002,2.193922e+001
9.544984e+002,2.033533e+001
9.554626e+002,1.944450e+001
9.564269e+002,1.958464e+001
9.573911e+002,1.966443e+001
9.583553e+002,1.889597e+001
9.593196e+002,1.804099e+001
9.602838e+002,1.877095e+001
9.612480e+002,2.181577e+001
9.622123e+002,2.336513e+001
9.631765e+002,2.115468e+001
9.641407e+002,1.851495e+001
9.651050e+002,1.633983e+001
9.660692e+002,1.497211e+001
9.670334e+002,1.498523e+001
9.679977e+002,1.686174e+001
9.689619e+002,1.935530e+001
9.699261e+002,1.907356e+001
9.708904e+002,1.684109e+001
9.718546e+002,1.504378e+001
9.728188e+002,1.407996e+001
9.737831e+002,1.392436e+001
9.747473e+002,1.472475e+001
9.757115e+002,1.671507e+001
9.766758e+002,1.865225e+001
9.776400e+002,2.096095e+001
9.786042e+002,2.290660e+001
9.795685e+002,2.435864e+001
9.805327e+002,2.513034e+001
9.814969e+002,2.504514e+001
9.824612e+002,2.412157e+001
9.834254e+002,2.275949e+001
9.843896e+002,2.085536e+001
9.853539e+002,1.875726e+001
9.863181e+002,1.675890e+001
9.872823e+002,1.488434e+001
9.882466e+002,1.330737e+001
9.892108e+002,1.231201e+001
9.901750e+002,1.200044e+001
9.911393e+002,1.190462e+001
9.921035e+002,1.128223e+001
9.930677e+002,1.147656e+001
9.940320e+002,1.320467e+001
9.949962e+002,1.550598e+001
9.959604e+002,1.730595e+001
9.969247e+002,1.860423e+001
9.978889e+002,2.083276e+001
9.988531e+002,2.581673e+001
9.998174e+002,3.000673e+001
1.000782e+003,3.106836e+001
1.001746e+003,3.029883e+001
1.002710e+003,2.953571e+001
1.003674e+003,2.960078e+001
1.004639e+003,2.999077e+001
1.005603e+003,2.986522e+001
1.006567e+003,2.910629e+001
1.007531e+003,2.781384e+001
1.008495e+003,2.572128e+001
1.009460e+003,2.369284e+001
1.010424e+003,2.187807e+001
1.011388e+003,2.053633e+001
1.012352e+003,2.100006e+001
1.013317e+003,2.515071e+001
1.014281e+003,2.731773e+001
1.015245e+003,2.458624e+001
1.016209e+003,2.062212e+001
1.017174e+003,1.781644e+001
1.018138e+003,1.655005e+001
1.019102e+003,1.602452e+001
1.020066e+003,1.569925e+001
1.021031e+003,1.549046e+001
1.021995e+003,1.504793e+001
1.022959e+003,1.425261e+001
1.023923e+003,1.268491e+001
1.024887e+003,9.910812e+000
1.025852e+003,6.762482e+000
1.026816e+003,4.575653e+000
1.027780e+003,3.555939e+000
1.028744e+003,3.019836e+000
1.029709e+003,2.943542e+000
1.030673e+003,3.253006e+000
1.031637e+003,4.463013e+000
1.032601e+003,5.756699e+000
1.033566e+003,6.048401e+000
1.034530e+003,5.005951e+000
1.035494e+003,3.315552e+000
1.036458e+003,9.343567e-001
1.037422e+003,-1.161133e+000
1.038387e+003,-8.094940e-001
1.039351e+003,1.711670e+000
1.040315e+003,3.814835e+000
1.041279e+003,3.460388e+000
1.042244e+003,1.418991e+000
1.043208e+003,1.378662e+000
1.044172e+003,5.458649e+000
1.045136e+003,7.623795e+000
1.046101e+003,6.644760e+000
1.047065e+003,5.080673e+000
1.048029e+003,4.807190e+000
1.048993e+003,5.405014e+000
1.049958e+003,4.579285e+000
1.050922e+003,4.662018e-001
1.051886e+003,-3.064423e+000
1.052850e+003,-1.253265e+000
1.053814e+003,2.980087e+000
1.054779e+003,6.303345e+000
1.055743e+003,7.803284e+000
1.056707e+003,7.960739e+000
1.057671e+003,7.312805e+000
1.058636e+003,5.827332e+000
1.059600e+003,4.348679e+000
1.060564e+003,2.212250e+000
1.061528e+003,1.325516e+000
1.062493e+003,2.547348e+000
1.063457e+003,4.526749e+000
1.064421e+003,6.266159e+000
1.065385e+003,7.642426e+000
1.066349e+003,7.658157e+000
1.067314e+003,4.372879e+000
1.068278e+003,1.292068e+000
1.069242e+003,1.307617e+000
1.070206e+003,3.094131e+000
1.071171e+003,4.471100e+000
1.072135e+003,4.450668e+000
1.073099e+003,3.654846e+000
1.074063e+003,3.208496e+000
1.075028e+003,3.191940e+000
1.075992e+003,3.224075e+000
1.076956e+003,3.257004e+000
1.077920e+003,3.211273e+000
1.078885e+003,3.218582e+000
1.079849e+003,3.239960e+000
1.080813e+003,2.997070e+000
1.081777e+003,2.343369e+000
1.082741e+003,2.146347e+000
1.083706e+003,3.489700e+000
1.084670e+003,4.604294e+000
1.085634e+003,4.467636e+000
1.086598e+003,3.332047e+000
1.087563e+003,1.657028e+000
1.088527e+003,-1.514587e-001
1.089491e+003,-1.526016e+000
1.090455e+003,-1.423370e+000
1.091420e+003,2.644958e-001
1.092384e+003,1.396225e+000
1.093348e+003,1.633865e+000
1.094312e+003,1.775604e+000
1.095276e+003,2.371826e+000
1.096241e+003,3.368118e+000
1.097205e+003,4.557022e+000
1.098169e+003,6.272690e+000
1.099133e+003,6.827744e+000
1.100098e+003,4.399261e+000
1.101062e+003,1.923935e+000
1.102026e+003,1.493622e+000
1.102990e+003,2.580383e+000
1.103955e+003,3.432938e+000
1.104919e+003,2.961853e+000
1.105883e+003,1.774719e+000
1.106847e+003,1.156128e+000
1.107812e+003,1.135422e+000
1.108776e+003,1.607635e+000
1.109740e+003,2.834717e+000
1.110704e+003,4.010056e+000
1.111668e+003,4.473862e+000
1.112633e+003,4.519104e+000
1.113597e+003,5.180527e+000
1.114561e+003,6.852478e+000
1.115525e+003,8.180740e+000
1.116490e+003,9.153961e+000
1.117454e+003,9.324982e+000
1.118418e+003,7.508224e+000
1.119382e+003,4.827881e+000
1.120347e+003,3.974380e+000
1.121311e+003,6.485672e+000
1.122275e+003,1.015970e+001
1.123239e+003,1.056508e+001
1.124203e+003,8.166504e+000
1.125168e+003,7.339523e+000
1.126132e+003,8.809891e+000
1.127096e+003,1.088405e+001
1.128060e+003,1.237502e+001
1.129025e+003,1.332518e+001
1.129989e+003,1.413927e+001
1.130953e+003,1.489005e+001
1.131917e+003,1.522876e+001
1.132882e+003,1.483952e+001
1.133846e+003,1.440717e+001
1.134810e+003,1.416592e+001
1.135774e+003,1.427544e+001
1.136739e+003,1.492702e+001
1.137703e+003,1.621098e+001
1.138667e+003,1.791725e+001
1.139631e+003,1.980011e+001
1.140595e+003,2.180106e+001
1.141560e+003,2.351062e+001
1.142524e+003,2.464543e+001
1.143488e+003,2.679268e+001
1.144452e+003,3.140359e+001
1.145417e+003,3.785805e+001
1.146381e+003,4.377522e+001
1.147345e+003,4.857893e+001
1.148309e+003,5.416809e+001
1.149274e+003,6.210651e+001
1.150238e+003,6.990266e+001
1.151202e+003,7.614137e+001
1.152166e+003,8.144052e+001
1.153130e+003,8.732880e+001
1.154095e+003,9.429967e+001
1.155059e+003,1.007459e+002
1.156023e+003,1.047859e+002
1.156987e+003,1.062177e+002
1.157952e+003,1.050762e+002
1.158916e+003,1.014815e+002
1.159880e+003,9.629141e+001
1.160844e+003,8.870609e+001
1.161809e+003,7.973836e+001
1.162773e+003,7.231813e+001
1.163737e+003,6.695657e+001
1.164701e+003,6.089774e+001
1.165666e+003,5.172072e+001
1.166630e+003,4.374979e+001
1.167594e+003,3.875801e+001
1.168558e+003,3.585561e+001
1.169522e+003,3.393279e+001
1.170487e+003,3.250198e+001
1.171451e+003,3.172147e+001
1.172415e+003,3.196332e+001
1.173379e+003,3.268318e+001
1.174344e+003,3.059508e+001
1.175308e+003,2.546544e+001
1.176272e+003,2.217924e+001
1.177236e+003,2.397610e+001
1.178201e+003,2.717798e+001
1.179165e+003,2.649577e+001
1.180129e+003,2.178529e+001
1.181093e+003,1.841451e+001
1.182057e+003,1.805876e+001
1.183022e+003,1.852083e+001
1.183986e+003,1.914291e+001
1.184950e+003,1.996643e+001
1.185914e+003,2.138580e+001
1.186879e+003,2.318748e+001
1.187843e+003,2.450070e+001
1.188807e+003,2.457605e+001
1.189771e+003,2.367052e+001
1.190736e+003,2.249312e+001
1.191700e+003,2.092511e+001
1.192664e+003,2.042848e+001
1.193628e+003,2.187207e+001
1.194593e+003,2.358923e+001
1.195557e+003,2.472688e+001
1.196521e+003,2.516054e+001
1.197485e+003,2.432799e+001
1.198449e+003,2.177171e+001
1.199414e+003,1.919882e+001
1.200378e+003,1.706680e+001
1.201342e+003,1.547318e+001
1.202306e+003,1.472626e+001
1.203271e+003,1.448398e+001
1.204235e+003,1.420998e+001
1.205199e+003,1.363019e+001
1.206163e+003,1.271956e+001
1.207128e+003,1.131859e+001
1.208092e+003,9.383316e+000
1.209056e+003,8.704498e+000
1.210020e+003,1.029175e+001
1.210984e+003,1.095024e+001
1.211949e+003,9.021957e+000
1.212913e+003,6.092560e+000
1.213877e+003,4.293732e+000
1.214841e+003,3.778000e+000
1.215806e+003,3.214005e+000
1.216770e+003,2.230972e+000
1.217734e+003,7.552948e-001
1.218698e+003,-1.990280e+000
1.219663e+003,-4.842880e+000
1.220627e+003,-6.127823e+000
1.221591e+003,-5.748688e+000
1.222555e+003,-5.011368e+000
1.223520e+003,-5.096024e+000
1.224484e+003,-5.806320e+000
1.225448e+003,-6.402527e+000
1.226412e+003,-6.580978e+000
1.227376e+003,-7.462646e+000
1.228341e+003,-1.029398e+001
1.229305e+003,-1.248795e+001
1.230269e+003,-1.222386e+001
1.231233e+003,-1.045204e+001
1.232198e+003,-9.045242e+000
1.233162e+003,-8.427551e+000
1.234126e+003,-8.111298e+000
1.235090e+003,-7.792694e+000
1.236055e+003,-7.758942e+000
1.237019e+003,-8.644699e+000
1.237983e+003,-1.003430e+001
1.238947e+003,-1.067223e+001
1.239911e+003,-9.993240e+000
1.240876e+003,-8.751129e+000
1.241840e+003,-8.078796e+000
1.242804e+003,-7.984695e+000
1.243768e+003,-8.161224e+000
1.244733e+003,-9.522842e+000
1.245697e+003,-9.861038e+000
1.246661e+003,-8.088928e+000
1.247625e+003,-6.265823e+000
1.248590e+003,-5.682663e+000
1.249554e+003,-6.302856e+000
1.250518e+003,-8.004944e+000
1.251482e+003,-1.096042e+001
1.252447e+003,-1.336588e+001
1.253411e+003,-1.248926e+001
1.254375e+003,-9.566040e+000
1.255339e+003,-7.032898e+000
1.256303e+003,-5.016403e+000
1.257268e+003,-4.004410e+000
1.258232e+003,-4.600479e+000
1.259196e+003,-6.167572e+000
1.260160e+003,-7.483002e+000
1.261125e+003,-8.594894e+000
1.262089e+003,-8.479568e+000
1.263053e+003,-5.674866e+000
1.264017e+003,-3.511200e+000
1.264982e+003,-2.575500e+000
1.265946e+003,-2.670380e+000
1.266910e+003,-4.377090e+000
1.267874e+003,-6.952515e+000
1.268839e+003,-8.151505e+000
1.269803e+003,-6.449692e+000
1.270767e+003,-3.443420e+000
1.271731e+003,-2.113464e+000
1.272695e+003,-2.448013e+000
1.273660e+003,-3.224335e+000
1.274624e+003,-4.858246e+000
1.275588e+003,-6.186935e+000
1.276552e+003,-6.337936e+000
1.277517e+003,-5.698288e+000
1.278481e+003,-4.952988e+000
1.279445e+003,-4.128204e+000
1.280409e+003,-3.811829e+000
1.281374e+003,-4.267197e+000
1.282338e+003,-5.199417e+000
1.283302e+003,-7.365753e+000
1.284266e+003,-9.354477e+000
1.285230e+003,-8.971405e+000
1.286195e+003,-6.491013e+000
1.287159e+003,-4.511154e+000
1.288123e+003,-5.132080e+000
1.289087e+003,-7.435318e+000
1.290052e+003,-8.859955e+000
1.291016e+003,-9.523956e+000
1.291980e+003,-8.898865e+000
1.292944e+003,-5.623276e+000
1.293909e+003,-3.113312e+000
1.294873e+003,-2.846741e+000
1.295837e+003,-3.837799e+000
1.296801e+003,-4.783447e+000
1.297766e+003,-5.508453e+000
1.298730e+003,-6.771362e+000
1.299694e+003,-9.533859e+000
1.300658e+003,-1.206880e+001
1.301622e+003,-1.218947e+001
1.302587e+003,-1.087994e+001
1.303551e+003,-9.503448e+000
1.304515e+003,-8.325226e+000
1.305479e+003,-7.248489e+000
1.306444e+003,-6.157837e+000
1.307408e+003,-5.324921e+000
1.308372e+003,-5.752151e+000
1.309336e+003,-8.240829e+000
1.310301e+003,-9.515442e+000
1.311265e+003,-8.295120e+000
1.312229e+003,-7.143448e+000
1.313193e+003,-7.020386e+000
1.314157e+003,-7.225296e+000
1.315122e+003,-6.736755e+000
1.316086e+003,-5.701370e+000
1.317050e+003,-5.347351e+000
1.318014e+003,-6.479126e+000
1.318979e+003,-8.301270e+000
1.319943e+003,-9.787415e+000
1.320907e+003,-1.072972e+001
1.321871e+003,-9.927185e+000
1.322836e+003,-6.840363e+000
1.323800e+003,-4.245285e+000
1.324764e+003,-4.064835e+000
1.325728e+003,-5.014908e+000
1.326693e+003,-4.603622e+000
1.327657e+003,-2.779144e+000
1.328621e+003,-2.612350e+000
1.329585e+003,-6.101471e+000
1.330549e+003,-8.752121e+000
1.331514e+003,-7.951553e+000
1.332478e+003,-6.040436e+000
1.333442e+003,-5.145401e+000
1.334406e+003,-5.214066e+000
1.335371e+003,-4.899612e+000
1.336335e+003,-3.418716e+000
1.337299e+003,-1.671616e+000
1.338263e+003,-1.495880e+000
1.339228e+003,-3.194046e+000
1.340192e+003,-3.543152e+000
1.341156e+003,-4.185181e-001
1.342120e+003,8.434448e-001
1.343084e+003,-2.238007e+000
1.344049e+003,-6.085205e+000
1.345013e+003,-7.559967e+000
1.345977e+003,-7.077271e+000
1.346941e+003,-6.967728e+000
1.347906e+003,-8.124313e+000
1.348870e+003,-9.032257e+000
1.349834e+003,-7.991913e+000
1.350798e+003,-6.094040e+000
1.351763e+003,-5.364349e+000
1.352727e+003,-5.630630e+000
1.353691e+003,-5.961624e+000
1.354655e+003,-6.005310e+000
1.355620e+003,-6.011948e+000
1.356584e+003,-6.452637e+000
1.357548e+003,-7.176178e+000
1.358512e+003,-6.911942e+000
1.359476e+003,-4.981857e+000
1.360441e+003,-4.096603e+000
1.361405e+003,-6.027618e+000
1.362369e+003,-7.849091e+000
1.363333e+003,-7.879150e+000
1.364298e+003,-7.008804e+000
1.365262e+003,-6.785706e+000
1.366226e+003,-7.435898e+000
1.367190e+003,-7.548904e+000
1.368155e+003,-5.810562e+000
1.369119e+003,-3.383301e+000
1.370083e+003,-4.129318e+000
1.371047e+003,-9.396286e+000
1.372011e+003,-1.173378e+001
1.372976e+003,-9.517120e+000
1.373940e+003,-6.902725e+000
1.374904e+003,-4.844772e+000
1.375868e+003,-3.490967e+000
1.376833e+003,-3.396088e+000
1.377797e+003,-4.391647e+000
1.378761e+003,-5.029037e+000
1.379725e+003,-4.537643e+000
1.380690e+003,-3.948273e+000
1.381654e+003,-4.775833e+000
1.382618e+003,-5.887802e+000
1.383582e+003,-5.405853e+000
1.384547e+003,-3.484756e+000
1.385511e+003,-2.039780e+000
1.386475e+003,-2.156433e+000
1.387439e+003,-2.934662e+000
1.388403e+003,-2.823181e+000
1.389368e+003,-1.838196e+000
1.390332e+003,-1.892883e+000
1.391296e+003,-3.945831e+000
1.392260e+003,-5.036026e+000
1.393225e+003,-3.526733e+000
1.394189e+003,-2.074066e+000
1.395153e+003,-2.747726e+000
1.396117e+003,-4.228592e+000
1.397082e+003,-3.925064e+000
1.398046e+003,-1.488098e+000
1.399010e+003,6.232300e-001
1.399974e+003,5.786133e-002
1.400938e+003,-2.342773e+000
1.401903e+003,-3.616074e+000
1.402867e+003,-3.256134e+000
1.403831e+003,-2.482468e+000
1.404795e+003,-4.441528e-001
1.405760e+003,6.063232e-001
1.406724e+003,-1.111481e+000
1.407688e+003,-3.864822e+000
1.408652e+003,-5.629578e+000
1.409617e+003,-6.141693e+000
1.410581e+003,-5.826431e+000
1.411545e+003,-4.747696e+000
1.412509e+003,-3.458023e+000
1.413474e+003,-2.604828e+000
1.414438e+003,-1.983261e+000
1.415402e+003,-7.701874e-001
1.416366e+003,9.134521e-001
1.417330e+003,1.714783e+000
1.418295e+003,9.966431e-001
1.419259e+003,-3.395996e-001
1.420223e+003,-1.342911e+000
1.421187e+003,-2.150894e+000
1.422152e+003,-3.391129e+000
1.423116e+003,-5.398636e+000
1.424080e+003,-6.387680e+000
1.425044e+003,-5.174911e+000
1.426009e+003,-3.760071e+000
1.426973e+003,-2.568390e+000
1.427937e+003,-1.874603e+000
1.428901e+003,-2.282135e+000
1.429865e+003,-3.442963e+000
1.430830e+003,-4.011047e+000
1.431794e+003,-3.164261e+000
1.432758e+003,-1.811783e+000
1.433722e+003,-1.680359e+000
1.434687e+003,-2.779907e+000
1.435651e+003,-2.953156e+000
1.436615e+003,-2.073227e+000
1.437579e+003,-1.152405e+000
1.438544e+003,4.579163e-002
1.439508e+003,1.023499e+000
1.440472e+003,1.192474e+000
1.441436e+003,1.122375e+000
1.442401e+003,2.133896e+000
1.443365e+003,4.333496e+000
1.444329e+003,5.761230e+000
1.445293e+003,4.822556e+000
1.446257e+003,2.838806e+000
1.447222e+003,2.245911e+000
1.448186e+003,2.781204e+000
1.449150e+003,3.289413e+000
1.450114e+003,3.813507e+000
1.451079e+003,3.612640e+000
1.452043e+003,1.386139e+000
1.453007e+003,-9.939728e-001
1.453971e+003,-3.724518e-001
1.454936e+003,2.700989e+000
1.455900e+003,3.911652e+000
1.456864e+003,1.774521e+000
1.457828e+003,3.038025e-002
1.458792e+003,1.694077e+000
1.459757e+003,3.714798e+000
1.460721e+003,3.222992e+000
1.461685e+003,1.272568e+000
1.462649e+003,2.490540e-001
1.463614e+003,7.893372e-001
1.464578e+003,1.732941e+000
1.465542e+003,1.993942e+000
1.466506e+003,1.886642e+000
1.467471e+003,2.704773e+000
1.468435e+003,5.050491e+000
1.469399e+003,5.882538e+000
1.470363e+003,3.140732e+000
1.471328e+003,1.323349e+000
1.472292e+003,1.814667e+000
1.473256e+003,2.944305e+000
1.474220e+003,3.958130e+000
1.475184e+003,4.726532e+000
1.476149e+003,5.089706e+000
1.477113e+003,5.023331e+000
1.478077e+003,4.945526e+000
1.479041e+003,5.352676e+000
1.480006e+003,6.128937e+000
1.480970e+003,6.675201e+000
1.481934e+003,6.888123e+000
1.482898e+003,6.775085e+000
1.483863e+003,5.910950e+000
1.484827e+003,5.308807e+000
1.485791e+003,5.282425e+000
1.486755e+003,5.762451e+000
1.487719e+003,6.823425e+000
1.488684e+003,8.191864e+000
1.489648e+003,9.356583e+000
1.490612e+003,1.020621e+001
1.491576e+003,1.094449e+001
1.492541e+003,1.162274e+001
1.493505e+003,1.236827e+001
1.494469e+003,1.389482e+001
1.495433e+003,1.582567e+001
1.496398e+003,1.600175e+001
1.497362e+003,1.348404e+001
1.498326e+003,1.198651e+001
1.499290e+003,1.369858e+001
1.500255e+003,1.728505e+001
1.501219e+003,2.157327e+001
1.502183e+003,2.618588e+001
1.503147e+003,2.925888e+001
1.504111e+003,2.998721e+001
1.505076e+003,3.120670e+001
1.506040e+003,3.461467e+001
1.507004e+003,3.930260e+001
1.507968e+003,4.496037e+001
1.508933e+003,5.090164e+001
1.509897e+003,5.531197e+001
1.510861e+003,5.816992e+001
1.511825e+003,6.208691e+001
1.512790e+003,6.875847e+001
1.513754e+003,7.743117e+001
1.514718e+003,8.764410e+001
1.515682e+003,9.925949e+001
1.516646e+003,1.078782e+002
1.517611e+003,1.120448e+002
1.518575e+003,1.162137e+002
1.519539e+003,1.225439e+002
1.520503e+003,1.286576e+002
1.521468e+003,1.340004e+002
1.522432e+003,1.378709e+002
1.523396e+003,1.393412e+002
1.524360e+003,1.384319e+002
1.525325e+003,1.359880e+002
1.526289e+003,1.326042e+002
1.527253e+003,1.283474e+002
1.528217e+003,1.232050e+002
1.529182e+003,1.172605e+002
1.530146e+003,1.111717e+002
1.531110e+003,1.053190e+002
1.532074e+003,9.834593e+001
1.533039e+003,8.972108e+001
1.534003e+003,8.011835e+001
1.534967e+003,6.925403e+001
1.535931e+003,5.842439e+001
1.536896e+003,4.866272e+001
1.537860e+003,4.031018e+001
1.538824e+003,3.341968e+001
1.539788e+003,2.794556e+001
1.540752e+003,2.372101e+001
1.541717e+003,2.065126e+001
1.542681e+003,1.864232e+001
1.543645e+003,1.664108e+001
1.544609e+003,1.444946e+001
1.545573e+003,1.316620e+001
1.546538e+003,1.333107e+001
1.547502e+003,1.335104e+001
1.548466e+003,1.274153e+001
1.549430e+003,1.191969e+001
1.550395e+003,1.091599e+001
1.551359e+003,9.998291e+000
1.552323e+003,1.009369e+001
1.553287e+003,1.144518e+001
1.554252e+003,1.262543e+001
1.555216e+003,1.232945e+001
1.556180e+003,1.111594e+001
1.557144e+003,1.029065e+001
1.558109e+003,9.912399e+000
1.559073e+003,9.170593e+000
1.560037e+003,7.337387e+000
1.561001e+003,6.311096e+000
1.561966e+003,7.649918e+000
1.562930e+003,9.468735e+000
1.563894e+003,9.931824e+000
1.564858e+003,9.371582e+000
1.565823e+003,8.775604e+000
1.566787e+003,8.351471e+000
1.567751e+003,8.088196e+000
1.568715e+003,8.042282e+000
1.569679e+003,8.120407e+000
1.570644e+003,8.219818e+000
1.571608e+003,8.221405e+000
1.572572e+003,7.976410e+000
1.573536e+003,7.545349e+000
1.574500e+003,7.121796e+000
1.575465e+003,6.483932e+000
1.576429e+003,6.235535e+000
1.577393e+003,7.432663e+000
1.578357e+003,9.051727e+000
1.579322e+003,8.763245e+000
1.580286e+003,6.650894e+000
1.581250e+003,5.600555e+000
1.582214e+003,6.808502e+000
1.583179e+003,7.961456e+000
1.584143e+003,6.792282e+000
1.585107e+003,5.063675e+000
1.586071e+003,5.751389e+000
1.587036e+003,8.053040e+000
1.588000e+003,8.889633e+000
1.588964e+003,7.438461e+000
1.589928e+003,5.976776e+000
1.590893e+003,6.142700e+000
1.591857e+003,7.048538e+000
1.592821e+003,7.398270e+000
1.593785e+003,7.304611e+000
1.594750e+003,7.195648e+000
1.595714e+003,6.968536e+000
1.596678e+003,7.499359e+000
1.597642e+003,9.912750e+000
1.598606e+003,1.206496e+001
1.599571e+003,1.166869e+001
1.600535e+003,1.042896e+001
1.601499e+003,1.077104e+001
1.602463e+003,1.248112e+001
1.603427e+003,1.345732e+001
1.604392e+003,1.277480e+001
1.605356e+003,1.182968e+001
1.606320e+003,1.229883e+001
1.607284e+003,1.352638e+001
1.608249e+003,1.348112e+001
1.609213e+003,1.211487e+001
1.610177e+003,1.096442e+001
1.611141e+003,1.030620e+001
1.612106e+003,9.822464e+000
1.613070e+003,9.264893e+000
1.614034e+003,8.908737e+000
1.614998e+003,9.166901e+000
1.615963e+003,9.693665e+000
1.616927e+003,9.668228e+000
1.617891e+003,9.097137e+000
1.618855e+003,9.188705e+000
1.619820e+003,1.077676e+001
1.620784e+003,1.242339e+001
1.621748e+003,1.172192e+001
1.622712e+003,9.397049e+000
1.623677e+003,9.565125e+000
1.624641e+003,1.293839e+001
1.625605e+003,1.469070e+001
1.626569e+003,1.207722e+001
1.627533e+003,1.007361e+001
1.628498e+003,1.236179e+001
1.629462e+003,1.537341e+001
1.630426e+003,1.579863e+001
1.631390e+003,1.453407e+001
1.632354e+003,1.424255e+001
1.633319e+003,1.543134e+001
1.634283e+003,1.597002e+001
1.635247e+003,1.406532e+001
1.636211e+003,1.122331e+001
1.637176e+003,1.042958e+001
1.638140e+003,1.155099e+001
1.639104e+003,1.160396e+001
1.640068e+003,1.001202e+001
1.641033e+003,9.072723e+000
1.641997e+003,9.620911e+000
1.642961e+003,1.066898e+001
1.643925e+003,1.234720e+001
1.644890e+003,1.373016e+001
1.645854e+003,1.348605e+001
1.646818e+003,1.219472e+001
1.647782e+003,1.166200e+001
1.648747e+003,1.236830e+001
1.649711e+003,1.285704e+001
1.650675e+003,1.186024e+001
1.651639e+003,1.022482e+001
1.652604e+003,9.496368e+000
1.653568e+003,9.602402e+000
1.654532e+003,1.026006e+001
1.655496e+003,1.167151e+001
1.656460e+003,1.290128e+001
1.657425e+003,1.418771e+001
1.658389e+003,1.459760e+001
1.659353e+003,1.283145e+001
1.660317e+003,1.059949e+001
1.661281e+003,9.934067e+000
1.662246e+003,1.040810e+001
1.663210e+003,1.024863e+001
1.664174e+003,8.930359e+000
1.665138e+003,7.614685e+000
1.666103e+003,7.169037e+000
1.667067e+003,7.397308e+000
1.668031e+003,8.293198e+000
1.668995e+003,9.771271e+000
1.669960e+003,1.013918e+001
1.670924e+003,9.035538e+000
1.671888e+003,7.962769e+000
1.672852e+003,7.354568e+000
1.673817e+003,6.802261e+000
1.674781e+003,5.717834e+000
1.675745e+003,4.767822e+000
1.676709e+003,4.946381e+000
1.677674e+003,5.904129e+000
1.678638e+003,6.294434e+000
1.679602e+003,5.711304e+000
1.680566e+003,5.438858e+000
1.681531e+003,6.934280e+000
1.682495e+003,8.831696e+000
1.683459e+003,8.399551e+000
1.684423e+003,5.996246e+000
1.685387e+003,4.220840e+000
1.686352e+003,3.335236e+000
1.687316e+003,3.103226e+000
1.688280e+003,3.729858e+000
1.689244e+003,4.454102e+000
1.690208e+003,4.798294e+000
1.691173e+003,4.826141e+000
1.692137e+003,4.153076e+000
1.693101e+003,3.327225e+000
1.694065e+003,4.339523e+000
1.695030e+003,7.701523e+000
1.695994e+003,9.661346e+000
1.696958e+003,6.915665e+000
1.697922e+003,2.913223e+000
1.698887e+003,2.408890e+000
1.699851e+003,4.123245e+000
1.700815e+003,3.787567e+000
1.701779e+003,1.047470e+000
1.702744e+003,-1.102020e+000
1.703708e+003,-1.627380e+000
1.704672e+003,-1.332657e+000
1.705636e+003,-7.265320e-001
1.706601e+003,6.419373e-002
1.707565e+003,1.372375e+000
1.708529e+003,2.894180e+000
1.709493e+003,3.239899e+000
1.710458e+003,2.104889e+000
1.711422e+003,1.047638e+000
1.712386e+003,7.573853e-001
1.713350e+003,8.540039e-001
1.714314e+003,1.181061e+000
1.715279e+003,1.437241e+000
1.716243e+003,8.710785e-001
1.717207e+003,-2.165375e-001
1.718171e+003,-1.065216e-001
1.719135e+003,1.691467e+000
1.720100e+003,3.376495e+000
1.721064e+003,3.707306e+000
1.722028e+003,3.290253e+000
1.722992e+003,2.904587e+000
1.723957e+003,2.713745e+000
1.724921e+003,3.198685e+000
1.725885e+003,4.411789e+000
1.726849e+003,4.898544e+000
1.727814e+003,4.119354e+000
1.728778e+003,3.362396e+000
1.729742e+003,3.510300e+000
1.730706e+003,3.557465e+000
1.731671e+003,2.055649e+000
1.732635e+003,-3.359375e-001
1.733599e+003,-2.072678e+000
1.734563e+003,-2.723984e+000
1.735528e+003,-2.376755e+000
1.736492e+003,-1.131638e+000
1.737456e+003,6.582642e-002
1.738420e+003,5.653381e-002
1.739385e+003,-8.658295e-001
1.740349e+003,-1.349091e+000
1.741313e+003,-1.248703e+000
1.742277e+003,-1.078247e+000
1.743241e+003,-4.963531e-001
1.744206e+003,-2.234955e-001
1.745170e+003,-1.054214e+000
1.746134e+003,-1.501022e+000
1.747098e+003,-9.994507e-003
1.748063e+003,1.746063e+000
1.749027e+003,1.601761e+000
1.749991e+003,-1.872253e-002
1.750955e+003,-1.546875e+000
1.751919e+003,-2.313324e+000
1.752884e+003,-2.149124e+000
1.753848e+003,-8.841248e-001
1.754812e+003,6.433868e-001
1.755776e+003,7.800598e-001
1.756741e+003,-3.547363e-001
1.757705e+003,-1.673477e+000
1.758669e+003,-3.595917e+000
1.759633e+003,-4.680557e+000
1.760598e+003,-4.523148e+000
1.761562e+003,-3.988495e+000
1.762526e+003,-2.692352e+000
1.763490e+003,-1.602173e+000
1.764455e+003,-1.483719e+000
1.765419e+003,-1.950027e+000
1.766383e+003,-2.661163e+000
1.767347e+003,-3.382568e+000
1.768312e+003,-3.452209e+000
1.769276e+003,-2.572693e+000
1.770240e+003,-1.429321e+000
1.771204e+003,-4.912567e-001
1.772168e+003,2.505493e-001
1.773133e+003,4.951630e-001
1.774097e+003,3.097992e-001
1.775061e+003,4.933167e-001
1.776025e+003,1.116623e+000
1.776990e+003,1.385757e+000
1.777954e+003,9.766998e-001
1.778918e+003,6.062317e-001
1.779882e+003,6.326294e-001
1.780846e+003,9.462738e-001
1.781811e+003,1.652817e+000
1.782775e+003,2.605865e+000
1.783739e+003,3.284454e+000
1.784703e+003,3.659058e+000
1.785668e+003,3.660049e+000
1.786632e+003,3.379852e+000
1.787596e+003,2.321304e+000
1.788560e+003,-6.417999e-001
1.789525e+003,-3.815918e+000
1.790489e+003,-4.846161e+000
1.791453e+003,-4.129913e+000
1.792417e+003,-3.101929e+000
1.793382e+003,-2.136642e+000
1.794346e+003,-1.192047e+000
1.795310e+003,-2.157898e-001
1.796274e+003,1.807556e-001
1.797239e+003,-8.114471e-001
1.798203e+003,-2.474426e+000
1.799167e+003,-2.789490e+000
1.800131e+003,-1.653717e+000
1.801095e+003,-1.185043e+000
1.802060e+003,-1.590179e+000
1.803024e+003,-1.904694e+000
1.803988e+003,-2.169144e+000
1.804952e+003,-2.294846e+000
1.805917e+003,-2.431107e+000
1.806881e+003,-2.253876e+000
1.807845e+003,-1.011932e+000
1.808809e+003,7.005005e-001
1.809773e+003,1.566620e+000
1.810738e+003,1.405304e+000
1.811702e+003,1.187103e+000
1.812666e+003,1.512131e+000
1.813630e+003,2.074066e+000
1.814595e+003,2.558548e+000
1.815559e+003,2.785843e+000
1.816523e+003,1.949081e+000
1.817487e+003,-6.269836e-002
1.818452e+003,-1.657883e+000
1.819416e+003,-2.911957e+000
1.820380e+003,-2.994308e+000
1.821344e+003,-8.101196e-001
1.822309e+003,1.171432e+000
1.823273e+003,1.289078e+000
1.824237e+003,8.170471e-001
1.825201e+003,1.147064e+000
1.826166e+003,1.858521e+000
1.827130e+003,1.490402e+000
1.828094e+003,-1.889954e-001
1.829058e+003,-1.218460e+000
1.830022e+003,-2.949066e-001
1.830987e+003,9.010925e-001
1.831951e+003,9.557343e-001
1.832915e+003,4.594879e-001
1.833879e+003,2.758331e-001
1.834844e+003,2.819672e-001
1.835808e+003,-2.369690e-002
1.836772e+003,-6.957703e-001
1.837736e+003,-1.526138e+000
1.838700e+003,-2.469009e+000
1.839665e+003,-3.544083e+000
1.840629e+003,-4.845886e+000
1.841593e+003,-5.895752e+000
1.842557e+003,-5.667603e+000
1.843522e+003,-4.185959e+000
1.844486e+003,-2.922333e+000
1.845450e+003,-1.608490e+000
1.846414e+003,-8.392944e-001
1.847379e+003,-9.880981e-001
1.848343e+003,-1.470169e+000
1.849307e+003,-2.743790e+000
1.850271e+003,-3.536942e+000
1.851236e+003,-2.196640e+000
1.852200e+003,-2.036438e-001
1.853164e+003,-1.791534e-001
1.854128e+003,-1.713486e+000
1.855093e+003,-1.878174e+000
1.856057e+003,3.027496e-001
1.857021e+003,2.230316e+000
1.857985e+003,1.651917e+000
1.858949e+003,-2.847900e-001
1.859914e+003,-2.082840e+000
1.860878e+003,-3.484253e+000
1.861842e+003,-2.714050e+000
1.862806e+003,2.751770e-001
1.863771e+003,1.975403e+000
1.864735e+003,1.575851e+000
1.865699e+003,7.162781e-001
1.866663e+003,-1.667786e-001
1.867627e+003,-5.928497e-001
1.868592e+003,1.070862e-001
1.869556e+003,1.218216e+000
1.870520e+003,1.644974e+000
1.871484e+003,1.408020e+000
1.872449e+003,4.908600e-001
1.873413e+003,-1.335495e+000
1.874377e+003,-1.952744e+000
1.875341e+003,-2.549744e-002
1.876306e+003,1.859756e+000
1.877270e+003,2.001251e+000
1.878234e+003,1.686630e+000
1.879198e+003,2.275528e+000
1.880163e+003,3.448929e+000
1.881127e+003,4.724350e+000
1.882091e+003,5.757645e+000
1.883055e+003,5.864487e+000
1.884020e+003,4.799362e+000
1.884984e+003,3.015274e+000
1.885948e+003,8.784027e-001
1.886912e+003,-1.030182e+000
1.887876e+003,-1.441299e+000
1.888841e+003,-4.739532e-001
1.889805e+003,3.527374e-001
1.890769e+003,1.072571e+000
1.891733e+003,1.384140e+000
1.892698e+003,7.658997e-001
1.893662e+003,8.139343e-001
1.894626e+003,2.944519e+000
1.895590e+003,4.803848e+000
1.896554e+003,4.396179e+000
1.897519e+003,3.198395e+000
1.898483e+003,2.758759e+000
1.899447e+003,2.933060e+000
1.900411e+003,3.302322e+000
1.901376e+003,3.856827e+000
1.902340e+003,4.209366e+000
1.903304e+003,4.360626e+000
1.904268e+003,4.010986e+000
1.905233e+003,2.490143e+000
1.906197e+003,9.108887e-001
1.907161e+003,3.597412e-001
1.908125e+003,6.640320e-001
1.909090e+003,1.568756e+000
1.910054e+003,2.756348e+000
1.911018e+003,3.758728e+000
1.911982e+003,4.390350e+000
1.912947e+003,4.214264e+000
1.913911e+003,2.879700e+000
1.914875e+003,1.663559e+000
1.915839e+003,2.651276e+000
1.916803e+003,5.217728e+000
1.917768e+003,6.578201e+000
1.918732e+003,6.719116e+000
1.919696e+003,6.057022e+000
1.920660e+003,4.124329e+000
1.921625e+003,2.952408e+000
1.922589e+003,3.406799e+000
1.923553e+003,3.866928e+000
1.924517e+003,3.188065e+000
1.925481e+003,2.442795e+000
1.926446e+003,2.619720e+000
1.927410e+003,3.403854e+000
1.928374e+003,4.355499e+000
1.929338e+003,5.293640e+000
1.930303e+003,5.308945e+000
1.931267e+003,3.825989e+000
1.932231e+003,2.982162e+000
1.933195e+003,4.207184e+000
1.934160e+003,5.642807e+000
1.935124e+003,5.580414e+000
1.936088e+003,5.197388e+000
1.937052e+003,6.594070e+000
1.938017e+003,8.807495e+000
1.938981e+003,9.314270e+000
1.939945e+003,7.880203e+000
1.940909e+003,5.943771e+000
1.941874e+003,4.213593e+000
1.942838e+003,2.589966e+000
1.943802e+003,1.000153e+000
1.944766e+003,-8.604431e-002
1.945730e+003,2.257996e-001
1.946695e+003,1.686783e+000
1.947659e+003,2.854065e+000
1.948623e+003,3.746796e+000
1.949587e+003,3.797470e+000
1.950552e+003,2.781509e+000
1.951516e+003,1.698578e+000
1.952480e+003,4.234314e-001
1.953444e+003,1.576538e-001
1.954408e+003,2.406418e+000
1.955373e+003,5.357910e+000
1.956337e+003,6.393646e+000
1.957301e+003,6.178940e+000
1.958265e+003,7.063766e+000
1.959230e+003,9.418884e+000
1.960194e+003,1.015179e+001
1.961158e+003,7.295273e+000
1.962122e+003,4.841278e+000
1.963087e+003,3.407867e+000
1.964051e+003,3.175385e+000
1.965015e+003,5.467316e+000
1.965979e+003,8.099030e+000
1.966944e+003,8.698196e+000
1.967908e+003,7.878098e+000
1.968872e+003,7.289734e+000
1.969836e+003,7.118500e+000
1.970801e+003,6.244644e+000
1.971765e+003,4.288589e+000
1.972729e+003,2.833298e+000
1.973693e+003,3.292496e+000
1.974657e+003,4.698181e+000
1.975622e+003,5.692657e+000
1.976586e+003,6.399612e+000
1.977550e+003,7.523697e+000
1.978514e+003,8.866989e+000
1.979479e+003,8.789352e+000
1.980443e+003,7.154984e+000
1.981407e+003,6.360367e+000
1.982371e+003,7.382233e+000
1.983335e+003,8.273376e+000
1.984300e+003,7.397995e+000
1.985264e+003,6.204041e+000
1.986228e+003,7.179993e+000
1.987192e+003,9.622681e+000
1.988157e+003,9.761139e+000
1.989121e+003,6.957779e+000
1.990085e+003,5.340958e+000
1.991049e+003,5.474472e+000
1.992014e+003,5.757141e+000
1.992978e+003,5.901596e+000
1.993942e+003,6.215958e+000
1.994906e+003,7.468201e+000
1.995871e+003,8.260773e+000
1.996835e+003,6.560822e+000
1.997799e+003,4.406723e+000
1.998763e+003,5.520264e+000
1.999728e+003,9.011002e+000
