5.003444e+002,4.367215e+001
5.013087e+002,4.475259e+001
5.022729e+002,4.410371e+001
5.032371e+002,4.215822e+001
5.042014e+002,4.009447e+001
5.051656e+002,3.800096e+001
5.061298e+002,3.627510e+001
5.070941e+002,3.525177e+001
5.080583e+002,3.493925e+001
5.090225e+002,3.506506e+001
5.099868e+002,3.628081e+001
5.109510e+002,3.713103e+001
5.119152e+002,3.662381e+001
5.128795e+002,3.463104e+001
5.138437e+002,3.304323e+001
5.148079e+002,3.250935e+001
5.157722e+002,3.254552e+001
5.167364e+002,3.341402e+001
5.177006e+002,3.480052e+001
5.186649e+002,3.571892e+001
5.196291e+002,3.447916e+001
5.205933e+002,3.264305e+001
5.215576e+002,3.193735e+001
5.225218e+002,3.237302e+001
5.234860e+002,3.313295e+001
5.244503e+002,3.287123e+001
5.254145e+002,3.137787e+001
5.263787e+002,2.988210e+001
5.273430e+002,2.799580e+001
5.283072e+002,2.635225e+001
5.292714e+002,2.589447e+001
5.302357e+002,2.713359e+001
5.311999e+002,2.820033e+001
5.321641e+002,2.943303e+001
5.331284e+002,3.031944e+001
5.340926e+002,3.030406e+001
5.350568e+002,2.908308e+001
5.360211e+002,2.734402e+001
5.369853e+002,2.551482e+001
5.379495e+002,2.387971e+001
5.389138e+002,2.239162e+001
5.398780e+002,2.114613e+001
5.408422e+002,2.060246e+001
5.418065e+002,2.295349e+001
5.427707e+002,2.762630e+001
5.437349e+002,3.025214e+001
5.446992e+002,2.929277e+001
5.456634e+002,2.571355e+001
5.466276e+002,2.295064e+001
5.475919e+002,2.169588e+001
5.485561e+002,2.066083e+001
5.495203e+002,1.936313e+001
5.504846e+002,1.829961e+001
5.514488e+002,1.837633e+001
5.524130e+002,2.048834e+001
5.533773e+002,2.270322e+001
5.543415e+002,2.494469e+001
5.553057e+002,2.634511e+001
5.562700e+002,2.548653e+001
5.572342e+002,2.152092e+001
5.581984e+002,1.628723e+001
5.591627e+002,1.410780e+001
5.601269e+002,1.419205e+001
5.610911e+002,1.554655e+001
5.620554e+002,1.778035e+001
5.630196e+002,2.057318e+001
5.639838e+002,2.131282e+001
5.649481e+002,1.824545e+001
5.659123e+002,1.571436e+001
5.668765e+002,1.478709e+001
5.678408e+002,1.505473e+001
5.688050e+002,1.514919e+001
5.697692e+002,1.415205e+001
5.707335e+002,1.350150e+001
5.716977e+002,1.379300e+001
5.726619e+002,1.468829e+001
5.736262e+002,1.600221e+001
5.745904e+002,1.786017e+001
5.755546e+002,1.905705e+001
5.765189e+002,1.686293e+001
5.774831e+002,1.283617e+001
5.784473e+002,9.986023e+000
5.794116e+002,1.040085e+001
5.803758e+002,1.375381e+001
5.813400e+002,1.490778e+001
5.823043e+002,1.312471e+001
5.832685e+002,1.144345e+001
5.842327e+002,1.122523e+001
5.851970e+002,1.225533e+001
5.861612e+002,1.265945e+001
5.871254e+002,1.112422e+001
5.880897e+002,9.958450e+000
5.890539e+002,1.004851e+001
5.900181e+002,1.065668e+001
5.909824e+002,1.046614e+001
5.919466e+002,8.423538e+000
5.929108e+002,5.940201e+000
5.938751e+002,4.177292e+000
5.948393e+002,3.140152e+000
5.958035e+002,2.977524e+000
5.967678e+002,3.794052e+000
5.977320e+002,5.478897e+000
5.986962e+002,7.150970e+000
5.996605e+002,8.843887e+000
6.006247e+002,9.730972e+000
6.015889e+002,9.076355e+000
6.025532e+002,7.025955e+000
6.035174e+002,5.580688e+000
6.044816e+002,4.610672e+000
6.054459e+002,4.593567e+000
6.064101e+002,6.452164e+000
6.073743e+002,9.182175e+000
6.083386e+002,1.108585e+001
6.093028e+002,1.123790e+001
6.102670e+002,1.040541e+001
6.112313e+002,8.759537e+000
6.121955e+002,6.913528e+000
6.131597e+002,5.673340e+000
6.141240e+002,5.581131e+000
6.150882e+002,6.348175e+000
6.160524e+002,6.832489e+000
6.170167e+002,7.132904e+000
6.179809e+002,7.663040e+000
6.189451e+002,8.692032e+000
6.199094e+002,1.004321e+001
6.208736e+002,1.073230e+001
6.218378e+002,1.071869e+001
6.228021e+002,1.017320e+001
6.237663e+002,8.088593e+000
6.247305e+002,5.765945e+000
6.256948e+002,5.625061e+000
6.266590e+002,9.833832e+000
6.276232e+002,1.315326e+001
6.285875e+002,1.166641e+001
6.295517e+002,8.382111e+000
6.305159e+002,6.458267e+000
6.314802e+002,7.556366e+000
6.324444e+002,1.027670e+001
6.334086e+002,1.112059e+001
6.343729e+002,1.064912e+001
6.353371e+002,9.587799e+000
6.363013e+002,8.035049e+000
6.372656e+002,6.183365e+000
6.382298e+002,4.798950e+000
6.391940e+002,3.929840e+000
6.401583e+002,3.542709e+000
6.411225e+002,4.125519e+000
6.420867e+002,5.140244e+000
6.430510e+002,5.852600e+000
6.440152e+002,5.886017e+000
6.449794e+002,5.894058e+000
6.459437e+002,6.928619e+000
6.469079e+002,7.655533e+000
6.478721e+002,6.533875e+000
6.488364e+002,3.332672e+000
6.498006e+002,-1.665802e-001
6.507648e+002,-4.792633e-001
6.517291e+002,1.268799e+000
6.526933e+002,2.469635e+000
6.536575e+002,2.616776e+000
6.546218e+002,2.237473e+000
6.555860e+002,2.364914e+000
6.565502e+002,3.357452e+000
6.575145e+002,4.092499e+000
6.584787e+002,4.742294e+000
6.594429e+002,5.064850e+000
6.604072e+002,4.712891e+000
6.613714e+002,3.558868e+000
6.623356e+002,2.574646e+000
6.632999e+002,2.432571e+000
6.642641e+002,2.267822e+000
6.652283e+002,1.556625e+000
6.661926e+002,4.187469e-001
6.671568e+002,-5.431671e-001
6.681210e+002,-5.531921e-001
6.690853e+002,-2.133179e-002
6.700495e+002,-1.933136e-001
6.710137e+002,-1.008987e+000
6.719780e+002,-1.421448e+000
6.729422e+002,-2.009125e-001
6.739064e+002,3.129776e+000
6.748707e+002,4.914871e+000
6.758349e+002,4.774597e+000
6.767991e+002,4.014114e+000
6.777634e+002,2.847275e+000
6.787276e+002,1.493774e+000
6.796918e+002,8.473053e-001
6.806561e+002,1.816406e+000
6.816203e+002,2.773651e+000
6.825845e+002,2.977554e+000
6.835488e+002,2.760468e+000
6.845130e+002,2.791763e+000
6.854772e+002,3.622528e+000
6.864415e+002,4.853775e+000
6.874057e+002,5.709641e+000
6.883699e+002,6.040390e+000
6.893342e+002,5.276947e+000
6.902984e+002,2.973663e+000
6.912626e+002,-3.730621e-001
6.922269e+002,-1.543671e+000
6.931911e+002,2.236526e+000
6.941553e+002,4.695114e+000
6.951196e+002,4.280487e+000
6.960838e+002,2.477982e+000
6.970480e+002,1.893097e+000
6.980123e+002,3.831131e+000
6.989765e+002,5.105270e+000
6.999407e+002,3.987381e+000
7.009050e+002,2.103317e+000
7.018692e+002,4.442596e-001
7.028334e+002,-5.221863e-001
7.037977e+002,-6.898041e-001
7.047619e+002,8.585052e-001
7.057261e+002,3.215088e+000
7.066904e+002,4.170288e+000
7.076546e+002,3.361389e+000
7.086188e+002,1.842667e+000
7.095831e+002,1.246918e+000
7.105473e+002,1.740555e+000
7.115115e+002,2.668991e+000
7.124758e+002,5.205002e+000
7.134400e+002,6.915192e+000
7.144042e+002,5.797073e+000
7.153685e+002,1.934052e+000
7.163327e+002,-1.249008e+000
7.172969e+002,-1.922714e+000
7.182612e+002,-1.720169e+000
7.192254e+002,-6.616364e-001
7.201896e+002,6.882172e-001
7.211539e+002,1.454895e+000
7.221181e+002,8.458862e-001
7.230823e+002,-5.251007e-001
7.240466e+002,-1.166611e+000
7.250108e+002,-1.069489e+000
7.259750e+002,-1.044617e-001
7.269393e+002,1.888550e+000
7.279035e+002,4.586945e+000
7.288677e+002,6.137848e+000
7.298320e+002,6.382019e+000
7.307962e+002,5.935150e+000
7.317604e+002,3.591492e+000
7.327247e+002,1.081757e+000
7.336889e+002,1.209122e+000
7.346531e+002,5.529099e+000
7.356174e+002,8.926529e+000
7.365816e+002,8.870178e+000
7.375458e+002,7.127548e+000
7.385101e+002,4.046646e+000
7.394743e+002,3.101959e-001
7.404385e+002,-2.551529e+000
7.414028e+002,-1.725143e+000
7.423670e+002,1.754333e+000
7.433312e+002,3.404724e+000
7.442955e+002,2.958145e+000
7.452597e+002,2.068161e+000
7.462239e+002,2.748276e+000
7.471882e+002,5.699829e+000
7.481524e+002,6.866287e+000
7.491166e+002,4.730881e+000
7.500809e+002,2.606964e+000
7.510451e+002,1.683090e+000
7.520093e+002,1.827393e+000
7.529736e+002,2.224319e+000
7.539378e+002,2.755753e+000
7.549020e+002,3.337143e+000
7.558663e+002,4.007202e+000
7.568306e+002,4.631241e+000
7.577948e+002,4.990524e+000
7.587590e+002,4.927277e+000
7.597233e+002,4.476166e+000
7.606875e+002,3.807724e+000
7.616517e+002,3.035889e+000
7.626160e+002,2.639221e+000
7.635802e+002,2.932831e+000
7.645444e+002,3.520401e+000
7.655087e+002,3.500839e+000
7.664729e+002,2.426147e+000
7.674371e+002,1.639481e+000
7.684014e+002,9.515533e-001
7.693656e+002,7.190552e-001
7.703298e+002,1.416962e+000
7.712941e+002,2.995239e+000
7.722583e+002,4.566193e+000
7.732225e+002,5.635986e+000
7.741868e+002,6.233978e+000
7.751510e+002,6.275513e+000
7.761152e+002,5.883896e+000
7.770795e+002,5.239502e+000
7.780437e+002,4.481339e+000
7.790079e+002,3.637024e+000
7.799722e+002,3.199539e+000
7.809364e+002,3.141632e+000
7.819006e+002,3.232361e+000
7.828649e+002,3.584656e+000
7.838291e+002,4.128052e+000
7.847933e+002,4.433548e+000
7.857576e+002,4.091705e+000
7.867218e+002,3.897781e+000
7.876860e+002,4.594482e+000
7.886503e+002,5.242798e+000
7.896145e+002,4.590393e+000
7.905787e+002,2.482773e+000
7.915430e+002,9.091034e-001
7.925072e+002,2.939972e+000
7.934714e+002,5.968979e+000
7.944357e+002,7.185516e+000
7.953999e+002,6.569534e+000
7.963641e+002,5.442398e+000
7.973284e+002,5.240204e+000
7.982926e+002,6.032440e+000
7.992568e+002,6.567276e+000
8.002211e+002,6.700165e+000
8.011853e+002,6.493378e+000
8.021495e+002,5.916275e+000
8.031138e+002,5.263046e+000
8.040780e+002,5.220322e+000
8.050422e+002,6.396301e+000
8.060065e+002,7.050797e+000
8.069707e+002,5.801041e+000
8.079349e+002,4.200134e+000
8.088992e+002,3.974884e+000
8.098634e+002,5.685715e+000
8.108276e+002,8.154037e+000
8.117919e+002,1.024281e+001
8.127561e+002,1.129900e+001
8.137203e+002,9.676575e+000
8.146846e+002,5.384811e+000
8.156488e+002,1.021881e+000
8.166130e+002,-1.936646e-001
8.175773e+002,2.350983e+000
8.185415e+002,4.230469e+000
8.195057e+002,5.127731e+000
8.204700e+002,5.726288e+000
8.214342e+002,6.257690e+000
8.223984e+002,6.660477e+000
8.233627e+002,6.651413e+000
8.243269e+002,5.807205e+000
8.252911e+002,5.309235e+000
8.262554e+002,6.252975e+000
8.272196e+002,7.544586e+000
8.281838e+002,7.818146e+000
8.291481e+002,6.721573e+000
8.301123e+002,5.361771e+000
8.310765e+002,5.949738e+000
8.320408e+002,8.155685e+000
8.330050e+002,8.314499e+000
8.339692e+002,5.752197e+000
8.349335e+002,2.729431e+000
8.358977e+002,1.749298e+000
8.368619e+002,3.226181e+000
8.378262e+002,4.048126e+000
8.387904e+002,2.886826e+000
8.397546e+002,2.337234e+000
8.407189e+002,3.516937e+000
8.416831e+002,5.652115e+000
8.426473e+002,7.384811e+000
8.436116e+002,8.123383e+000
8.445758e+002,8.360168e+000
8.455400e+002,8.520477e+000
8.465043e+002,8.391464e+000
8.474685e+002,7.687256e+000
8.484327e+002,6.484390e+000
8.493970e+002,5.208344e+000
8.503612e+002,4.426285e+000
8.513254e+002,4.116989e+000
8.522897e+002,4.608948e+000
8.532539e+002,6.069336e+000
8.542181e+002,7.850189e+000
8.551824e+002,1.003784e+001
8.561466e+002,1.258971e+001
8.571108e+002,1.434555e+001
8.580751e+002,1.449007e+001
8.590393e+002,1.393039e+001
8.600035e+002,1.238577e+001
8.609678e+002,1.080777e+001
8.619320e+002,1.032434e+001
8.628962e+002,1.131728e+001
8.638605e+002,1.285724e+001
8.648247e+002,1.384734e+001
8.657889e+002,1.419759e+001
8.667532e+002,1.333354e+001
8.677174e+002,1.119119e+001
8.686816e+002,9.308258e+000
8.696459e+002,9.638687e+000
8.706101e+002,1.265887e+001
8.715743e+002,1.469588e+001
8.725386e+002,1.487312e+001
8.735028e+002,1.530684e+001
8.744670e+002,1.715305e+001
8.754313e+002,1.932625e+001
8.763955e+002,1.953984e+001
8.773597e+002,1.645351e+001
8.783240e+002,1.365678e+001
8.792882e+002,1.356917e+001
8.802524e+002,1.490382e+001
8.812167e+002,1.746280e+001
8.821809e+002,2.060637e+001
8.831451e+002,2.275725e+001
8.841094e+002,2.171593e+001
8.850736e+002,1.775685e+001
8.860378e+002,1.611649e+001
8.870021e+002,1.686412e+001
8.879663e+002,1.882092e+001
8.889305e+002,2.235081e+001
8.898948e+002,2.679317e+001
8.908590e+002,2.866437e+001
8.918232e+002,2.587048e+001
8.927875e+002,2.364503e+001
8.937517e+002,2.311961e+001
8.947159e+002,2.351608e+001
8.956802e+002,2.441106e+001
8.966444e+002,2.547958e+001
8.976086e+002,2.617731e+001
8.985729e+002,2.590477e+001
8.995371e+002,2.514543e+001
9.005013e+002,2.439932e+001
9.014656e+002,2.384222e+001
9.024298e+002,2.403194e+001
9.033940e+002,2.543903e+001
9.043583e+002,2.773489e+001
9.053225e+002,2.891824e+001
9.062867e+002,2.799919e+001
9.072510e+002,2.697806e+001
9.082152e+002,2.541556e+001
9.091794e+002,2.431367e+001
9.101437e+002,2.504175e+001
9.111079e+002,2.783154e+001
9.120721e+002,3.019830e+001
9.130364e+002,3.034070e+001
9.140006e+002,2.967227e+001
9.149648e+002,2.867320e+001
9.159291e+002,2.768430e+001
9.168933e+002,2.706020e+001
9.178575e+002,2.699773e+001
9.188218e+002,2.727768e+001
9.197860e+002,2.731075e+001
9.207502e+002,2.704030e+001
9.217145e+002,2.694293e+001
9.226787e+002,2.756602e+001
9.236429e+002,2.820906e+001
9.246072e+002,2.759496e+001
9.255714e+002,2.526534e+001
9.265356e+002,2.370212e+001
9.274999e+002,2.425986e+001
9.284641e+002,2.452463e+001
9.294283e+002,2.328030e+001
9.303926e+002,2.130569e+001
9.313568e+002,1.996352e+001
9.323210e+002,1.993434e+001
9.332853e+002,2.083351e+001
9.342495e+002,2.333130e+001
9.352137e+002,2.604498e+001
9.361780e+002,2.625517e+001
9.371422e+002,2.350575e+001
9.381064e+002,1.995984e+001
9.390707e+002,1.843130e+001
9.400349e+002,1.911041e+001
9.409991e+002,1.982118e+001
9.419634e+002,2.069884e+001
9.429276e+002,2.138496e+001
9.438918e+002,2.197972e+001
9.448561e+002,2.230247e+001
9.458203e+002,2.194783e+001
9.467845e+002,2.070070e+001
9.477488e+002,1.945494e+001
9.487130e+002,1.919705e+001
9.496772e+002,1.896019e+001
9.506415e+002,1.748459e+001
9.516057e+002,1.509889e+001
9.525699e+002,1.346948e+001
9.535342e+002,1.423817e+001
9.544984e+002,1.699834e+001
9.554626e+002,1.859637e+001
9.564269e+002,1.922726e+001
9.573911e+002,1.913051e+001
9.583553e+002,1.755841e+001
9.593196e+002,1.556915e+001
9.602838e+002,1.514389e+001
9.612480e+002,1.682245e+001
9.622123e+002,1.793655e+001
9.631765e+002,1.768080e+001
9.641407e+002,1.682469e+001
9.651050e+002,1.502405e+001
9.660692e+002,1.291571e+001
9.670334e+002,1.183217e+001
9.679977e+002,1.268753e+001
9.689619e+002,1.436334e+001
9.699261e+002,1.349008e+001
9.708904e+002,1.115889e+001
9.718546e+002,1.121230e+001
9.728188e+002,1.475029e+001
9.737831e+002,1.965703e+001
9.747473e+002,2.343425e+001
9.757115e+002,2.610556e+001
9.766758e+002,2.760403e+001
9.776400e+002,2.755797e+001
9.786042e+002,2.695689e+001
9.795685e+002,2.585506e+001
9.805327e+002,2.424971e+001
9.814969e+002,2.207129e+001
9.824612e+002,1.936070e+001
9.834254e+002,1.655659e+001
9.843896e+002,1.352757e+001
9.853539e+002,1.081940e+001
9.863181e+002,9.252594e+000
9.872823e+002,8.678558e+000
9.882466e+002,8.481430e+000
9.892108e+002,8.270233e+000
9.901750e+002,8.060287e+000
9.911393e+002,7.044769e+000
9.921035e+002,3.229080e+000
9.930677e+002,1.481613e+000
9.940320e+002,3.584824e+000
9.949962e+002,6.773529e+000
9.959604e+002,8.674210e+000
9.969247e+002,9.114914e+000
9.978889e+002,9.047760e+000
9.988531e+002,8.284225e+000
9.998174e+002,7.597336e+000
1.000782e+003,7.538040e+000
1.001746e+003,7.968948e+000
1.002710e+003,8.857330e+000
1.003674e+003,1.004350e+001
1.004639e+003,1.090031e+001
1.005603e+003,1.021024e+001
1.006567e+003,7.755920e+000
1.007531e+003,6.456650e+000
1.008495e+003,6.739838e+000
1.009460e+003,7.264496e+000
1.010424e+003,7.069626e+000
1.011388e+003,6.472198e+000
1.012352e+003,6.888718e+000
1.013317e+003,9.500000e+000
1.014281e+003,1.086633e+001
1.015245e+003,9.087234e+000
1.016209e+003,6.625717e+000
1.017174e+003,5.163818e+000
1.018138e+003,4.895767e+000
1.019102e+003,5.152985e+000
1.020066e+003,5.501572e+000
1.021031e+003,5.760788e+000
1.021995e+003,5.011917e+000
1.022959e+003,3.398972e+000
1.023923e+003,1.962433e+000
1.024887e+003,9.280090e-001
1.025852e+003,3.759003e-001
1.026816e+003,6.498108e-001
1.027780e+003,2.108826e+000
1.028744e+003,3.015137e+000
1.029709e+003,2.696472e+000
1.030673e+003,2.418900e+000
1.031637e+003,2.587875e+000
1.032601e+003,2.952866e+000
1.033566e+003,3.427841e+000
1.034530e+003,3.961273e+000
1.035494e+003,3.649384e+000
1.036458e+003,3.622437e-001
1.037422e+003,-3.771484e+000
1.038387e+003,-4.936157e+000
1.039351e+003,-3.237686e+000
1.040315e+003,-8.409119e-001
1.041279e+003,7.748718e-001
1.042244e+003,1.730698e+000
1.043208e+003,2.435730e+000
1.044172e+003,2.965103e+000
1.045136e+003,2.826706e+000
1.046101e+003,1.583069e+000
1.047065e+003,2.397003e-001
1.048029e+003,-7.549286e-001
1.048993e+003,-1.329330e+000
1.049958e+003,-1.339996e+000
1.050922e+003,-4.781494e-001
1.051886e+003,5.012817e-001
1.052850e+003,3.875275e-001
1.053814e+003,7.037354e-002
1.054779e+003,1.246765e+000
1.055743e+003,3.975479e+000
1.056707e+003,6.084167e+000
1.057671e+003,4.816422e+000
1.058636e+003,1.244049e-001
1.059600e+003,-2.105789e+000
1.060564e+003,4.850922e-001
1.061528e+003,2.183640e+000
1.062493e+003,1.230972e+000
1.063457e+003,-4.533386e-001
1.064421e+003,-3.847809e-001
1.065385e+003,1.697678e+000
1.066349e+003,3.094345e+000
1.067314e+003,1.968506e+000
1.068278e+003,2.663269e-001
1.069242e+003,-1.256714e+000
1.070206e+003,-2.126953e+000
1.071171e+003,-1.286667e+000
1.072135e+003,1.420746e+000
1.073099e+003,4.348236e+000
1.074063e+003,4.692123e+000
1.075028e+003,2.142273e+000
1.075992e+003,1.349060e+000
1.076956e+003,3.550308e+000
1.077920e+003,4.988098e+000
1.078885e+003,3.835983e+000
1.079849e+003,1.314804e+000
1.080813e+003,-5.802002e-001
1.081777e+003,-1.636169e+000
1.082741e+003,-1.713913e+000
1.083706e+003,3.946228e-001
1.084670e+003,2.379044e+000
1.085634e+003,3.054459e+000
1.086598e+003,2.575211e+000
1.087563e+003,1.189774e+000
1.088527e+003,-7.893829e-001
1.089491e+003,-2.440094e+000
1.090455e+003,-1.856094e+000
1.091420e+003,1.208694e+000
1.092384e+003,2.378784e+000
1.093348e+003,7.129974e-001
1.094312e+003,-1.194717e+000
1.095276e+003,-1.683578e+000
1.096241e+003,-1.163742e+000
1.097205e+003,-1.094604e+000
1.098169e+003,-1.956436e+000
1.099133e+003,-2.545532e+000
1.100098e+003,-2.177429e+000
1.101062e+003,-1.561523e+000
1.102026e+003,-1.173706e+000
1.102990e+003,-8.986664e-001
1.103955e+003,-1.367035e-001
1.104919e+003,1.430511e+000
1.105883e+003,2.872116e+000
1.106847e+003,1.934906e+000
1.107812e+003,-1.416901e+000
1.108776e+003,-3.193008e+000
1.109740e+003,-2.640976e+000
1.110704e+003,-1.731461e+000
1.111668e+003,-2.243332e+000
1.112633e+003,-3.554779e+000
1.113597e+003,-2.734329e+000
1.114561e+003,2.152496e+000
1.115525e+003,5.008545e+000
1.116490e+003,2.232224e+000
1.117454e+003,-1.263611e+000
1.118418e+003,-2.180984e+000
1.119382e+003,-9.365234e-001
1.120347e+003,2.239990e-001
1.121311e+003,-1.451874e-001
1.122275e+003,-1.412628e+000
1.123239e+003,-2.224503e+000
1.124203e+003,-2.444504e+000
1.125168e+003,-1.966187e+000
1.126132e+003,-4.229126e-001
1.127096e+003,9.665833e-001
1.128060e+003,1.229141e+000
1.129025e+003,4.904022e-001
1.129989e+003,-6.762543e-001
1.130953e+003,-2.867081e+000
1.131917e+003,-4.067322e+000
1.132882e+003,-3.083176e+000
1.133846e+003,-1.686661e+000
1.134810e+003,-8.603210e-001
1.135774e+003,-5.402374e-001
1.136739e+003,-1.441498e-001
1.137703e+003,6.387939e-001
1.138667e+003,1.287506e+000
1.139631e+003,6.132507e-001
1.140595e+003,-1.116135e+000
1.141560e+003,-1.390625e+000
1.142524e+003,3.270111e-001
1.143488e+003,2.216873e+000
1.144452e+003,2.712006e+000
1.145417e+003,2.351883e+000
1.146381e+003,3.229355e+000
1.147345e+003,5.819580e+000
1.148309e+003,8.445343e+000
1.149274e+003,1.129556e+001
1.150238e+003,1.354749e+001
1.151202e+003,1.412105e+001
1.152166e+003,1.399574e+001
1.153130e+003,1.517332e+001
1.154095e+003,1.839816e+001
1.155059e+003,2.178880e+001
1.156023e+003,2.270061e+001
1.156987e+003,2.137650e+001
1.157952e+003,2.028511e+001
1.158916e+003,1.965469e+001
1.159880e+003,1.877618e+001
1.160844e+003,1.715369e+001
1.161809e+003,1.482138e+001
1.162773e+003,1.187888e+001
1.163737e+003,8.070236e+000
1.164701e+003,4.878662e+000
1.165666e+003,2.842422e+000
1.166630e+003,1.458023e+000
1.167594e+003,7.863770e-001
1.168558e+003,5.483093e-001
1.169522e+003,5.521698e-001
1.170487e+003,6.620636e-001
1.171451e+003,5.837555e-001
1.172415e+003,-1.418762e-001
1.173379e+003,-1.230072e+000
1.174344e+003,-7.552948e-001
1.175308e+003,1.437180e+000
1.176272e+003,2.830963e+000
1.177236e+003,2.426514e+000
1.178201e+003,1.033203e+000
1.179165e+003,-7.147369e-001
1.180129e+003,-2.892761e+000
1.181093e+003,-4.129196e+000
1.182057e+003,-3.423569e+000
1.183022e+003,-2.697754e+000
1.183986e+003,-2.681473e+000
1.184950e+003,-2.965302e+000
1.185914e+003,-3.184265e+000
1.186879e+003,-3.243927e+000
1.187843e+003,-3.256638e+000
1.188807e+003,-3.342010e+000
1.189771e+003,-3.401794e+000
1.190736e+003,-2.858536e+000
1.191700e+003,-1.557785e+000
1.192664e+003,-1.598267e+000
1.193628e+003,-4.132431e+000
1.194593e+003,-6.676712e+000
1.195557e+003,-7.510162e+000
1.196521e+003,-6.955673e+000
1.197485e+003,-5.952560e+000
1.198449e+003,-4.352692e+000
1.199414e+003,-3.174622e+000
1.200378e+003,-3.093048e+000
1.201342e+003,-3.373291e+000
1.202306e+003,-3.658890e+000
1.203271e+003,-3.981857e+000
1.204235e+003,-4.562271e+000
1.205199e+003,-5.458237e+000
1.206163e+003,-6.348206e+000
1.207128e+003,-6.661179e+000
1.208092e+003,-6.335312e+000
1.209056e+003,-6.857010e+000
1.210020e+003,-8.695709e+000
1.210984e+003,-1.027290e+001
1.211949e+003,-1.103342e+001
1.212913e+003,-1.139589e+001
1.213877e+003,-1.188182e+001
1.214841e+003,-1.250166e+001
1.215806e+003,-1.285115e+001
1.216770e+003,-1.241638e+001
1.217734e+003,-1.230333e+001
1.218698e+003,-1.387764e+001
1.219663e+003,-1.586551e+001
1.220627e+003,-1.667839e+001
1.221591e+003,-1.606841e+001
1.222555e+003,-1.473009e+001
1.223520e+003,-1.326031e+001
1.224484e+003,-1.173956e+001
1.225448e+003,-1.066988e+001
1.226412e+003,-9.989090e+000
1.227376e+003,-1.010582e+001
1.228341e+003,-1.214891e+001
1.229305e+003,-1.375052e+001
1.230269e+003,-1.303181e+001
1.231233e+003,-1.113062e+001
1.232198e+003,-1.056784e+001
1.233162e+003,-1.202615e+001
1.234126e+003,-1.339604e+001
1.235090e+003,-1.286327e+001
1.236055e+003,-1.190317e+001
1.237019e+003,-1.246097e+001
1.237983e+003,-1.391748e+001
1.238947e+003,-1.421344e+001
1.239911e+003,-1.248071e+001
1.240876e+003,-1.045338e+001
1.241840e+003,-1.089362e+001
1.242804e+003,-1.398178e+001
1.243768e+003,-1.607903e+001
1.244733e+003,-1.684395e+001
1.245697e+003,-1.691490e+001
1.246661e+003,-1.629715e+001
1.247625e+003,-1.516937e+001
1.248590e+003,-1.290977e+001
1.249554e+003,-1.018292e+001
1.250518e+003,-9.034927e+000
1.251482e+003,-1.053214e+001
1.252447e+003,-1.271524e+001
1.253411e+003,-1.311006e+001
1.254375e+003,-1.246432e+001
1.255339e+003,-1.247978e+001
1.256303e+003,-1.317926e+001
1.257268e+003,-1.387187e+001
1.258232e+003,-1.432657e+001
1.259196e+003,-1.449286e+001
1.260160e+003,-1.411841e+001
1.261125e+003,-1.308969e+001
1.262089e+003,-1.182336e+001
1.263053e+003,-9.350616e+000
1.264017e+003,-8.127441e+000
1.264982e+003,-9.964737e+000
1.265946e+003,-1.232542e+001
1.266910e+003,-1.255992e+001
1.267874e+003,-1.085281e+001
1.268839e+003,-9.376312e+000
1.269803e+003,-9.567642e+000
1.270767e+003,-1.057376e+001
1.271731e+003,-1.066670e+001
1.272695e+003,-9.878525e+000
1.273660e+003,-1.002425e+001
1.274624e+003,-1.174919e+001
1.275588e+003,-1.309229e+001
1.276552e+003,-1.246281e+001
1.277517e+003,-1.086852e+001
1.278481e+003,-1.031863e+001
1.279445e+003,-1.100281e+001
1.280409e+003,-1.185872e+001
1.281374e+003,-1.294531e+001
1.282338e+003,-1.354918e+001
1.283302e+003,-1.330650e+001
1.284266e+003,-1.245969e+001
1.285230e+003,-1.093927e+001
1.286195e+003,-9.052078e+000
1.287159e+003,-7.582718e+000
1.288123e+003,-7.152679e+000
1.289087e+003,-7.598038e+000
1.290052e+003,-8.628983e+000
1.291016e+003,-1.081255e+001
1.291980e+003,-1.160899e+001
1.292944e+003,-9.131439e+000
1.293909e+003,-7.932739e+000
1.294873e+003,-1.110417e+001
1.295837e+003,-1.569420e+001
1.296801e+003,-1.743924e+001
1.297766e+003,-1.590195e+001
1.298730e+003,-1.402602e+001
1.299694e+003,-1.328311e+001
1.300658e+003,-1.297844e+001
1.301622e+003,-1.192941e+001
1.302587e+003,-1.083846e+001
1.303551e+003,-1.144160e+001
1.304515e+003,-1.376843e+001
1.305479e+003,-1.517270e+001
1.306444e+003,-1.331633e+001
1.307408e+003,-9.361526e+000
1.308372e+003,-7.028336e+000
1.309336e+003,-6.335953e+000
1.310301e+003,-7.326019e+000
1.311265e+003,-1.268965e+001
1.312229e+003,-1.627457e+001
1.313193e+003,-1.489561e+001
1.314157e+003,-1.178439e+001
1.315122e+003,-1.029109e+001
1.316086e+003,-1.083795e+001
1.317050e+003,-1.194649e+001
1.318014e+003,-1.266904e+001
1.318979e+003,-1.299788e+001
1.319943e+003,-1.284967e+001
1.320907e+003,-1.226598e+001
1.321871e+003,-1.194060e+001
1.322836e+003,-1.204411e+001
1.323800e+003,-1.221255e+001
1.324764e+003,-1.240395e+001
1.325728e+003,-1.243797e+001
1.326693e+003,-1.187796e+001
1.327657e+003,-1.073624e+001
1.328621e+003,-1.002718e+001
1.329585e+003,-1.010193e+001
1.330549e+003,-1.012108e+001
1.331514e+003,-9.673050e+000
1.332478e+003,-9.235809e+000
1.333442e+003,-9.390579e+000
1.334406e+003,-9.924606e+000
1.335371e+003,-9.879486e+000
1.336335e+003,-8.731216e+000
1.337299e+003,-7.566467e+000
1.338263e+003,-8.638092e+000
1.339228e+003,-1.241656e+001
1.340192e+003,-1.393930e+001
1.341156e+003,-1.142921e+001
1.342120e+003,-9.459946e+000
1.343084e+003,-8.712738e+000
1.344049e+003,-8.811691e+000
1.345013e+003,-9.945114e+000
1.345977e+003,-1.153133e+001
1.346941e+003,-1.208400e+001
1.347906e+003,-1.103391e+001
1.348870e+003,-9.614014e+000
1.349834e+003,-8.949249e+000
1.350798e+003,-8.714523e+000
1.351763e+003,-7.940460e+000
1.352727e+003,-6.803284e+000
1.353691e+003,-6.610229e+000
1.354655e+003,-8.087662e+000
1.355620e+003,-9.729141e+000
1.356584e+003,-9.387741e+000
1.357548e+003,-7.365845e+000
1.358512e+003,-6.726257e+000
1.359476e+003,-8.226212e+000
1.360441e+003,-9.626740e+000
1.361405e+003,-1.088062e+001
1.362369e+003,-1.128642e+001
1.363333e+003,-9.681686e+000
1.364298e+003,-7.384003e+000
1.365262e+003,-6.213455e+000
1.366226e+003,-6.563660e+000
1.367190e+003,-7.569763e+000
1.368155e+003,-8.481476e+000
1.369119e+003,-9.180084e+000
1.370083e+003,-9.219162e+000
1.371047e+003,-8.292374e+000
1.372011e+003,-7.869278e+000
1.372976e+003,-8.704468e+000
1.373940e+003,-9.177139e+000
1.374904e+003,-8.338684e+000
1.375868e+003,-6.984238e+000
1.376833e+003,-5.920990e+000
1.377797e+003,-5.343536e+000
1.378761e+003,-5.702057e+000
1.379725e+003,-7.487564e+000
1.380690e+003,-9.224594e+000
1.381654e+003,-8.943878e+000
1.382618e+003,-7.852417e+000
1.383582e+003,-7.808289e+000
1.384547e+003,-8.734100e+000
1.385511e+003,-9.187439e+000
1.386475e+003,-8.436569e+000
1.387439e+003,-7.028992e+000
1.388403e+003,-5.433228e+000
1.389368e+003,-3.662659e+000
1.390332e+003,-3.398682e+000
1.391296e+003,-5.600800e+000
1.392260e+003,-7.381165e+000
1.393225e+003,-7.817276e+000
1.394189e+003,-8.032196e+000
1.395153e+003,-8.990036e+000
1.396117e+003,-9.997879e+000
1.397082e+003,-9.592957e+000
1.398046e+003,-7.664459e+000
1.399010e+003,-5.872162e+000
1.399974e+003,-5.797180e+000
1.400938e+003,-6.951569e+000
1.401903e+003,-7.616974e+000
1.402867e+003,-7.582611e+000
1.403831e+003,-6.948196e+000
1.404795e+003,-5.254227e+000
1.405760e+003,-3.776581e+000
1.406724e+003,-3.011612e+000
1.407688e+003,-2.882553e+000
1.408652e+003,-3.307144e+000
1.409617e+003,-4.094009e+000
1.410581e+003,-4.941711e+000
1.411545e+003,-5.844498e+000
1.412509e+003,-6.181152e+000
1.413474e+003,-4.878662e+000
1.414438e+003,-3.028030e+000
1.415402e+003,-2.153320e+000
1.416366e+003,-2.212692e+000
1.417330e+003,-3.206345e+000
1.418295e+003,-5.438507e+000
1.419259e+003,-7.453400e+000
1.420223e+003,-7.072815e+000
1.421187e+003,-4.875427e+000
1.422152e+003,-4.557663e+000
1.423116e+003,-7.056946e+000
1.424080e+003,-8.317993e+000
1.425044e+003,-5.967651e+000
1.426009e+003,-3.652481e+000
1.426973e+003,-2.792542e+000
1.427937e+003,-2.857269e+000
1.428901e+003,-3.253372e+000
1.429865e+003,-3.756393e+000
1.430830e+003,-4.438599e+000
1.431794e+003,-5.362274e+000
1.432758e+003,-6.142197e+000
1.433722e+003,-5.892395e+000
1.434687e+003,-4.426041e+000
1.435651e+003,-3.019379e+000
1.436615e+003,-1.380432e+000
1.437579e+003,-7.161102e-001
1.438544e+003,-1.525787e+000
1.439508e+003,-2.879501e+000
1.440472e+003,-4.640198e+000
1.441436e+003,-6.230850e+000
1.442401e+003,-6.623459e+000
1.443365e+003,-5.696533e+000
1.444329e+003,-4.541367e+000
1.445293e+003,-3.900787e+000
1.446257e+003,-3.571091e+000
1.447222e+003,-3.232376e+000
1.448186e+003,-2.916809e+000
1.449150e+003,-2.765366e+000
1.450114e+003,-2.807724e+000
1.451079e+003,-3.038437e+000
1.452043e+003,-3.813446e+000
1.453007e+003,-4.433228e+000
1.453971e+003,-3.544632e+000
1.454936e+003,-1.478973e+000
1.455900e+003,-7.362976e-001
1.456864e+003,-2.205231e+000
1.457828e+003,-3.576950e+000
1.458792e+003,-3.212784e+000
1.459757e+003,-2.580627e+000
1.460721e+003,-3.098892e+000
1.461685e+003,-4.210556e+000
1.462649e+003,-4.652344e+000
1.463614e+003,-4.088943e+000
1.464578e+003,-3.140030e+000
1.465542e+003,-2.312607e+000
1.466506e+003,-1.674988e+000
1.467471e+003,-1.365585e+000
1.468435e+003,-1.345978e+000
1.469399e+003,-1.417984e+000
1.470363e+003,-1.533371e+000
1.471328e+003,-2.001984e+000
1.472292e+003,-3.747192e+000
1.473256e+003,-5.184509e+000
1.474220e+003,-4.464417e+000
1.475184e+003,-2.627853e+000
1.476149e+003,-2.232315e+000
1.477113e+003,-3.875473e+000
1.478077e+003,-5.180359e+000
1.479041e+003,-3.724014e+000
1.480006e+003,-6.482239e-001
1.480970e+003,-1.072693e-002
1.481934e+003,-2.853455e+000
1.482898e+003,-4.019897e+000
1.483863e+003,-2.119904e+000
1.484827e+003,-7.228394e-001
1.485791e+003,-8.042755e-001
1.486755e+003,-1.618210e+000
1.487719e+003,-3.067261e+000
1.488684e+003,-4.639435e+000
1.489648e+003,-5.014297e+000
1.490612e+003,-3.781708e+000
1.491576e+003,-2.356094e+000
1.492541e+003,-1.998871e+000
1.493505e+003,-2.092667e+000
1.494469e+003,-1.074371e+000
1.495433e+003,7.518311e-001
1.496398e+003,1.951080e+000
1.497362e+003,2.404663e+000
1.498326e+003,2.458649e+000
1.499290e+003,1.953232e+000
1.500255e+003,1.360443e+000
1.501219e+003,1.131195e+000
1.502183e+003,1.328476e+000
1.503147e+003,2.517563e+000
1.504111e+003,5.095993e+000
1.505076e+003,7.229630e+000
1.506040e+003,7.505280e+000
1.507004e+003,7.243118e+000
1.507968e+003,7.631760e+000
1.508933e+003,8.551239e+000
1.509897e+003,9.802490e+000
1.510861e+003,1.140872e+001
1.511825e+003,1.335550e+001
1.512790e+003,1.562457e+001
1.513754e+003,1.799657e+001
1.514718e+003,2.002203e+001
1.515682e+003,2.165770e+001
1.516646e+003,2.398625e+001
1.517611e+003,2.784824e+001
1.518575e+003,3.078342e+001
1.519539e+003,3.202518e+001
1.520503e+003,3.225417e+001
1.521468e+003,3.081436e+001
1.522432e+003,2.900923e+001
1.523396e+003,2.902234e+001
1.524360e+003,3.067218e+001
1.525325e+003,3.148367e+001
1.526289e+003,2.983405e+001
1.527253e+003,2.702821e+001
1.528217e+003,2.546837e+001
1.529182e+003,2.522945e+001
1.530146e+003,2.372371e+001
1.531110e+003,2.002789e+001
1.532074e+003,1.667639e+001
1.533039e+003,1.325069e+001
1.534003e+003,1.061685e+001
1.534967e+003,9.951950e+000
1.535931e+003,9.957977e+000
1.536896e+003,9.008240e+000
1.537860e+003,7.199661e+000
1.538824e+003,5.740311e+000
1.539788e+003,5.213470e+000
1.540752e+003,5.119965e+000
1.541717e+003,4.908463e+000
1.542681e+003,4.573578e+000
1.543645e+003,3.883820e+000
1.544609e+003,2.727402e+000
1.545573e+003,1.680847e+000
1.546538e+003,-1.494904e-001
1.547502e+003,-9.119568e-001
1.548466e+003,1.035400e+000
1.549430e+003,3.754929e+000
1.550395e+003,5.548309e+000
1.551359e+003,6.194977e+000
1.552323e+003,5.592621e+000
1.553287e+003,3.843353e+000
1.554252e+003,2.321045e+000
1.555216e+003,2.230362e+000
1.556180e+003,3.157166e+000
1.557144e+003,4.462662e+000
1.558109e+003,6.173172e+000
1.559073e+003,6.445526e+000
1.560037e+003,4.566589e+000
1.561001e+003,2.443497e+000
1.561966e+003,5.803375e-001
1.562930e+003,-9.703522e-001
1.563894e+003,-2.731216e+000
1.564858e+003,-4.109268e+000
1.565823e+003,-3.103714e+000
1.566787e+003,4.628296e-001
1.567751e+003,3.353806e+000
1.568715e+003,3.718353e+000
1.569679e+003,2.854996e+000
1.570644e+003,1.941437e+000
1.571608e+003,1.120895e+000
1.572572e+003,1.010132e+000
1.573536e+003,1.693451e+000
1.574500e+003,2.226395e+000
1.575465e+003,2.073532e+000
1.576429e+003,1.984848e+000
1.577393e+003,2.858292e+000
1.578357e+003,4.042175e+000
1.579322e+003,4.037491e+000
1.580286e+003,2.905472e+000
1.581250e+003,2.645935e+000
1.582214e+003,4.195328e+000
1.583179e+003,5.428207e+000
1.584143e+003,4.124634e+000
1.585107e+003,2.180984e+000
1.586071e+003,2.611938e+000
1.587036e+003,4.664932e+000
1.588000e+003,5.676758e+000
1.588964e+003,4.989838e+000
1.589928e+003,3.871826e+000
1.590893e+003,2.522995e+000
1.591857e+003,1.849564e+000
1.592821e+003,4.167969e+000
1.593785e+003,8.681656e+000
1.594750e+003,1.017274e+001
1.595714e+003,7.370361e+000
1.596678e+003,5.601151e+000
1.597642e+003,7.892715e+000
1.598606e+003,1.053979e+001
1.599571e+003,1.049939e+001
1.600535e+003,9.140198e+000
1.601499e+003,7.850113e+000
1.602463e+003,6.867661e+000
1.603427e+003,6.564270e+000
1.604392e+003,7.161972e+000
1.605356e+003,7.903503e+000
1.606320e+003,7.713821e+000
1.607284e+003,7.177948e+000
1.608249e+003,8.473618e+000
1.609213e+003,1.171005e+001
1.610177e+003,1.292441e+001
1.611141e+003,1.054242e+001
1.612106e+003,8.424591e+000
1.613070e+003,8.993240e+000
1.614034e+003,9.979813e+000
1.614998e+003,9.476318e+000
1.615963e+003,8.376999e+000
1.616927e+003,8.444138e+000
1.617891e+003,9.791809e+000
1.618855e+003,1.100844e+001
1.619820e+003,1.123817e+001
1.620784e+003,1.083635e+001
1.621748e+003,1.014362e+001
1.622712e+003,9.406509e+000
1.623677e+003,9.816208e+000
1.624641e+003,1.172238e+001
1.625605e+003,1.274268e+001
1.626569e+003,1.154333e+001
1.627533e+003,1.040627e+001
1.628498e+003,1.099539e+001
1.629462e+003,1.179523e+001
1.630426e+003,1.107332e+001
1.631390e+003,9.604965e+000
1.632354e+003,9.408951e+000
1.633319e+003,1.086259e+001
1.634283e+003,1.243402e+001
1.635247e+003,1.300908e+001
1.636211e+003,1.295515e+001
1.637176e+003,1.287561e+001
1.638140e+003,1.281390e+001
1.639104e+003,1.298782e+001
1.640068e+003,1.347261e+001
1.641033e+003,1.378819e+001
1.641997e+003,1.375748e+001
1.642961e+003,1.369145e+001
1.643925e+003,1.402075e+001
1.644890e+003,1.416776e+001
1.645854e+003,1.328494e+001
1.646818e+003,1.174590e+001
1.647782e+003,1.059132e+001
1.648747e+003,1.013834e+001
1.649711e+003,1.003326e+001
1.650675e+003,1.007520e+001
1.651639e+003,1.020164e+001
1.652604e+003,1.001106e+001
1.653568e+003,9.505295e+000
1.654532e+003,1.009261e+001
1.655496e+003,1.240558e+001
1.656460e+003,1.380881e+001
1.657425e+003,1.346863e+001
1.658389e+003,1.218370e+001
1.659353e+003,9.373062e+000
1.660317e+003,6.663803e+000
1.661281e+003,5.874649e+000
1.662246e+003,6.722641e+000
1.663210e+003,8.222626e+000
1.664174e+003,1.000528e+001
1.665138e+003,1.121524e+001
1.666103e+003,1.101527e+001
1.667067e+003,9.893234e+000
1.668031e+003,8.555328e+000
1.668995e+003,7.106781e+000
1.669960e+003,7.009064e+000
1.670924e+003,8.822647e+000
1.671888e+003,1.012206e+001
1.672852e+003,9.865829e+000
1.673817e+003,9.268509e+000
1.674781e+003,8.940353e+000
1.675745e+003,8.803574e+000
1.676709e+003,9.098969e+000
1.677674e+003,9.490173e+000
1.678638e+003,8.800659e+000
1.679602e+003,6.689331e+000
1.680566e+003,4.771667e+000
1.681531e+003,4.266586e+000
1.682495e+003,4.821121e+000
1.683459e+003,6.080307e+000
1.684423e+003,7.835251e+000
1.685387e+003,9.126266e+000
1.686352e+003,9.972000e+000
1.687316e+003,9.535172e+000
1.688280e+003,6.702530e+000
1.689244e+003,4.112686e+000
1.690208e+003,4.012009e+000
1.691173e+003,4.974045e+000
1.692137e+003,5.569794e+000
1.693101e+003,5.965652e+000
1.694065e+003,7.047821e+000
1.695030e+003,9.025436e+000
1.695994e+003,1.001624e+001
1.696958e+003,8.191574e+000
1.697922e+003,5.683105e+000
1.698887e+003,5.439072e+000
1.699851e+003,6.658401e+000
1.700815e+003,6.763199e+000
1.701779e+003,5.519714e+000
1.702744e+003,4.216187e+000
1.703708e+003,3.221497e+000
1.704672e+003,2.694046e+000
1.705636e+003,2.821777e+000
1.706601e+003,3.239655e+000
1.707565e+003,3.688217e+000
1.708529e+003,4.100098e+000
1.709493e+003,3.953415e+000
1.710458e+003,3.084778e+000
1.711422e+003,2.549149e+000
1.712386e+003,3.110992e+000
1.713350e+003,3.859177e+000
1.714314e+003,4.078659e+000
1.715279e+003,3.884705e+000
1.716243e+003,3.352142e+000
1.717207e+003,2.639359e+000
1.718171e+003,2.473755e+000
1.719135e+003,3.069641e+000
1.720100e+003,3.202316e+000
1.721064e+003,1.812653e+000
1.722028e+003,2.019043e-001
1.722992e+003,5.481567e-001
1.723957e+003,2.431229e+000
1.724921e+003,2.974197e+000
1.725885e+003,1.880051e+000
1.726849e+003,8.078613e-001
1.727814e+003,-2.791290e-001
1.728778e+003,-6.735840e-001
1.729742e+003,3.090973e-001
1.730706e+003,1.730209e+000
1.731671e+003,2.784760e+000
1.732635e+003,3.393936e+000
1.733599e+003,3.761719e+000
1.734563e+003,3.960388e+000
1.735528e+003,3.702805e+000
1.736492e+003,2.812195e+000
1.737456e+003,1.909943e+000
1.738420e+003,1.742325e+000
1.739385e+003,2.094543e+000
1.740349e+003,2.401535e+000
1.741313e+003,2.795059e+000
1.742277e+003,2.706055e+000
1.743241e+003,1.775604e+000
1.744206e+003,1.066833e+000
1.745170e+003,1.068787e+000
1.746134e+003,8.398438e-001
1.747098e+003,-6.635284e-001
1.748063e+003,-2.300056e+000
1.749027e+003,-2.503334e+000
1.749991e+003,-1.633881e+000
1.750955e+003,-1.278717e+000
1.751919e+003,-1.865265e+000
1.752884e+003,-2.105629e+000
1.753848e+003,-9.207153e-001
1.754812e+003,9.422150e-001
1.755776e+003,2.080887e+000
1.756741e+003,2.553589e+000
1.757705e+003,2.263321e+000
1.758669e+003,6.094666e-001
1.759633e+003,-1.817474e-001
1.760598e+003,6.994019e-001
1.761562e+003,1.534760e+000
1.762526e+003,2.195404e+000
1.763490e+003,2.376236e+000
1.764455e+003,1.695923e+000
1.765419e+003,5.008850e-001
1.766383e+003,-1.169739e+000
1.767347e+003,-2.923546e+000
1.768312e+003,-3.150681e+000
1.769276e+003,-1.069656e+000
1.770240e+003,9.676666e-001
1.771204e+003,3.680878e-001
1.772168e+003,-1.664795e+000
1.773133e+003,-2.520813e+000
1.774097e+003,-2.311546e+000
1.775061e+003,-2.181519e+000
1.776025e+003,-2.371002e+000
1.776990e+003,-2.044548e+000
1.777954e+003,-5.599365e-001
1.778918e+003,9.113464e-001
1.779882e+003,1.598633e+000
1.780846e+003,1.613266e+000
1.781811e+003,9.541779e-001
1.782775e+003,-1.223297e-001
1.783739e+003,-7.965393e-001
1.784703e+003,-9.045105e-001
1.785668e+003,-9.678650e-001
1.786632e+003,-1.438484e+000
1.787596e+003,-1.761330e+000
1.788560e+003,-1.142807e+000
1.789525e+003,-2.442627e-001
1.790489e+003,-2.955017e-001
1.791453e+003,-9.819870e-001
1.792417e+003,-9.670410e-001
1.793382e+003,-2.456665e-002
1.794346e+003,9.152527e-001
1.795310e+003,1.356125e+000
1.796274e+003,1.634720e+000
1.797239e+003,2.264999e+000
1.798203e+003,2.962402e+000
1.799167e+003,2.384521e+000
1.800131e+003,-6.008911e-002
1.801095e+003,-6.621323e-001
1.802060e+003,2.637863e+000
1.803024e+003,4.550674e+000
1.803988e+003,3.791222e+000
1.804952e+003,2.422760e+000
1.805917e+003,6.092834e-001
1.806881e+003,-6.626358e-001
1.807845e+003,3.661346e-002
1.808809e+003,1.845779e+000
1.809773e+003,2.893661e+000
1.810738e+003,2.801186e+000
1.811702e+003,2.627937e+000
1.812666e+003,3.018410e+000
1.813630e+003,3.159027e+000
1.814595e+003,1.724182e+000
1.815559e+003,-5.897522e-001
1.816523e+003,-4.112778e-001
1.817487e+003,2.651047e+000
1.818452e+003,3.748260e+000
1.819416e+003,1.798012e+000
1.820380e+003,5.771179e-001
1.821344e+003,1.613556e+000
1.822309e+003,2.761658e+000
1.823273e+003,2.571800e+000
1.824237e+003,2.113930e+000
1.825201e+003,2.517914e+000
1.826166e+003,3.496506e+000
1.827130e+003,4.376991e+000
1.828094e+003,4.987907e+000
1.829058e+003,4.712814e+000
1.830022e+003,2.919052e+000
1.830987e+003,9.980545e-001
1.831951e+003,5.553436e-002
1.832915e+003,-2.796478e-001
1.833879e+003,-3.484802e-001
1.834844e+003,-3.232498e-001
1.835808e+003,-9.097748e-001
1.836772e+003,-2.033989e+000
1.837736e+003,-1.975517e+000
1.838700e+003,4.157257e-002
1.839665e+003,1.943398e+000
1.840629e+003,1.797928e+000
1.841593e+003,5.023804e-001
1.842557e+003,-1.237030e-001
1.843522e+003,-9.239197e-002
1.844486e+003,-8.091736e-002
1.845450e+003,-3.989029e-001
1.846414e+003,4.939270e-002
1.847379e+003,2.250328e+000
1.848343e+003,3.642998e+000
1.849307e+003,2.991287e+000
1.850271e+003,1.866333e+000
1.851236e+003,1.068382e+000
1.852200e+003,7.995224e-001
1.853164e+003,1.660172e+000
1.854128e+003,2.988556e+000
1.855093e+003,2.625328e+000
1.856057e+003,8.190918e-002
1.857021e+003,-1.852928e+000
1.857985e+003,-7.901688e-001
1.858949e+003,1.666389e+000
1.859914e+003,3.063377e+000
1.860878e+003,3.452026e+000
1.861842e+003,2.641708e+000
1.862806e+003,5.611343e-001
1.863771e+003,-2.519989e-002
1.864735e+003,1.732170e+000
1.865699e+003,2.986572e+000
1.866663e+003,2.196556e+000
1.867627e+003,1.246872e+000
1.868592e+003,2.051910e+000
1.869556e+003,3.519104e+000
1.870520e+003,3.528465e+000
1.871484e+003,2.325287e+000
1.872449e+003,1.552612e+000
1.873413e+003,1.492432e+000
1.874377e+003,2.054832e+000
1.875341e+003,3.749626e+000
1.876306e+003,5.074539e+000
1.877270e+003,5.259460e+000
1.878234e+003,4.625999e+000
1.879198e+003,2.968742e+000
1.880163e+003,1.060280e+000
1.881127e+003,2.054214e-001
1.882091e+003,4.628448e-001
1.883055e+003,1.138954e+000
1.884020e+003,1.868217e+000
1.884984e+003,2.420792e+000
1.885948e+003,2.572121e+000
1.886912e+003,2.735634e+000
1.887876e+003,3.946342e+000
1.888841e+003,6.014679e+000
1.889805e+003,6.207504e+000
1.890769e+003,4.000786e+000
1.891733e+003,2.781563e+000
1.892698e+003,3.114861e+000
1.893662e+003,3.734238e+000
1.894626e+003,4.519997e+000
1.895590e+003,5.118690e+000
1.896554e+003,5.509003e+000
1.897519e+003,5.496643e+000
1.898483e+003,4.359459e+000
1.899447e+003,2.517326e+000
1.900411e+003,1.621468e+000
1.901376e+003,2.006279e+000
1.902340e+003,2.534042e+000
1.903304e+003,2.900528e+000
1.904268e+003,3.090111e+000
1.905233e+003,2.856377e+000
1.906197e+003,2.710266e+000
1.907161e+003,3.402069e+000
1.908125e+003,4.481918e+000
1.909090e+003,5.068817e+000
1.910054e+003,5.094765e+000
1.911018e+003,4.933022e+000
1.911982e+003,4.774597e+000
1.912947e+003,4.696808e+000
1.913911e+003,4.738243e+000
1.914875e+003,4.857521e+000
1.915839e+003,5.045410e+000
1.916803e+003,5.076920e+000
1.917768e+003,3.645706e+000
1.918732e+003,1.745300e-001
1.919696e+003,-4.316330e-001
1.920660e+003,3.368134e+000
1.921625e+003,5.853058e+000
1.922589e+003,4.776649e+000
1.923553e+003,3.760941e+000
1.924517e+003,5.517639e+000
1.925481e+003,7.436310e+000
1.926446e+003,6.840828e+000
1.927410e+003,4.898064e+000
1.928374e+003,3.849617e+000
1.929338e+003,3.819595e+000
1.930303e+003,4.133385e+000
1.931267e+003,4.849007e+000
1.932231e+003,5.477524e+000
1.933195e+003,5.772720e+000
1.934160e+003,5.809288e+000
1.935124e+003,5.539070e+000
1.936088e+003,5.090134e+000
1.937052e+003,4.554474e+000
1.938017e+003,4.089386e+000
1.938981e+003,3.923904e+000
1.939945e+003,4.059753e+000
1.940909e+003,4.325058e+000
1.941874e+003,4.628380e+000
1.942838e+003,5.109413e+000
1.943802e+003,5.991714e+000
1.944766e+003,6.853012e+000
1.945730e+003,6.606316e+000
1.946695e+003,5.394112e+000
1.947659e+003,4.752655e+000
1.948623e+003,4.705177e+000
1.949587e+003,4.787727e+000
1.950552e+003,5.012268e+000
1.951516e+003,5.245178e+000
1.952480e+003,5.381165e+000
1.953444e+003,5.641457e+000
1.954408e+003,6.208473e+000
1.955373e+003,6.884560e+000
1.956337e+003,7.710678e+000
1.957301e+003,8.525589e+000
1.958265e+003,8.333778e+000
1.959230e+003,6.929817e+000
1.960194e+003,6.193222e+000
1.961158e+003,6.905701e+000
1.962122e+003,7.296623e+000
1.963087e+003,6.725380e+000
1.964051e+003,5.983170e+000
1.965015e+003,5.210144e+000
1.965979e+003,4.871292e+000
1.966944e+003,5.954597e+000
1.967908e+003,7.427307e+000
1.968872e+003,7.110580e+000
1.969836e+003,5.220970e+000
1.970801e+003,4.156418e+000
1.971765e+003,4.912262e+000
1.972729e+003,6.165390e+000
1.973693e+003,6.833168e+000
1.974657e+003,7.259392e+000
1.975622e+003,8.158997e+000
1.976586e+003,9.112701e+000
1.977550e+003,8.889763e+000
1.978514e+003,7.695885e+000
1.979479e+003,6.628143e+000
1.980443e+003,5.855225e+000
1.981407e+003,5.347466e+000
1.982371e+003,5.118622e+000
1.983335e+003,5.126976e+000
1.984300e+003,5.322731e+000
1.985264e+003,5.614616e+000
1.986228e+003,5.888657e+000
1.987192e+003,6.194496e+000
1.988157e+003,6.868622e+000
1.989121e+003,8.222298e+000
1.990085e+003,8.345329e+000
1.991049e+003,5.849625e+000
1.992014e+003,5.014488e+000
1.992978e+003,7.991333e+000
1.993942e+003,1.037676e+001
1.994906e+003,1.060293e+001
1.995871e+003,9.803711e+000
1.996835e+003,7.769348e+000
1.997799e+003,5.890274e+000
1.998763e+003,6.767784e+000
1.999728e+003,9.643570e+000
