5.003444e+002,4.104539e+001
5.013087e+002,4.035672e+001
5.022729e+002,3.880083e+001
5.032371e+002,3.691315e+001
5.042014e+002,3.579887e+001
5.051656e+002,3.540811e+001
5.061298e+002,3.552180e+001
5.070941e+002,3.598077e+001
5.080583e+002,3.686690e+001
5.090225e+002,3.705719e+001
5.099868e+002,3.645717e+001
5.109510e+002,3.551974e+001
5.119152e+002,3.417101e+001
5.128795e+002,3.235916e+001
5.138437e+002,3.141573e+001
5.148079e+002,3.315808e+001
5.157722e+002,3.468846e+001
5.167364e+002,3.430600e+001
5.177006e+002,3.207622e+001
5.186649e+002,2.981964e+001
5.196291e+002,3.055348e+001
5.205933e+002,3.225815e+001
5.215576e+002,3.199538e+001
5.225218e+002,2.958868e+001
5.234860e+002,2.667809e+001
5.244503e+002,2.643860e+001
5.254145e+002,3.023419e+001
5.263787e+002,3.194644e+001
5.273430e+002,3.022009e+001
5.283072e+002,2.734210e+001
5.292714e+002,2.655371e+001
5.302357e+002,2.912183e+001
5.311999e+002,3.061853e+001
5.321641e+002,3.034885e+001
5.331284e+002,2.950317e+001
5.340926e+002,2.903735e+001
5.350568e+002,2.927307e+001
5.360211e+002,2.896370e+001
5.369853e+002,2.610895e+001
5.379495e+002,2.300020e+001
5.389138e+002,2.185191e+001
5.398780e+002,2.330644e+001
5.408422e+002,2.600717e+001
5.418065e+002,2.611449e+001
5.427707e+002,2.401071e+001
5.437349e+002,2.206750e+001
5.446992e+002,2.067976e+001
5.456634e+002,1.994511e+001
5.466276e+002,2.029440e+001
5.475919e+002,2.374409e+001
5.485561e+002,2.587170e+001
5.495203e+002,2.616307e+001
5.504846e+002,2.505334e+001
5.514488e+002,2.316762e+001
5.524130e+002,2.060020e+001
5.533773e+002,1.762207e+001
5.543415e+002,1.325098e+001
5.553057e+002,9.173111e+000
5.562700e+002,7.448929e+000
5.572342e+002,9.292511e+000
5.581984e+002,1.290170e+001
5.591627e+002,1.403703e+001
5.601269e+002,1.363281e+001
5.610911e+002,1.324246e+001
5.620554e+002,1.360565e+001
5.630196e+002,1.458415e+001
5.639838e+002,1.545226e+001
5.649481e+002,1.679849e+001
5.659123e+002,1.722459e+001
5.668765e+002,1.621962e+001
5.678408e+002,1.429996e+001
5.688050e+002,1.266702e+001
5.697692e+002,1.129269e+001
5.707335e+002,1.028842e+001
5.716977e+002,1.001703e+001
5.726619e+002,1.010677e+001
5.736262e+002,1.003381e+001
5.745904e+002,9.409531e+000
5.755546e+002,8.793488e+000
5.765189e+002,9.312500e+000
5.774831e+002,1.022363e+001
5.784473e+002,1.020174e+001
5.794116e+002,8.417023e+000
5.803758e+002,5.203842e+000
5.813400e+002,3.803452e+000
5.823043e+002,4.390152e+000
5.832685e+002,5.068756e+000
5.842327e+002,5.400787e+000
5.851970e+002,5.513519e+000
5.861612e+002,5.651398e+000
5.871254e+002,5.553131e+000
5.880897e+002,5.614655e+000
5.890539e+002,6.272659e+000
5.900181e+002,6.994751e+000
5.909824e+002,6.852310e+000
5.919466e+002,4.989655e+000
5.929108e+002,2.832016e+000
5.938751e+002,1.535339e+000
5.948393e+002,1.063248e+000
5.958035e+002,1.638214e+000
5.967678e+002,3.409927e+000
5.977320e+002,6.118271e+000
5.986962e+002,7.204956e+000
5.996605e+002,6.621704e+000
6.006247e+002,5.636063e+000
6.015889e+002,4.742889e+000
6.025532e+002,3.949142e+000
6.035174e+002,3.078308e+000
6.044816e+002,1.159454e+000
6.054459e+002,3.730774e-001
6.064101e+002,1.941513e+000
6.073743e+002,4.710098e+000
6.083386e+002,6.592361e+000
6.093028e+002,6.258270e+000
6.102670e+002,5.358932e+000
6.112313e+002,5.139221e+000
6.121955e+002,5.292068e+000
6.131597e+002,5.379333e+000
6.141240e+002,5.101120e+000
6.150882e+002,4.589767e+000
6.160524e+002,4.680634e+000
6.170167e+002,5.327179e+000
6.179809e+002,5.625610e+000
6.189451e+002,4.966827e+000
6.199094e+002,3.448563e+000
6.208736e+002,2.336243e+000
6.218378e+002,2.221893e+000
6.228021e+002,2.158234e+000
6.237663e+002,2.535614e+000
6.247305e+002,2.841019e+000
6.256948e+002,1.865509e+000
6.266590e+002,-2.023956e+000
6.276232e+002,-4.759155e+000
6.285875e+002,-2.889435e+000
6.295517e+002,7.636566e-001
6.305159e+002,3.132126e+000
6.314802e+002,2.544601e+000
6.324444e+002,2.926178e-001
6.334086e+002,2.177887e-001
6.343729e+002,1.706650e+000
6.353371e+002,3.009857e+000
6.363013e+002,3.483963e+000
6.372656e+002,3.274612e+000
6.382298e+002,3.020401e+000
6.391940e+002,2.907288e+000
6.401583e+002,2.336761e+000
6.411225e+002,1.037964e+000
6.420867e+002,-3.081055e-001
6.430510e+002,-8.994293e-001
6.440152e+002,-3.958893e-001
6.449794e+002,-7.524109e-002
6.459437e+002,-7.333527e-001
6.469079e+002,-1.695313e+000
6.478721e+002,-2.529617e+000
6.488364e+002,-2.997314e+000
6.498006e+002,-3.020813e+000
6.507648e+002,-2.132828e+000
6.517291e+002,-8.591003e-001
6.526933e+002,-5.417480e-001
6.536575e+002,-1.488083e+000
6.546218e+002,-3.042526e+000
6.555860e+002,-3.941132e+000
6.565502e+002,-3.828369e+000
6.575145e+002,-3.762070e+000
6.584787e+002,-3.680634e+000
6.594429e+002,-3.664307e+000
6.604072e+002,-3.846268e+000
6.613714e+002,-4.276871e+000
6.623356e+002,-4.521912e+000
6.632999e+002,-4.067078e+000
6.642641e+002,-3.804382e+000
6.652283e+002,-4.722794e+000
6.661926e+002,-6.365768e+000
6.671568e+002,-6.929459e+000
6.681210e+002,-3.552399e+000
6.690853e+002,1.613342e+000
6.700495e+002,2.806808e+000
6.710137e+002,1.333008e-001
6.719780e+002,-3.417557e+000
6.729422e+002,-4.693817e+000
6.739064e+002,-3.245941e+000
6.748707e+002,-2.300369e+000
6.758349e+002,-1.793686e+000
6.767991e+002,-1.731079e+000
6.777634e+002,-2.432343e+000
6.787276e+002,-3.609924e+000
6.796918e+002,-3.855255e+000
6.806561e+002,-1.600449e+000
6.816203e+002,2.870331e-001
6.825845e+002,5.479736e-001
6.835488e+002,-2.811279e-001
6.845130e+002,-1.300507e+000
6.854772e+002,-1.874298e+000
6.864415e+002,-1.891479e+000
6.874057e+002,-9.815216e-001
6.883699e+002,3.181305e-001
6.893342e+002,7.374268e-001
6.902984e+002,-4.952698e-001
6.912626e+002,-2.961212e+000
6.922269e+002,-4.031464e+000
6.931911e+002,-2.326523e+000
6.941553e+002,-6.885681e-001
6.951196e+002,1.122345e+000
6.960838e+002,2.392288e+000
6.970480e+002,1.534348e+000
6.980123e+002,-3.337646e+000
6.989765e+002,-5.995148e+000
6.999407e+002,-1.989914e+000
7.009050e+002,3.340149e+000
7.018692e+002,5.476929e+000
7.028334e+002,3.063766e+000
7.037977e+002,-1.080902e+000
7.047619e+002,-2.665680e+000
7.057261e+002,-2.429626e+000
7.066904e+002,-1.805466e+000
7.076546e+002,-1.022705e+000
7.086188e+002,-4.848938e-001
7.095831e+002,-9.062347e-001
7.105473e+002,-2.887543e+000
7.115115e+002,-4.141434e+000
7.124758e+002,-4.777710e+000
7.134400e+002,-4.858719e+000
7.144042e+002,-4.110016e+000
7.153685e+002,-2.529724e+000
7.163327e+002,-1.122940e+000
7.172969e+002,-3.506470e-001
7.182612e+002,1.534271e-001
7.192254e+002,4.000397e-001
7.201896e+002,4.212036e-001
7.211539e+002,2.017059e-001
7.221181e+002,-3.068390e-001
7.230823e+002,-8.445892e-001
7.240466e+002,-7.431946e-001
7.250108e+002,-1.301575e-002
7.259750e+002,1.131104e+000
7.269393e+002,2.600891e+000
7.279035e+002,4.090622e+000
7.288677e+002,4.187714e+000
7.298320e+002,1.878036e+000
7.307962e+002,-1.193237e-001
7.317604e+002,-2.136124e+000
7.327247e+002,-3.523087e+000
7.336889e+002,-3.125122e+000
7.346531e+002,-1.701202e-001
7.356174e+002,2.112640e+000
7.365816e+002,1.937927e+000
7.375458e+002,9.650879e-001
7.385101e+002,3.144836e-001
7.394743e+002,3.190308e-001
7.404385e+002,5.810089e-001
7.414028e+002,5.398560e-001
7.423670e+002,-1.150513e-001
7.433312e+002,-1.567276e+000
7.442955e+002,-3.769608e+000
7.452597e+002,-5.513611e+000
7.462239e+002,-5.396454e+000
7.471882e+002,-2.938370e+000
7.481524e+002,-8.848572e-001
7.491166e+002,4.150696e-001
7.500809e+002,1.422821e+000
7.510451e+002,2.621979e+000
7.520093e+002,3.733978e+000
7.529736e+002,3.681747e+000
7.539378e+002,1.184937e+000
7.549020e+002,-1.053375e+000
7.558663e+002,-1.343216e+000
7.568306e+002,-3.894196e-001
7.577948e+002,9.061737e-001
7.587590e+002,1.921387e+000
7.597233e+002,2.621796e+000
7.606875e+002,3.180908e+000
7.616517e+002,3.688080e+000
7.626160e+002,3.833649e+000
7.635802e+002,3.500244e+000
7.645444e+002,2.852798e+000
7.655087e+002,2.158844e+000
7.664729e+002,1.242615e+000
7.674371e+002,6.095123e-001
7.684014e+002,2.965546e-001
7.693656e+002,1.711578e-001
7.703298e+002,1.982880e-001
7.712941e+002,3.754425e-001
7.722583e+002,6.580505e-001
7.732225e+002,9.465485e-001
7.741868e+002,1.406555e+000
7.751510e+002,2.536514e+000
7.761152e+002,3.964737e+000
7.770795e+002,4.690521e+000
7.780437e+002,3.793015e+000
7.790079e+002,1.576935e+000
7.799722e+002,1.285614e+000
7.809364e+002,3.034485e+000
7.819006e+002,4.522461e+000
7.828649e+002,4.815170e+000
7.838291e+002,4.318634e+000
7.847933e+002,4.156708e+000
7.857576e+002,4.213470e+000
7.867218e+002,4.538956e+000
7.876860e+002,5.945572e+000
7.886503e+002,7.269073e+000
7.896145e+002,7.123550e+000
7.905787e+002,5.302429e+000
7.915430e+002,3.754181e+000
7.925072e+002,5.420334e+000
7.934714e+002,7.745392e+000
7.944357e+002,7.759552e+000
7.953999e+002,5.620163e+000
7.963641e+002,3.303558e+000
7.973284e+002,3.012085e+000
7.982926e+002,4.934875e+000
7.992568e+002,5.327240e+000
8.002211e+002,3.261993e+000
8.011853e+002,1.140167e+000
8.021495e+002,-1.058044e-001
8.031138e+002,-3.786926e-001
8.040780e+002,1.725464e-001
8.050422e+002,2.125427e+000
8.060065e+002,3.492462e+000
8.069707e+002,3.156494e+000
8.079349e+002,2.151871e+000
8.088992e+002,1.569382e+000
8.098634e+002,1.832581e+000
8.108276e+002,2.396820e+000
8.117919e+002,2.291733e+000
8.127561e+002,1.670151e+000
8.137203e+002,1.244141e+000
8.146846e+002,1.236008e+000
8.156488e+002,1.635544e+000
8.166130e+002,2.403931e+000
8.175773e+002,3.659485e+000
8.185415e+002,4.329987e+000
8.195057e+002,3.727325e+000
8.204700e+002,3.256454e+000
8.214342e+002,3.692520e+000
8.223984e+002,4.622009e+000
8.233627e+002,4.741760e+000
8.243269e+002,2.909637e+000
8.252911e+002,1.811218e+000
8.262554e+002,3.437225e+000
8.272196e+002,6.088867e+000
8.281838e+002,8.199463e+000
8.291481e+002,9.089905e+000
8.301123e+002,8.989334e+000
8.310765e+002,8.038513e+000
8.320408e+002,6.352554e+000
8.330050e+002,5.747025e+000
8.339692e+002,6.697830e+000
8.349335e+002,7.673126e+000
8.358977e+002,6.739899e+000
8.368619e+002,3.469070e+000
8.378262e+002,2.058060e+000
8.387904e+002,4.397308e+000
8.397546e+002,6.347107e+000
8.407189e+002,6.922592e+000
8.416831e+002,6.439209e+000
8.426473e+002,5.319748e+000
8.436116e+002,3.458725e+000
8.445758e+002,2.376389e+000
8.455400e+002,4.053543e+000
8.465043e+002,6.862106e+000
8.474685e+002,9.686401e+000
8.484327e+002,1.204970e+001
8.493970e+002,1.330542e+001
8.503612e+002,1.203638e+001
8.513254e+002,7.442688e+000
8.522897e+002,6.287964e+000
8.532539e+002,1.081566e+001
8.542181e+002,1.524254e+001
8.551824e+002,1.611488e+001
8.561466e+002,1.394931e+001
8.571108e+002,1.198256e+001
8.580751e+002,1.027655e+001
8.590393e+002,8.998398e+000
8.600035e+002,8.399948e+000
8.609678e+002,8.352005e+000
8.619320e+002,8.584808e+000
8.628962e+002,8.999512e+000
8.638605e+002,9.987137e+000
8.648247e+002,1.295660e+001
8.657889e+002,1.664725e+001
8.667532e+002,1.802048e+001
8.677174e+002,1.668367e+001
8.686816e+002,1.479669e+001
8.696459e+002,1.498137e+001
8.706101e+002,1.773235e+001
8.715743e+002,1.935321e+001
8.725386e+002,1.856712e+001
8.735028e+002,1.840773e+001
8.744670e+002,2.033623e+001
8.754313e+002,2.305345e+001
8.763955e+002,2.402289e+001
8.773597e+002,2.203433e+001
8.783240e+002,1.985930e+001
8.792882e+002,1.927304e+001
8.802524e+002,1.945825e+001
8.812167e+002,2.003644e+001
8.821809e+002,2.075258e+001
8.831451e+002,2.125891e+001
8.841094e+002,2.105611e+001
8.850736e+002,2.034091e+001
8.860378e+002,2.108357e+001
8.870021e+002,2.361937e+001
8.879663e+002,2.593140e+001
8.889305e+002,2.700375e+001
8.898948e+002,2.687689e+001
8.908590e+002,2.580629e+001
8.918232e+002,2.263954e+001
8.927875e+002,2.076073e+001
8.937517e+002,2.140779e+001
8.947159e+002,2.306624e+001
8.956802e+002,2.433499e+001
8.966444e+002,2.489308e+001
8.976086e+002,2.575879e+001
8.985729e+002,2.879890e+001
8.995371e+002,3.218524e+001
9.005013e+002,3.208374e+001
9.014656e+002,2.920140e+001
9.024298e+002,2.711259e+001
9.033940e+002,2.857982e+001
9.043583e+002,3.289929e+001
9.053225e+002,3.523576e+001
9.062867e+002,3.347168e+001
9.072510e+002,3.210902e+001
9.082152e+002,3.166232e+001
9.091794e+002,3.167705e+001
9.101437e+002,3.181978e+001
9.111079e+002,3.203218e+001
9.120721e+002,3.185223e+001
9.130364e+002,3.027985e+001
9.140006e+002,2.860861e+001
9.149648e+002,2.741995e+001
9.159291e+002,2.695151e+001
9.168933e+002,2.757635e+001
9.178575e+002,2.945642e+001
9.188218e+002,3.187053e+001
9.197860e+002,3.233237e+001
9.207502e+002,3.075409e+001
9.217145e+002,2.933472e+001
9.226787e+002,2.859264e+001
9.236429e+002,2.837190e+001
9.246072e+002,2.850128e+001
9.255714e+002,2.903133e+001
9.265356e+002,2.910292e+001
9.274999e+002,2.857086e+001
9.284641e+002,2.745895e+001
9.294283e+002,2.520638e+001
9.303926e+002,2.259534e+001
9.313568e+002,2.094229e+001
9.323210e+002,2.095378e+001
9.332853e+002,2.162502e+001
9.342495e+002,2.126479e+001
9.352137e+002,2.045822e+001
9.361780e+002,2.022585e+001
9.371422e+002,2.088412e+001
9.381064e+002,2.217676e+001
9.390707e+002,2.375845e+001
9.400349e+002,2.571259e+001
9.409991e+002,2.641576e+001
9.419634e+002,2.521678e+001
9.429276e+002,2.373515e+001
9.438918e+002,2.188153e+001
9.448561e+002,2.021863e+001
9.458203e+002,1.987805e+001
9.467845e+002,2.149506e+001
9.477488e+002,2.300850e+001
9.487130e+002,2.207895e+001
9.496772e+002,2.089563e+001
9.506415e+002,2.147054e+001
9.516057e+002,2.366945e+001
9.525699e+002,2.593573e+001
9.535342e+002,2.673929e+001
9.544984e+002,2.618391e+001
9.554626e+002,2.553442e+001
9.564269e+002,2.502356e+001
9.573911e+002,2.437057e+001
9.583553e+002,2.291635e+001
9.593196e+002,2.144946e+001
9.602838e+002,2.166252e+001
9.612480e+002,2.424593e+001
9.622123e+002,2.561168e+001
9.631765e+002,2.356786e+001
9.641407e+002,2.136169e+001
9.651050e+002,2.037117e+001
9.660692e+002,2.036449e+001
9.670334e+002,2.054472e+001
9.679977e+002,2.049066e+001
9.689619e+002,2.050148e+001
9.699261e+002,2.128001e+001
9.708904e+002,2.237085e+001
9.718546e+002,2.250722e+001
9.728188e+002,2.119296e+001
9.737831e+002,1.951251e+001
9.747473e+002,1.904517e+001
9.757115e+002,2.013774e+001
9.766758e+002,2.080640e+001
9.776400e+002,2.084676e+001
9.786042e+002,2.091533e+001
9.795685e+002,2.118195e+001
9.805327e+002,2.138142e+001
9.814969e+002,2.129761e+001
9.824612e+002,2.094066e+001
9.834254e+002,2.029591e+001
9.843896e+002,1.871321e+001
9.853539e+002,1.699106e+001
9.863181e+002,1.603975e+001
9.872823e+002,1.580740e+001
9.882466e+002,1.598097e+001
9.892108e+002,1.644257e+001
9.901750e+002,1.727701e+001
9.911393e+002,1.780853e+001
9.921035e+002,1.755937e+001
9.930677e+002,1.702023e+001
9.940320e+002,1.557043e+001
9.949962e+002,1.457001e+001
9.959604e+002,1.556412e+001
9.969247e+002,1.859029e+001
9.978889e+002,2.164249e+001
9.988531e+002,2.358963e+001
9.998174e+002,2.517935e+001
1.000782e+003,2.709982e+001
1.001746e+003,2.913232e+001
1.002710e+003,3.107692e+001
1.003674e+003,3.271968e+001
1.004639e+003,3.360797e+001
1.005603e+003,3.286790e+001
1.006567e+003,3.024776e+001
1.007531e+003,2.784062e+001
1.008495e+003,2.549109e+001
1.009460e+003,2.364583e+001
1.010424e+003,2.257239e+001
1.011388e+003,2.226907e+001
1.012352e+003,2.289238e+001
1.013317e+003,2.560497e+001
1.014281e+003,2.662970e+001
1.015245e+003,2.375847e+001
1.016209e+003,1.999062e+001
1.017174e+003,1.732048e+001
1.018138e+003,1.603465e+001
1.019102e+003,1.542303e+001
1.020066e+003,1.502518e+001
1.021031e+003,1.469182e+001
1.021995e+003,1.345691e+001
1.022959e+003,1.144267e+001
1.023923e+003,1.007372e+001
1.024887e+003,9.950638e+000
1.025852e+003,1.038655e+001
1.026816e+003,1.034625e+001
1.027780e+003,9.810333e+000
1.028744e+003,9.352173e+000
1.029709e+003,9.100922e+000
1.030673e+003,8.774292e+000
1.031637e+003,8.324692e+000
1.032601e+003,7.656281e+000
1.033566e+003,6.602997e+000
1.034530e+003,5.157135e+000
1.035494e+003,3.743042e+000
1.036458e+003,2.425766e+000
1.037422e+003,1.661545e+000
1.038387e+003,2.727814e+000
1.039351e+003,5.345840e+000
1.040315e+003,7.313278e+000
1.041279e+003,6.874603e+000
1.042244e+003,4.749512e+000
1.043208e+003,4.352875e+000
1.044172e+003,7.475128e+000
1.045136e+003,8.990707e+000
1.046101e+003,8.003159e+000
1.047065e+003,6.415680e+000
1.048029e+003,5.143311e+000
1.048993e+003,4.280716e+000
1.049958e+003,3.789352e+000
1.050922e+003,3.800797e+000
1.051886e+003,4.008804e+000
1.052850e+003,4.079559e+000
1.053814e+003,4.094803e+000
1.054779e+003,4.203232e+000
1.055743e+003,4.391891e+000
1.056707e+003,4.447174e+000
1.057671e+003,4.098740e+000
1.058636e+003,3.318527e+000
1.059600e+003,2.844955e+000
1.060564e+003,2.619186e+000
1.061528e+003,3.054962e+000
1.062493e+003,4.494522e+000
1.063457e+003,6.215469e+000
1.064421e+003,7.788635e+000
1.065385e+003,9.172333e+000
1.066349e+003,9.521805e+000
1.067314e+003,7.719147e+000
1.068278e+003,5.517746e+000
1.069242e+003,3.942505e+000
1.070206e+003,2.975540e+000
1.071171e+003,2.430496e+000
1.072135e+003,2.193405e+000
1.073099e+003,2.361603e+000
1.074063e+003,3.233902e+000
1.075028e+003,4.954941e+000
1.075992e+003,6.146286e+000
1.076956e+003,6.482498e+000
1.077920e+003,6.752731e+000
1.078885e+003,7.723648e+000
1.079849e+003,8.821014e+000
1.080813e+003,8.613235e+000
1.081777e+003,6.583267e+000
1.082741e+003,5.189178e+000
1.083706e+003,6.619324e+000
1.084670e+003,7.966644e+000
1.085634e+003,7.473938e+000
1.086598e+003,5.663269e+000
1.087563e+003,3.786057e+000
1.088527e+003,2.620224e+000
1.089491e+003,1.945679e+000
1.090455e+003,1.052551e+000
1.091420e+003,-1.921082e-001
1.092384e+003,2.554169e-001
1.093348e+003,3.492767e+000
1.094312e+003,6.228928e+000
1.095276e+003,6.208237e+000
1.096241e+003,4.375397e+000
1.097205e+003,3.404373e+000
1.098169e+003,3.722977e+000
1.099133e+003,4.274612e+000
1.100098e+003,5.304810e+000
1.101062e+003,5.950592e+000
1.102026e+003,5.343384e+000
1.102990e+003,3.920578e+000
1.103955e+003,2.672989e+000
1.104919e+003,2.181091e+000
1.105883e+003,2.215530e+000
1.106847e+003,2.386429e+000
1.107812e+003,2.687088e+000
1.108776e+003,3.095718e+000
1.109740e+003,3.624390e+000
1.110704e+003,4.241272e+000
1.111668e+003,5.509308e+000
1.112633e+003,7.081375e+000
1.113597e+003,6.735870e+000
1.114561e+003,2.797928e+000
1.115525e+003,1.975098e-001
1.116490e+003,1.318604e+000
1.117454e+003,3.210663e+000
1.118418e+003,4.136581e+000
1.119382e+003,4.275406e+000
1.120347e+003,4.750305e+000
1.121311e+003,6.155838e+000
1.122275e+003,7.582916e+000
1.123239e+003,7.144226e+000
1.124203e+003,5.246323e+000
1.125168e+003,5.130508e+000
1.126132e+003,7.511337e+000
1.127096e+003,1.053593e+001
1.128060e+003,1.316507e+001
1.129025e+003,1.525095e+001
1.129989e+003,1.612193e+001
1.130953e+003,1.512077e+001
1.131917e+003,1.413402e+001
1.132882e+003,1.343042e+001
1.133846e+003,1.321765e+001
1.134810e+003,1.414267e+001
1.135774e+003,1.562074e+001
1.136739e+003,1.607396e+001
1.137703e+003,1.465059e+001
1.138667e+003,1.306770e+001
1.139631e+003,1.472150e+001
1.140595e+003,1.919376e+001
1.141560e+003,2.219554e+001
1.142524e+003,2.304027e+001
1.143488e+003,2.455232e+001
1.144452e+003,2.936746e+001
1.145417e+003,3.636145e+001
1.146381e+003,4.095842e+001
1.147345e+003,4.125980e+001
1.148309e+003,4.395717e+001
1.149274e+003,5.289890e+001
1.150238e+003,6.230560e+001
1.151202e+003,6.921887e+001
1.152166e+003,7.449323e+001
1.153130e+003,8.051093e+001
1.154095e+003,8.815515e+001
1.155059e+003,9.533612e+001
1.156023e+003,9.929919e+001
1.156987e+003,1.001017e+002
1.157952e+003,9.985730e+001
1.158916e+003,9.907458e+001
1.159880e+003,9.602377e+001
1.160844e+003,8.808218e+001
1.161809e+003,7.730830e+001
1.162773e+003,6.884729e+001
1.163737e+003,6.320576e+001
1.164701e+003,5.772134e+001
1.165666e+003,5.136073e+001
1.166630e+003,4.563496e+001
1.167594e+003,4.152136e+001
1.168558e+003,3.816623e+001
1.169522e+003,3.387781e+001
1.170487e+003,2.850174e+001
1.171451e+003,2.451559e+001
1.172415e+003,2.502197e+001
1.173379e+003,2.881795e+001
1.174344e+003,2.920500e+001
1.175308e+003,2.603174e+001
1.176272e+003,2.388034e+001
1.177236e+003,2.523575e+001
1.178201e+003,2.762804e+001
1.179165e+003,2.773326e+001
1.180129e+003,2.544450e+001
1.181093e+003,2.294928e+001
1.182057e+003,1.985170e+001
1.183022e+003,1.805806e+001
1.183986e+003,1.909090e+001
1.184950e+003,2.101088e+001
1.185914e+003,2.202753e+001
1.186879e+003,2.198457e+001
1.187843e+003,2.192329e+001
1.188807e+003,2.267723e+001
1.189771e+003,2.365974e+001
1.190736e+003,2.304405e+001
1.191700e+003,2.058879e+001
1.192664e+003,1.895193e+001
1.193628e+003,1.892213e+001
1.194593e+003,1.915686e+001
1.195557e+003,1.869489e+001
1.196521e+003,1.768556e+001
1.197485e+003,1.684270e+001
1.198449e+003,1.659273e+001
1.199414e+003,1.554802e+001
1.200378e+003,1.157306e+001
1.201342e+003,7.985214e+000
1.202306e+003,7.028519e+000
1.203271e+003,8.090698e+000
1.204235e+003,9.975952e+000
1.205199e+003,1.189037e+001
1.206163e+003,1.289192e+001
1.207128e+003,1.112363e+001
1.208092e+003,6.365494e+000
1.209056e+003,4.592270e+000
1.210020e+003,7.345169e+000
1.210984e+003,9.447388e+000
1.211949e+003,9.278580e+000
1.212913e+003,7.722900e+000
1.213877e+003,5.722794e+000
1.214841e+003,3.417908e+000
1.215806e+003,1.206177e+000
1.216770e+003,-9.489441e-001
1.217734e+003,-2.707260e+000
1.218698e+003,-3.601379e+000
1.219663e+003,-4.273605e+000
1.220627e+003,-5.757858e+000
1.221591e+003,-8.004471e+000
1.222555e+003,-9.827652e+000
1.223520e+003,-1.008972e+001
1.224484e+003,-9.084244e+000
1.225448e+003,-8.416946e+000
1.226412e+003,-8.037491e+000
1.227376e+003,-8.294662e+000
1.228341e+003,-9.799606e+000
1.229305e+003,-1.130138e+001
1.230269e+003,-1.261684e+001
1.231233e+003,-1.332431e+001
1.232198e+003,-1.206493e+001
1.233162e+003,-8.286224e+000
1.234126e+003,-5.312683e+000
1.235090e+003,-6.189011e+000
1.236055e+003,-8.636154e+000
1.237019e+003,-1.091740e+001
1.237983e+003,-1.259377e+001
1.238947e+003,-1.231206e+001
1.239911e+003,-9.501480e+000
1.240876e+003,-6.159821e+000
1.241840e+003,-5.463654e+000
1.242804e+003,-7.613312e+000
1.243768e+003,-8.580780e+000
1.244733e+003,-7.268555e+000
1.245697e+003,-6.136597e+000
1.246661e+003,-5.316498e+000
1.247625e+003,-4.963943e+000
1.248590e+003,-5.345352e+000
1.249554e+003,-6.153625e+000
1.250518e+003,-6.652023e+000
1.251482e+003,-6.539825e+000
1.252447e+003,-6.436676e+000
1.253411e+003,-7.347610e+000
1.254375e+003,-8.492188e+000
1.255339e+003,-8.160263e+000
1.256303e+003,-6.293304e+000
1.257268e+003,-4.213562e+000
1.258232e+003,-2.537888e+000
1.259196e+003,-1.515198e+000
1.260160e+003,-1.548370e+000
1.261125e+003,-2.642654e+000
1.262089e+003,-4.205597e+000
1.263053e+003,-8.168182e+000
1.264017e+003,-1.018698e+001
1.264982e+003,-7.816833e+000
1.265946e+003,-4.065979e+000
1.266910e+003,-1.468735e+000
1.267874e+003,-3.869171e-001
1.268839e+003,1.549530e-001
1.269803e+003,8.099670e-001
1.270767e+003,9.346771e-001
1.271731e+003,-1.173523e+000
1.272695e+003,-5.303787e+000
1.273660e+003,-7.135803e+000
1.274624e+003,-5.862915e+000
1.275588e+003,-4.603668e+000
1.276552e+003,-5.186905e+000
1.277517e+003,-6.633530e+000
1.278481e+003,-7.213898e+000
1.279445e+003,-6.822998e+000
1.280409e+003,-6.209808e+000
1.281374e+003,-4.880676e+000
1.282338e+003,-4.392227e+000
1.283302e+003,-6.757401e+000
1.284266e+003,-9.607956e+000
1.285230e+003,-9.706909e+000
1.286195e+003,-7.147522e+000
1.287159e+003,-4.989166e+000
1.288123e+003,-5.714157e+000
1.289087e+003,-8.147308e+000
1.290052e+003,-8.850723e+000
1.291016e+003,-7.238632e+000
1.291980e+003,-6.194397e+000
1.292944e+003,-6.043442e+000
1.293909e+003,-6.151505e+000
1.294873e+003,-6.214340e+000
1.295837e+003,-6.277115e+000
1.296801e+003,-6.524170e+000
1.297766e+003,-6.949142e+000
1.298730e+003,-7.228973e+000
1.299694e+003,-7.207047e+000
1.300658e+003,-7.102737e+000
1.301622e+003,-7.112946e+000
1.302587e+003,-7.141541e+000
1.303551e+003,-7.022202e+000
1.304515e+003,-6.719147e+000
1.305479e+003,-6.521744e+000
1.306444e+003,-6.804764e+000
1.307408e+003,-7.314514e+000
1.308372e+003,-6.878723e+000
1.309336e+003,-4.855942e+000
1.310301e+003,-3.918747e+000
1.311265e+003,-5.066177e+000
1.312229e+003,-6.099197e+000
1.313193e+003,-6.172379e+000
1.314157e+003,-6.004349e+000
1.315122e+003,-6.443298e+000
1.316086e+003,-7.544052e+000
1.317050e+003,-8.821869e+000
1.318014e+003,-9.953171e+000
1.318979e+003,-1.073637e+001
1.319943e+003,-1.093054e+001
1.320907e+003,-1.044057e+001
1.321871e+003,-8.958160e+000
1.322836e+003,-6.125412e+000
1.323800e+003,-3.982941e+000
1.324764e+003,-3.710602e+000
1.325728e+003,-4.706848e+000
1.326693e+003,-6.379852e+000
1.327657e+003,-8.783463e+000
1.328621e+003,-1.024509e+001
1.329585e+003,-9.850723e+000
1.330549e+003,-8.655090e+000
1.331514e+003,-6.853516e+000
1.332478e+003,-5.311356e+000
1.333442e+003,-5.048401e+000
1.334406e+003,-5.753113e+000
1.335371e+003,-6.215988e+000
1.336335e+003,-5.715530e+000
1.337299e+003,-4.776703e+000
1.338263e+003,-4.433105e+000
1.339228e+003,-4.752197e+000
1.340192e+003,-4.998779e+000
1.341156e+003,-5.519882e+000
1.342120e+003,-5.484039e+000
1.343084e+003,-4.173996e+000
1.344049e+003,-2.971725e+000
1.345013e+003,-2.905121e+000
1.345977e+003,-3.811798e+000
1.346941e+003,-5.354477e+000
1.347906e+003,-7.513474e+000
1.348870e+003,-8.891754e+000
1.349834e+003,-7.709167e+000
1.350798e+003,-5.333252e+000
1.351763e+003,-4.386505e+000
1.352727e+003,-4.642319e+000
1.353691e+003,-4.774796e+000
1.354655e+003,-4.212509e+000
1.355620e+003,-3.647568e+000
1.356584e+003,-3.984604e+000
1.357548e+003,-5.078781e+000
1.358512e+003,-5.902527e+000
1.359476e+003,-6.450241e+000
1.360441e+003,-6.995743e+000
1.361405e+003,-7.665176e+000
1.362369e+003,-8.182877e+000
1.363333e+003,-8.737732e+000
1.364298e+003,-8.891098e+000
1.365262e+003,-7.667130e+000
1.366226e+003,-5.174622e+000
1.367190e+003,-2.966248e+000
1.368155e+003,-2.435410e+000
1.369119e+003,-3.066040e+000
1.370083e+003,-3.182831e+000
1.371047e+003,-2.395981e+000
1.372011e+003,-2.695541e+000
1.372976e+003,-5.636734e+000
1.373940e+003,-7.779984e+000
1.374904e+003,-7.187057e+000
1.375868e+003,-5.465286e+000
1.376833e+003,-4.590424e+000
1.377797e+003,-4.731369e+000
1.378761e+003,-5.139023e+000
1.379725e+003,-5.552383e+000
1.380690e+003,-5.890182e+000
1.381654e+003,-6.399765e+000
1.382618e+003,-6.551758e+000
1.383582e+003,-5.127548e+000
1.384547e+003,-2.376572e+000
1.385511e+003,-3.387756e-001
1.386475e+003,-1.459656e-001
1.387439e+003,-9.420776e-001
1.388403e+003,-1.444565e+000
1.389368e+003,-1.664963e+000
1.390332e+003,-2.225510e+000
1.391296e+003,-3.529205e+000
1.392260e+003,-4.237473e+000
1.393225e+003,-3.576309e+000
1.394189e+003,-2.866821e+000
1.395153e+003,-3.062439e+000
1.396117e+003,-3.611588e+000
1.397082e+003,-3.513535e+000
1.398046e+003,-2.546188e+000
1.399010e+003,-1.225464e+000
1.399974e+003,-4.444885e-002
1.400938e+003,5.581665e-001
1.401903e+003,-6.661682e-001
1.402867e+003,-4.308929e+000
1.403831e+003,-5.790512e+000
1.404795e+003,-3.357742e+000
1.405760e+003,-1.481384e+000
1.406724e+003,-2.543503e+000
1.407688e+003,-4.689148e+000
1.408652e+003,-5.448074e+000
1.409617e+003,-4.783478e+000
1.410581e+003,-4.546463e+000
1.411545e+003,-5.664474e+000
1.412509e+003,-6.290192e+000
1.413474e+003,-3.884354e+000
1.414438e+003,-4.973907e-001
1.415402e+003,5.809937e-001
1.416366e+003,-3.655548e-001
1.417330e+003,-1.732773e+000
1.418295e+003,-3.089142e+000
1.419259e+003,-3.944397e+000
1.420223e+003,-3.565109e+000
1.421187e+003,-2.209015e+000
1.422152e+003,-1.022736e+000
1.423116e+003,2.449493e-001
1.424080e+003,7.915344e-001
1.425044e+003,-5.299225e-001
1.426009e+003,-1.837875e+000
1.426973e+003,-2.542633e+000
1.427937e+003,-2.698608e+000
1.428901e+003,-2.207703e+000
1.429865e+003,-1.199020e+000
1.430830e+003,-9.587097e-002
1.431794e+003,7.731934e-001
1.432758e+003,1.426025e+000
1.433722e+003,2.044312e+000
1.434687e+003,2.817276e+000
1.435651e+003,3.042786e+000
1.436615e+003,1.430557e+000
1.437579e+003,5.298462e-001
1.438544e+003,1.155594e+000
1.439508e+003,2.041107e+000
1.440472e+003,2.847031e+000
1.441436e+003,3.235764e+000
1.442401e+003,2.068771e+000
1.443365e+003,-6.504517e-001
1.444329e+003,-2.034027e+000
1.445293e+003,5.370636e-001
1.446257e+003,4.401245e+000
1.447222e+003,3.672043e+000
1.448186e+003,-5.564270e-001
1.449150e+003,-1.913834e+000
1.450114e+003,8.034821e-001
1.451079e+003,3.503296e+000
1.452043e+003,3.753296e+000
1.453007e+003,3.209534e+000
1.453971e+003,4.615158e+000
1.454936e+003,7.497391e+000
1.455900e+003,8.150009e+000
1.456864e+003,5.279022e+000
1.457828e+003,2.152359e+000
1.458792e+003,-3.833466e-001
1.459757e+003,-1.540329e+000
1.460721e+003,4.092102e-001
1.461685e+003,3.949997e+000
1.462649e+003,6.040833e+000
1.463614e+003,5.969162e+000
1.464578e+003,5.356186e+000
1.465542e+003,5.670303e+000
1.466506e+003,6.266312e+000
1.467471e+003,5.033157e+000
1.468435e+003,1.396667e+000
1.469399e+003,-6.194458e-001
1.470363e+003,-3.774414e-001
1.471328e+003,7.676544e-001
1.472292e+003,3.618866e+000
1.473256e+003,6.002716e+000
1.474220e+003,6.297333e+000
1.475184e+003,5.178223e+000
1.476149e+003,3.823318e+000
1.477113e+003,2.742218e+000
1.478077e+003,2.166855e+000
1.479041e+003,2.436829e+000
1.480006e+003,3.272171e+000
1.480970e+003,3.504837e+000
1.481934e+003,2.746353e+000
1.482898e+003,2.610870e+000
1.483863e+003,3.422897e+000
1.484827e+003,4.278656e+000
1.485791e+003,5.199829e+000
1.486755e+003,6.010239e+000
1.487719e+003,6.128006e+000
1.488684e+003,5.947906e+000
1.489648e+003,6.854294e+000
1.490612e+003,9.285858e+000
1.491576e+003,1.159441e+001
1.492541e+003,1.234326e+001
1.493505e+003,1.214630e+001
1.494469e+003,1.225676e+001
1.495433e+003,1.252866e+001
1.496398e+003,1.272922e+001
1.497362e+003,1.286792e+001
1.498326e+003,1.336996e+001
1.499290e+003,1.452568e+001
1.500255e+003,1.608286e+001
1.501219e+003,1.738667e+001
1.502183e+003,1.863730e+001
1.503147e+003,2.134058e+001
1.504111e+003,2.606258e+001
1.505076e+003,3.102597e+001
1.506040e+003,3.545570e+001
1.507004e+003,3.943967e+001
1.507968e+003,4.272491e+001
1.508933e+003,4.580136e+001
1.509897e+003,4.965463e+001
1.510861e+003,5.462343e+001
1.511825e+003,6.046133e+001
1.512790e+003,6.694495e+001
1.513754e+003,7.393637e+001
1.514718e+003,8.169882e+001
1.515682e+003,9.012015e+001
1.516646e+003,9.690613e+001
1.517611e+003,1.010759e+002
1.518575e+003,1.058540e+002
1.519539e+003,1.134072e+002
1.520503e+003,1.208241e+002
1.521468e+003,1.274875e+002
1.522432e+003,1.324954e+002
1.523396e+003,1.345199e+002
1.524360e+003,1.336803e+002
1.525325e+003,1.314361e+002
1.526289e+003,1.287877e+002
1.527253e+003,1.256765e+002
1.528217e+003,1.219865e+002
1.529182e+003,1.178114e+002
1.530146e+003,1.124480e+002
1.531110e+003,1.055853e+002
1.532074e+003,9.783421e+001
1.533039e+003,8.911206e+001
1.534003e+003,7.932365e+001
1.534967e+003,6.740918e+001
1.535931e+003,5.554259e+001
1.536896e+003,4.611526e+001
1.537860e+003,3.913762e+001
1.538824e+003,3.292749e+001
1.539788e+003,2.661903e+001
1.540752e+003,2.139589e+001
1.541717e+003,1.897704e+001
1.542681e+003,1.892270e+001
1.543645e+003,1.798204e+001
1.544609e+003,1.554953e+001
1.545573e+003,1.409453e+001
1.546538e+003,1.456055e+001
1.547502e+003,1.443777e+001
1.548466e+003,1.205795e+001
1.549430e+003,9.534790e+000
1.550395e+003,9.200027e+000
1.551359e+003,1.052861e+001
1.552323e+003,1.165114e+001
1.553287e+003,1.188400e+001
1.554252e+003,1.149141e+001
1.555216e+003,1.063773e+001
1.556180e+003,9.425323e+000
1.557144e+003,7.898468e+000
1.558109e+003,6.097168e+000
1.559073e+003,5.501038e+000
1.560037e+003,6.621643e+000
1.561001e+003,7.598145e+000
1.561966e+003,7.997147e+000
1.562930e+003,8.115479e+000
1.563894e+003,7.917328e+000
1.564858e+003,7.606125e+000
1.565823e+003,7.774261e+000
1.566787e+003,8.492325e+000
1.567751e+003,9.169479e+000
1.568715e+003,9.537674e+000
1.569679e+003,9.679932e+000
1.570644e+003,9.675339e+000
1.571608e+003,9.400208e+000
1.572572e+003,8.653198e+000
1.573536e+003,7.484894e+000
1.574500e+003,6.351944e+000
1.575465e+003,4.836121e+000
1.576429e+003,4.214493e+000
1.577393e+003,6.616867e+000
1.578357e+003,1.010971e+001
1.579322e+003,1.035411e+001
1.580286e+003,7.425949e+000
1.581250e+003,6.110855e+000
1.582214e+003,8.313370e+000
1.583179e+003,1.065013e+001
1.584143e+003,1.036154e+001
1.585107e+003,8.998016e+000
1.586071e+003,8.833923e+000
1.587036e+003,9.606018e+000
1.588000e+003,1.004459e+001
1.588964e+003,9.767548e+000
1.589928e+003,9.760818e+000
1.590893e+003,1.099791e+001
1.591857e+003,1.259297e+001
1.592821e+003,1.302699e+001
1.593785e+003,1.257298e+001
1.594750e+003,1.289746e+001
1.595714e+003,1.436017e+001
1.596678e+003,1.520676e+001
1.597642e+003,1.435538e+001
1.598606e+003,1.326163e+001
1.599571e+003,1.299446e+001
1.600535e+003,1.330247e+001
1.601499e+003,1.406085e+001
1.602463e+003,1.507822e+001
1.603427e+003,1.576637e+001
1.604392e+003,1.589017e+001
1.605356e+003,1.569168e+001
1.606320e+003,1.531017e+001
1.607284e+003,1.484184e+001
1.608249e+003,1.445180e+001
1.609213e+003,1.412973e+001
1.610177e+003,1.445984e+001
1.611141e+003,1.604503e+001
1.612106e+003,1.702609e+001
1.613070e+003,1.569467e+001
1.614034e+003,1.414397e+001
1.614998e+003,1.380777e+001
1.615963e+003,1.434383e+001
1.616927e+003,1.524001e+001
1.617891e+003,1.627455e+001
1.618855e+003,1.710625e+001
1.619820e+003,1.755418e+001
1.620784e+003,1.729280e+001
1.621748e+003,1.543268e+001
1.622712e+003,1.258142e+001
1.623677e+003,1.217587e+001
1.624641e+003,1.490324e+001
1.625605e+003,1.609619e+001
1.626569e+003,1.326064e+001
1.627533e+003,1.078897e+001
1.628498e+003,1.116443e+001
1.629462e+003,1.267816e+001
1.630426e+003,1.432718e+001
1.631390e+003,1.579152e+001
1.632354e+003,1.676552e+001
1.633319e+003,1.715932e+001
1.634283e+003,1.685808e+001
1.635247e+003,1.553680e+001
1.636211e+003,1.415765e+001
1.637176e+003,1.499391e+001
1.638140e+003,1.784676e+001
1.639104e+003,1.873546e+001
1.640068e+003,1.685361e+001
1.641033e+003,1.552072e+001
1.641997e+003,1.591095e+001
1.642961e+003,1.660028e+001
1.643925e+003,1.692085e+001
1.644890e+003,1.711461e+001
1.645854e+003,1.758780e+001
1.646818e+003,1.808772e+001
1.647782e+003,1.785716e+001
1.648747e+003,1.670502e+001
1.649711e+003,1.542120e+001
1.650675e+003,1.460303e+001
1.651639e+003,1.436963e+001
1.652604e+003,1.521744e+001
1.653568e+003,1.701736e+001
1.654532e+003,1.730156e+001
1.655496e+003,1.533118e+001
1.656460e+003,1.410870e+001
1.657425e+003,1.565288e+001
1.658389e+003,1.660974e+001
1.659353e+003,1.420166e+001
1.660317e+003,1.104106e+001
1.661281e+003,9.936417e+000
1.662246e+003,1.058765e+001
1.663210e+003,1.145926e+001
1.664174e+003,1.204689e+001
1.665138e+003,1.241240e+001
1.666103e+003,1.251387e+001
1.667067e+003,1.246318e+001
1.668031e+003,1.272711e+001
1.668995e+003,1.325665e+001
1.669960e+003,1.279071e+001
1.670924e+003,1.089700e+001
1.671888e+003,9.603195e+000
1.672852e+003,9.735291e+000
1.673817e+003,1.022110e+001
1.674781e+003,1.060339e+001
1.675745e+003,1.078094e+001
1.676709e+003,1.040582e+001
1.677674e+003,9.727188e+000
1.678638e+003,9.668732e+000
1.679602e+003,1.050693e+001
1.680566e+003,1.099828e+001
1.681531e+003,9.962418e+000
1.682495e+003,8.431030e+000
1.683459e+003,8.144028e+000
1.684423e+003,8.855927e+000
1.685387e+003,9.500656e+000
1.686352e+003,1.011946e+001
1.687316e+003,9.704773e+000
1.688280e+003,7.156281e+000
1.689244e+003,4.961746e+000
1.690208e+003,5.712189e+000
1.691173e+003,7.238861e+000
1.692137e+003,6.967865e+000
1.693101e+003,5.512924e+000
1.694065e+003,5.092621e+000
1.695030e+003,6.205048e+000
1.695994e+003,7.074554e+000
1.696958e+003,6.626968e+000
1.697922e+003,5.455170e+000
1.698887e+003,3.908646e+000
1.699851e+003,2.323502e+000
1.700815e+003,1.713440e+000
1.701779e+003,2.113510e+000
1.702744e+003,2.958633e+000
1.703708e+003,4.388260e+000
1.704672e+003,5.365372e+000
1.705636e+003,4.782013e+000
1.706601e+003,3.421234e+000
1.707565e+003,2.375504e+000
1.708529e+003,1.735916e+000
1.709493e+003,1.805145e+000
1.710458e+003,2.720261e+000
1.711422e+003,3.219177e+000
1.712386e+003,2.287582e+000
1.713350e+003,1.497955e+000
1.714314e+003,2.475082e+000
1.715279e+003,4.044525e+000
1.716243e+003,4.111053e+000
1.717207e+003,2.893448e+000
1.718171e+003,2.333969e+000
1.719135e+003,2.988968e+000
1.720100e+003,3.191925e+000
1.721064e+003,1.510971e+000
1.722028e+003,-3.108673e-001
1.722992e+003,6.869965e-001
1.723957e+003,3.904678e+000
1.724921e+003,5.260284e+000
1.725885e+003,4.367157e+000
1.726849e+003,3.368362e+000
1.727814e+003,2.372147e+000
1.728778e+003,1.950684e+000
1.729742e+003,2.899368e+000
1.730706e+003,3.972733e+000
1.731671e+003,3.746262e+000
1.732635e+003,2.595871e+000
1.733599e+003,1.375992e+000
1.734563e+003,5.489655e-001
1.735528e+003,1.149338e+000
1.736492e+003,3.663940e+000
1.737456e+003,5.560440e+000
1.738420e+003,3.593002e+000
1.739385e+003,-8.881531e-001
1.740349e+003,-2.576157e+000
1.741313e+003,-7.543335e-001
1.742277e+003,5.759430e-001
1.743241e+003,1.645538e+000
1.744206e+003,2.058273e+000
1.745170e+003,1.044144e+000
1.746134e+003,9.391785e-002
1.747098e+003,2.220459e-001
1.748063e+003,6.965027e-001
1.749027e+003,7.922516e-001
1.749991e+003,3.968658e-001
1.750955e+003,-8.359528e-001
1.751919e+003,-2.706253e+000
1.752884e+003,-3.315277e+000
1.753848e+003,-1.038895e+000
1.754812e+003,2.149384e+000
1.755776e+003,2.114380e+000
1.756741e+003,-9.243469e-001
1.757705e+003,-2.064697e+000
1.758669e+003,-4.940948e-001
1.759633e+003,3.827057e-001
1.760598e+003,-2.823792e-001
1.761562e+003,-1.073059e+000
1.762526e+003,-1.980209e+000
1.763490e+003,-2.297058e+000
1.764455e+003,-5.694427e-001
1.765419e+003,1.608017e+000
1.766383e+003,1.255936e+000
1.767347e+003,-1.457565e+000
1.768312e+003,-3.461365e+000
1.769276e+003,-3.327972e+000
1.770240e+003,-2.523727e+000
1.771204e+003,-2.470001e+000
1.772168e+003,-2.673325e+000
1.773133e+003,-1.973145e+000
1.774097e+003,-5.196686e-001
1.775061e+003,2.742004e-002
1.776025e+003,-7.508392e-001
1.776990e+003,-1.017639e+000
1.777954e+003,4.614563e-001
1.778918e+003,1.460022e+000
1.779882e+003,-3.863983e-001
1.780846e+003,-3.179001e+000
1.781811e+003,-4.435394e+000
1.782775e+003,-4.350952e+000
1.783739e+003,-3.458923e+000
1.784703e+003,-1.707153e+000
1.785668e+003,-2.591553e-001
1.786632e+003,6.514130e-001
1.787596e+003,5.753021e-001
1.788560e+003,-1.802368e+000
1.789525e+003,-4.441879e+000
1.790489e+003,-3.880646e+000
1.791453e+003,-1.249420e+000
1.792417e+003,-9.321899e-001
1.793382e+003,-3.519135e+000
1.794346e+003,-4.689255e+000
1.795310e+003,-2.032730e+000
1.796274e+003,1.211929e+000
1.797239e+003,1.353821e+000
1.798203e+003,-5.855255e-001
1.799167e+003,-1.722687e+000
1.800131e+003,-2.136917e+000
1.801095e+003,-2.440170e+000
1.802060e+003,-2.518677e+000
1.803024e+003,-2.350876e+000
1.803988e+003,-2.203903e+000
1.804952e+003,-1.599442e+000
1.805917e+003,5.443420e-001
1.806881e+003,2.524414e+000
1.807845e+003,2.399933e+000
1.808809e+003,8.968811e-001
1.809773e+003,-3.109741e-001
1.810738e+003,-7.884064e-001
1.811702e+003,-1.099686e+000
1.812666e+003,-1.604401e+000
1.813630e+003,-1.996750e+000
1.814595e+003,-1.792450e+000
1.815559e+003,-1.247223e+000
1.816523e+003,-1.417236e+000
1.817487e+003,-2.383743e+000
1.818452e+003,-2.952286e+000
1.819416e+003,-3.108856e+000
1.820380e+003,-2.442368e+000
1.821344e+003,-2.467346e-002
1.822309e+003,1.906754e+000
1.823273e+003,1.705750e+000
1.824237e+003,7.982788e-001
1.825201e+003,4.958344e-001
1.826166e+003,6.359711e-001
1.827130e+003,6.354523e-001
1.828094e+003,3.638611e-001
1.829058e+003,1.010590e-001
1.830022e+003,1.078186e-001
1.830987e+003,3.541565e-002
1.831951e+003,-6.529541e-001
1.832915e+003,-1.412949e+000
1.833879e+003,-1.371780e+000
1.834844e+003,-7.315826e-001
1.835808e+003,-2.593994e-003
1.836772e+003,6.393585e-001
1.837736e+003,4.705963e-001
1.838700e+003,-8.950806e-001
1.839665e+003,-2.434250e+000
1.840629e+003,-3.253571e+000
1.841593e+003,-3.342621e+000
1.842557e+003,-2.623611e+000
1.843522e+003,-1.120132e+000
1.844486e+003,-1.938324e-001
1.845450e+003,-4.633484e-001
1.846414e+003,1.119385e-001
1.847379e+003,3.077835e+000
1.848343e+003,4.460999e+000
1.849307e+003,1.062134e+000
1.850271e+003,-2.083237e+000
1.851236e+003,-2.198029e-001
1.852200e+003,3.549149e+000
1.853164e+003,4.386658e+000
1.854128e+003,2.375916e+000
1.855093e+003,6.543884e-001
1.856057e+003,4.832458e-001
1.857021e+003,5.655060e-001
1.857985e+003,-2.346954e-001
1.858949e+003,-1.425323e+000
1.859914e+003,-2.293808e+000
1.860878e+003,-2.766159e+000
1.861842e+003,-2.369354e+000
1.862806e+003,-1.102615e+000
1.863771e+003,-2.317963e-001
1.864735e+003,6.175232e-002
1.865699e+003,-4.612885e-001
1.866663e+003,-2.491669e+000
1.867627e+003,-4.076782e+000
1.868592e+003,-2.993729e+000
1.869556e+003,-7.991791e-001
1.870520e+003,-5.536194e-001
1.871484e+003,-1.897415e+000
1.872449e+003,-2.240814e+000
1.873413e+003,-7.604065e-001
1.874377e+003,4.281311e-001
1.875341e+003,4.578705e-001
1.876306e+003,-6.820679e-003
1.877270e+003,-1.298386e+000
1.878234e+003,-2.349091e+000
1.879198e+003,-1.832169e+000
1.880163e+003,-3.328705e-001
1.881127e+003,1.468811e+000
1.882091e+003,3.002197e+000
1.883055e+003,2.807190e+000
1.884020e+003,4.974213e-001
1.884984e+003,-1.813248e+000
1.885948e+003,-2.206039e+000
1.886912e+003,-1.272339e+000
1.887876e+003,-3.515625e-002
1.888841e+003,1.445175e+000
1.889805e+003,2.117218e+000
1.890769e+003,1.713577e+000
1.891733e+003,2.062866e+000
1.892698e+003,3.888229e+000
1.893662e+003,4.929947e+000
1.894626e+003,3.881851e+000
1.895590e+003,2.600388e+000
1.896554e+003,2.416580e+000
1.897519e+003,2.749649e+000
1.898483e+003,3.055527e+000
1.899447e+003,3.138580e+000
1.900411e+003,2.517670e+000
1.901376e+003,1.073166e+000
1.902340e+003,2.582245e-001
1.903304e+003,1.065231e+000
1.904268e+003,1.889099e+000
1.905233e+003,1.609436e+000
1.906197e+003,1.074234e+000
1.907161e+003,1.072845e+000
1.908125e+003,1.539307e+000
1.909090e+003,2.318802e+000
1.910054e+003,3.226379e+000
1.911018e+003,3.944412e+000
1.911982e+003,4.421677e+000
1.912947e+003,4.920731e+000
1.913911e+003,5.614304e+000
1.914875e+003,6.252075e+000
1.915839e+003,6.420059e+000
1.916803e+003,6.095856e+000
1.917768e+003,5.447311e+000
1.918732e+003,4.469238e+000
1.919696e+003,3.497421e+000
1.920660e+003,2.283508e+000
1.921625e+003,2.007736e+000
1.922589e+003,3.575485e+000
1.923553e+003,4.947098e+000
1.924517e+003,4.657654e+000
1.925481e+003,4.078613e+000
1.926446e+003,4.644348e+000
1.927410e+003,5.715439e+000
1.928374e+003,5.939224e+000
1.929338e+003,5.218536e+000
1.930303e+003,4.349838e+000
1.931267e+003,3.470200e+000
1.932231e+003,3.051910e+000
1.933195e+003,3.511642e+000
1.934160e+003,4.080582e+000
1.935124e+003,4.135803e+000
1.936088e+003,3.988068e+000
1.937052e+003,4.127945e+000
1.938017e+003,4.495728e+000
1.938981e+003,4.955490e+000
1.939945e+003,5.301041e+000
1.940909e+003,4.838303e+000
1.941874e+003,3.349167e+000
1.942838e+003,2.030258e+000
1.943802e+003,2.074234e+000
1.944766e+003,2.946381e+000
1.945730e+003,3.444351e+000
1.946695e+003,3.559219e+000
1.947659e+003,3.610565e+000
1.948623e+003,3.542389e+000
1.949587e+003,3.907669e+000
1.950552e+003,5.013016e+000
1.951516e+003,5.734238e+000
1.952480e+003,5.746567e+000
1.953444e+003,5.099106e+000
1.954408e+003,2.776779e+000
1.955373e+003,7.522736e-001
1.956337e+003,3.009491e+000
1.957301e+003,8.015213e+000
1.958265e+003,9.677658e+000
1.959230e+003,7.361115e+000
1.960194e+003,6.135849e+000
1.961158e+003,7.713440e+000
1.962122e+003,8.593918e+000
1.963087e+003,7.047226e+000
1.964051e+003,5.641968e+000
1.965015e+003,6.477524e+000
1.965979e+003,7.764969e+000
1.966944e+003,7.089371e+000
1.967908e+003,5.517303e+000
1.968872e+003,5.741425e+000
1.969836e+003,7.663940e+000
1.970801e+003,8.557983e+000
1.971765e+003,7.366562e+000
1.972729e+003,6.391083e+000
1.973693e+003,7.778229e+000
1.974657e+003,9.805466e+000
1.975622e+003,9.739105e+000
1.976586e+003,8.279770e+000
1.977550e+003,7.186386e+000
1.978514e+003,6.591003e+000
1.979479e+003,6.940323e+000
1.980443e+003,8.198486e+000
1.981407e+003,9.102585e+000
1.982371e+003,9.228668e+000
1.983335e+003,8.522781e+000
1.984300e+003,6.646942e+000
1.985264e+003,5.185577e+000
1.986228e+003,7.003891e+000
1.987192e+003,1.102481e+001
1.988157e+003,1.143950e+001
1.989121e+003,7.156952e+000
1.990085e+003,5.100082e+000
1.991049e+003,6.319473e+000
1.992014e+003,7.740463e+000
1.992978e+003,9.547043e+000
1.993942e+003,1.066997e+001
1.994906e+003,1.037993e+001
1.995871e+003,9.673645e+000
1.996835e+003,9.243729e+000
1.997799e+003,8.933624e+000
1.998763e+003,8.107925e+000
1.999728e+003,7.028519e+000
