5.003444e+002,4.233708e+001
5.013087e+002,4.155324e+001
5.022729e+002,4.020863e+001
5.032371e+002,3.864713e+001
5.042014e+002,3.744048e+001
5.051656e+002,3.659567e+001
5.061298e+002,3.615955e+001
5.070941e+002,3.619243e+001
5.080583e+002,3.676050e+001
5.090225e+002,3.703644e+001
5.099868e+002,3.693755e+001
5.109510e+002,3.673349e+001
5.119152e+002,3.657938e+001
5.128795e+002,3.650038e+001
5.138437e+002,3.632996e+001
5.148079e+002,3.553249e+001
5.157722e+002,3.511790e+001
5.167364e+002,3.613933e+001
5.177006e+002,3.824091e+001
5.186649e+002,3.958095e+001
5.196291e+002,3.703169e+001
5.205933e+002,3.324271e+001
5.215576e+002,3.097627e+001
5.225218e+002,3.044324e+001
5.234860e+002,3.084955e+001
5.244503e+002,3.089799e+001
5.254145e+002,3.059091e+001
5.263787e+002,3.056116e+001
5.273430e+002,3.110797e+001
5.283072e+002,3.173424e+001
5.292714e+002,3.162135e+001
5.302357e+002,3.004254e+001
5.311999e+002,2.891069e+001
5.321641e+002,2.910077e+001
5.331284e+002,2.954012e+001
5.340926e+002,2.917111e+001
5.350568e+002,2.747975e+001
5.360211e+002,2.580566e+001
5.369853e+002,2.581171e+001
5.379495e+002,2.640509e+001
5.389138e+002,2.656865e+001
5.398780e+002,2.594362e+001
5.408422e+002,2.504565e+001
5.418065e+002,2.567337e+001
5.427707e+002,2.753471e+001
5.437349e+002,2.841968e+001
5.446992e+002,2.753999e+001
5.456634e+002,2.538748e+001
5.466276e+002,2.371909e+001
5.475919e+002,2.244681e+001
5.485561e+002,2.208400e+001
5.495203e+002,2.337627e+001
5.504846e+002,2.524269e+001
5.514488e+002,2.615002e+001
5.524130e+002,2.531665e+001
5.533773e+002,2.417938e+001
5.543415e+002,2.354597e+001
5.553057e+002,2.307584e+001
5.562700e+002,2.224698e+001
5.572342e+002,2.073483e+001
5.581984e+002,1.911618e+001
5.591627e+002,1.905316e+001
5.601269e+002,2.005930e+001
5.610911e+002,2.121495e+001
5.620554e+002,2.206099e+001
5.630196e+002,2.250676e+001
5.639838e+002,2.205984e+001
5.649481e+002,2.009592e+001
5.659123e+002,1.817900e+001
5.668765e+002,1.656537e+001
5.678408e+002,1.532024e+001
5.688050e+002,1.449312e+001
5.697692e+002,1.435645e+001
5.707335e+002,1.394418e+001
5.716977e+002,1.285426e+001
5.726619e+002,1.146198e+001
5.736262e+002,1.018150e+001
5.745904e+002,9.246094e+000
5.755546e+002,8.873093e+000
5.765189e+002,9.294281e+000
5.774831e+002,1.018932e+001
5.784473e+002,1.129443e+001
5.794116e+002,1.246611e+001
5.803758e+002,1.371252e+001
5.813400e+002,1.403709e+001
5.823043e+002,1.313890e+001
5.832685e+002,1.203815e+001
5.842327e+002,1.094090e+001
5.851970e+002,9.986725e+000
5.861612e+002,9.636765e+000
5.871254e+002,1.028809e+001
5.880897e+002,1.111386e+001
5.890539e+002,1.246869e+001
5.900181e+002,1.373701e+001
5.909824e+002,1.387187e+001
5.919466e+002,1.184323e+001
5.929108e+002,9.404236e+000
5.938751e+002,8.559219e+000
5.948393e+002,8.617691e+000
5.958035e+002,8.490417e+000
5.967678e+002,7.399612e+000
5.977320e+002,5.622070e+000
5.986962e+002,5.104965e+000
5.996605e+002,5.686111e+000
6.006247e+002,6.316650e+000
6.015889e+002,6.549545e+000
6.025532e+002,6.423431e+000
6.035174e+002,6.351425e+000
6.044816e+002,6.194824e+000
6.054459e+002,6.316650e+000
6.064101e+002,7.024918e+000
6.073743e+002,7.998978e+000
6.083386e+002,8.764542e+000
6.093028e+002,9.266571e+000
6.102670e+002,9.079254e+000
6.112313e+002,7.188828e+000
6.121955e+002,4.803711e+000
6.131597e+002,3.533127e+000
6.141240e+002,4.465851e+000
6.150882e+002,7.059692e+000
6.160524e+002,9.547867e+000
6.170167e+002,1.198412e+001
6.179809e+002,1.358669e+001
6.189451e+002,1.383490e+001
6.199094e+002,1.280956e+001
6.208736e+002,1.154063e+001
6.218378e+002,9.857056e+000
6.228021e+002,8.322128e+000
6.237663e+002,6.821823e+000
6.247305e+002,5.571472e+000
6.256948e+002,4.921051e+000
6.266590e+002,5.126129e+000
6.276232e+002,5.465256e+000
6.285875e+002,5.369568e+000
6.295517e+002,5.311295e+000
6.305159e+002,5.866669e+000
6.314802e+002,7.284973e+000
6.324444e+002,9.066086e+000
6.334086e+002,1.030447e+001
6.343729e+002,1.106508e+001
6.353371e+002,1.057159e+001
6.363013e+002,8.258469e+000
6.372656e+002,4.801483e+000
6.382298e+002,2.713257e+000
6.391940e+002,3.230499e+000
6.401583e+002,3.619232e+000
6.411225e+002,4.352295e+000
6.420867e+002,4.906662e+000
6.430510e+002,4.233658e+000
6.440152e+002,1.324371e+000
6.449794e+002,-6.279602e-001
6.459437e+002,1.067047e+000
6.469079e+002,3.476578e+000
6.478721e+002,4.107666e+000
6.488364e+002,2.268814e+000
6.498006e+002,-2.573547e-001
6.507648e+002,-8.392334e-004
6.517291e+002,1.903534e+000
6.526933e+002,2.564453e+000
6.536575e+002,1.359863e+000
6.546218e+002,-4.803467e-001
6.555860e+002,-4.823456e-001
6.565502e+002,3.055542e+000
6.575145e+002,4.669464e+000
6.584787e+002,3.279449e+000
6.594429e+002,1.129944e+000
6.604072e+002,-1.513824e-001
6.613714e+002,-3.155060e-001
6.623356e+002,2.455139e-002
6.632999e+002,8.748322e-001
6.642641e+002,1.753677e+000
6.652283e+002,2.673508e+000
6.661926e+002,3.527863e+000
6.671568e+002,4.006683e+000
6.681210e+002,3.470001e+000
6.690853e+002,2.376801e+000
6.700495e+002,2.240204e+000
6.710137e+002,3.021698e+000
6.719780e+002,3.741348e+000
6.729422e+002,3.255615e+000
6.739064e+002,1.132431e+000
6.748707e+002,2.440643e-001
6.758349e+002,1.281708e+000
6.767991e+002,2.323181e+000
6.777634e+002,2.715836e+000
6.787276e+002,2.545944e+000
6.796918e+002,2.182144e+000
6.806561e+002,1.014236e+000
6.816203e+002,3.480835e-001
6.825845e+002,9.426880e-001
6.835488e+002,2.334900e+000
6.845130e+002,3.904678e+000
6.854772e+002,5.292847e+000
6.864415e+002,6.245209e+000
6.874057e+002,6.012680e+000
6.883699e+002,4.803665e+000
6.893342e+002,3.068649e+000
6.902984e+002,9.712524e-001
6.912626e+002,-1.181183e+000
6.922269e+002,-1.484924e+000
6.931911e+002,2.969467e+000
6.941553e+002,5.551315e+000
6.951196e+002,4.264496e+000
6.960838e+002,1.151840e+000
6.970480e+002,-2.775574e-001
6.980123e+002,1.623825e+000
6.989765e+002,2.953369e+000
6.999407e+002,1.509598e+000
7.009050e+002,-6.576691e-001
7.018692e+002,-2.223068e+000
7.028334e+002,-2.606720e+000
7.037977e+002,-1.833954e+000
7.047619e+002,1.122025e+000
7.057261e+002,4.963196e+000
7.066904e+002,6.551590e+000
7.076546e+002,5.370255e+000
7.086188e+002,3.047485e+000
7.095831e+002,2.148987e+000
7.105473e+002,3.186493e+000
7.115115e+002,4.014038e+000
7.124758e+002,4.981918e+000
7.134400e+002,5.411011e+000
7.144042e+002,4.617599e+000
7.153685e+002,2.677872e+000
7.163327e+002,1.136520e+000
7.172969e+002,1.098099e+000
7.182612e+002,1.288376e+000
7.192254e+002,1.143417e+000
7.201896e+002,7.715759e-001
7.211539e+002,5.785522e-001
7.221181e+002,9.416504e-001
7.230823e+002,1.614120e+000
7.240466e+002,1.896652e+000
7.250108e+002,1.952347e+000
7.259750e+002,2.082291e+000
7.269393e+002,2.375946e+000
7.279035e+002,2.719894e+000
7.288677e+002,3.007599e+000
7.298320e+002,3.510895e+000
7.307962e+002,4.018967e+000
7.317604e+002,4.497498e+000
7.327247e+002,5.008728e+000
7.336889e+002,5.692383e+000
7.346531e+002,6.652710e+000
7.356174e+002,6.847305e+000
7.365816e+002,5.447159e+000
7.375458e+002,3.742691e+000
7.385101e+002,2.675659e+000
7.394743e+002,2.482544e+000
7.404385e+002,2.687241e+000
7.414028e+002,2.509323e+000
7.423670e+002,1.932205e+000
7.433312e+002,1.732773e+000
7.442955e+002,2.104401e+000
7.452597e+002,3.053619e+000
7.462239e+002,4.844101e+000
7.471882e+002,8.094650e+000
7.481524e+002,9.060684e+000
7.491166e+002,5.499924e+000
7.500809e+002,2.354279e+000
7.510451e+002,1.887375e+000
7.520093e+002,3.489670e+000
7.529736e+002,4.522598e+000
7.539378e+002,3.415222e+000
7.549020e+002,2.264069e+000
7.558663e+002,2.481598e+000
7.568306e+002,3.450104e+000
7.577948e+002,4.363785e+000
7.587590e+002,4.680954e+000
7.597233e+002,4.416718e+000
7.606875e+002,3.677795e+000
7.616517e+002,2.595520e+000
7.626160e+002,1.350082e+000
7.635802e+002,-3.359375e-001
7.645444e+002,-1.787033e+000
7.655087e+002,-1.312469e+000
7.664729e+002,2.805237e+000
7.674371e+002,4.925964e+000
7.684014e+002,3.645828e+000
7.693656e+002,1.626801e+000
7.703298e+002,2.672424e-001
7.712941e+002,-1.266785e-001
7.722583e+002,3.072205e-001
7.732225e+002,2.354355e+000
7.741868e+002,4.354843e+000
7.751510e+002,4.825775e+000
7.761152e+002,4.116074e+000
7.770795e+002,3.194839e+000
7.780437e+002,2.898071e+000
7.790079e+002,3.158127e+000
7.799722e+002,3.753036e+000
7.809364e+002,4.681320e+000
7.819006e+002,5.609451e+000
7.828649e+002,6.523819e+000
7.838291e+002,7.444778e+000
7.847933e+002,8.356079e+000
7.857576e+002,9.647476e+000
7.867218e+002,9.798065e+000
7.876860e+002,8.131912e+000
7.886503e+002,5.908386e+000
7.896145e+002,3.879211e+000
7.905787e+002,2.338333e+000
7.915430e+002,1.531128e+000
7.925072e+002,1.954453e+000
7.934714e+002,3.051010e+000
7.944357e+002,4.940765e+000
7.953999e+002,7.306061e+000
7.963641e+002,8.780304e+000
7.973284e+002,7.683151e+000
7.982926e+002,3.763962e+000
7.992568e+002,2.300507e+000
8.002211e+002,4.057343e+000
8.011853e+002,5.747009e+000
8.021495e+002,6.508148e+000
8.031138e+002,6.551743e+000
8.040780e+002,6.175735e+000
8.050422e+002,5.075363e+000
8.060065e+002,3.771942e+000
8.069707e+002,1.325897e+000
8.079349e+002,-6.976318e-001
8.088992e+002,-3.453064e-001
8.098634e+002,2.909897e+000
8.108276e+002,7.214828e+000
8.117919e+002,1.043427e+001
8.127561e+002,1.222565e+001
8.137203e+002,1.182271e+001
8.146846e+002,9.299042e+000
8.156488e+002,6.255447e+000
8.166130e+002,4.618378e+000
8.175773e+002,4.679672e+000
8.185415e+002,4.178436e+000
8.195057e+002,1.935852e+000
8.204700e+002,4.698639e-001
8.214342e+002,1.275223e+000
8.223984e+002,3.507339e+000
8.233627e+002,4.857849e+000
8.243269e+002,4.290039e+000
8.252911e+002,3.284225e+000
8.262554e+002,2.235901e+000
8.272196e+002,1.551651e+000
8.281838e+002,1.802292e+000
8.291481e+002,3.088379e+000
8.301123e+002,4.896057e+000
8.310765e+002,6.476700e+000
8.320408e+002,7.672440e+000
8.330050e+002,7.801804e+000
8.339692e+002,6.637054e+000
8.349335e+002,5.065674e+000
8.358977e+002,3.948807e+000
8.368619e+002,3.362289e+000
8.378262e+002,3.063202e+000
8.387904e+002,3.046524e+000
8.397546e+002,3.154968e+000
8.407189e+002,3.616989e+000
8.416831e+002,4.134293e+000
8.426473e+002,4.056686e+000
8.436116e+002,2.914703e+000
8.445758e+002,1.984772e+000
8.455400e+002,2.771591e+000
8.465043e+002,4.229431e+000
8.474685e+002,5.443985e+000
8.484327e+002,6.181778e+000
8.493970e+002,6.658951e+000
8.503612e+002,7.116074e+000
8.513254e+002,7.528275e+000
8.522897e+002,7.620880e+000
8.532539e+002,7.172760e+000
8.542181e+002,6.613480e+000
8.551824e+002,5.957214e+000
8.561466e+002,5.422958e+000
8.571108e+002,6.160812e+000
8.580751e+002,9.708450e+000
8.590393e+002,1.233476e+001
8.600035e+002,1.256630e+001
8.609678e+002,1.162350e+001
8.619320e+002,1.081064e+001
8.628962e+002,1.067065e+001
8.638605e+002,1.077434e+001
8.648247e+002,1.034952e+001
8.657889e+002,9.754929e+000
8.667532e+002,9.944992e+000
8.677174e+002,1.104048e+001
8.686816e+002,1.234801e+001
8.696459e+002,1.313640e+001
8.706101e+002,1.342984e+001
8.715743e+002,1.333836e+001
8.725386e+002,1.175070e+001
8.735028e+002,1.121216e+001
8.744670e+002,1.336848e+001
8.754313e+002,1.664114e+001
8.763955e+002,1.778412e+001
8.773597e+002,1.503178e+001
8.783240e+002,1.280545e+001
8.792882e+002,1.520119e+001
8.802524e+002,1.884007e+001
8.812167e+002,2.095979e+001
8.821809e+002,2.095052e+001
8.831451e+002,1.976811e+001
8.841094e+002,1.859085e+001
8.850736e+002,1.753976e+001
8.860378e+002,1.719763e+001
8.870021e+002,1.762941e+001
8.879663e+002,1.818297e+001
8.889305e+002,1.847084e+001
8.898948e+002,1.852209e+001
8.908590e+002,1.856110e+001
8.918232e+002,1.808856e+001
8.927875e+002,1.876949e+001
8.937517e+002,2.226904e+001
8.947159e+002,2.597327e+001
8.956802e+002,2.729204e+001
8.966444e+002,2.586470e+001
8.976086e+002,2.397766e+001
8.985729e+002,2.400989e+001
8.995371e+002,2.518671e+001
9.005013e+002,2.608760e+001
9.014656e+002,2.671288e+001
9.024298e+002,2.714297e+001
9.033940e+002,2.735884e+001
9.043583e+002,2.730887e+001
9.053225e+002,2.721535e+001
9.062867e+002,2.731512e+001
9.072510e+002,2.686182e+001
9.082152e+002,2.539458e+001
9.091794e+002,2.388910e+001
9.101437e+002,2.328185e+001
9.111079e+002,2.371474e+001
9.120721e+002,2.453105e+001
9.130364e+002,2.575099e+001
9.140006e+002,2.672580e+001
9.149648e+002,2.707950e+001
9.159291e+002,2.701306e+001
9.168933e+002,2.686435e+001
9.178575e+002,2.682788e+001
9.188218e+002,2.681458e+001
9.197860e+002,2.670905e+001
9.207502e+002,2.647594e+001
9.217145e+002,2.603465e+001
9.226787e+002,2.550276e+001
9.236429e+002,2.486644e+001
9.246072e+002,2.379230e+001
9.255714e+002,2.192754e+001
9.265356e+002,2.110788e+001
9.274999e+002,2.255750e+001
9.284641e+002,2.399545e+001
9.294283e+002,2.495444e+001
9.303926e+002,2.534444e+001
9.313568e+002,2.504478e+001
9.323210e+002,2.393890e+001
9.332853e+002,2.262119e+001
9.342495e+002,2.231000e+001
9.352137e+002,2.236153e+001
9.361780e+002,2.190828e+001
9.371422e+002,2.082439e+001
9.381064e+002,1.922449e+001
9.390707e+002,1.697548e+001
9.400349e+002,1.357710e+001
9.409991e+002,1.229967e+001
9.419634e+002,1.427840e+001
9.429276e+002,1.653900e+001
9.438918e+002,1.909795e+001
9.448561e+002,2.124768e+001
9.458203e+002,2.159225e+001
9.467845e+002,1.941383e+001
9.477488e+002,1.728133e+001
9.487130e+002,1.730316e+001
9.496772e+002,1.800397e+001
9.506415e+002,1.823030e+001
9.516057e+002,1.795935e+001
9.525699e+002,1.803011e+001
9.535342e+002,1.929654e+001
9.544984e+002,2.138194e+001
9.554626e+002,2.096822e+001
9.564269e+002,1.767345e+001
9.573911e+002,1.504478e+001
9.583553e+002,1.409601e+001
9.593196e+002,1.425804e+001
9.602838e+002,1.484406e+001
9.612480e+002,1.602550e+001
9.622123e+002,1.662097e+001
9.631765e+002,1.553992e+001
9.641407e+002,1.462633e+001
9.651050e+002,1.512106e+001
9.660692e+002,1.636838e+001
9.670334e+002,1.678523e+001
9.679977e+002,1.541301e+001
9.689619e+002,1.344286e+001
9.699261e+002,1.352934e+001
9.708904e+002,1.492496e+001
9.718546e+002,1.562959e+001
9.728188e+002,1.497443e+001
9.737831e+002,1.433131e+001
9.747473e+002,1.588463e+001
9.757115e+002,2.031882e+001
9.766758e+002,2.339227e+001
9.776400e+002,2.482741e+001
9.786042e+002,2.538881e+001
9.795685e+002,2.496750e+001
9.805327e+002,2.372318e+001
9.814969e+002,2.166347e+001
9.824612e+002,1.884630e+001
9.834254e+002,1.620030e+001
9.843896e+002,1.453583e+001
9.853539e+002,1.345009e+001
9.863181e+002,1.272713e+001
9.872823e+002,1.220424e+001
9.882466e+002,1.165547e+001
9.892108e+002,1.099287e+001
9.901750e+002,1.031454e+001
9.911393e+002,9.436966e+000
9.921035e+002,7.448334e+000
9.930677e+002,6.301559e+000
9.940320e+002,6.503036e+000
9.949962e+002,7.419968e+000
9.959604e+002,8.901566e+000
9.969247e+002,1.084459e+001
9.978889e+002,1.179210e+001
9.988531e+002,9.692841e+000
9.998174e+002,7.848312e+000
1.000782e+003,8.946655e+000
1.001746e+003,1.149265e+001
1.002710e+003,1.323578e+001
1.003674e+003,1.316225e+001
1.004639e+003,1.197420e+001
1.005603e+003,1.086932e+001
1.006567e+003,9.818222e+000
1.007531e+003,8.744888e+000
1.008495e+003,7.484863e+000
1.009460e+003,6.533508e+000
1.010424e+003,6.541580e+000
1.011388e+003,7.191376e+000
1.012352e+003,6.935486e+000
1.013317e+003,4.626266e+000
1.014281e+003,3.336655e+000
1.015245e+003,4.592545e+000
1.016209e+003,6.374771e+000
1.017174e+003,7.434067e+000
1.018138e+003,7.569000e+000
1.019102e+003,7.221252e+000
1.020066e+003,6.758087e+000
1.021031e+003,6.162170e+000
1.021995e+003,4.940887e+000
1.022959e+003,3.189651e+000
1.023923e+003,2.163971e+000
1.024887e+003,2.649719e+000
1.025852e+003,3.352020e+000
1.026816e+003,1.906952e+000
1.027780e+003,-2.363403e+000
1.028744e+003,-5.223022e+000
1.029709e+003,-5.642258e+000
1.030673e+003,-5.519089e+000
1.031637e+003,-5.361694e+000
1.032601e+003,-5.052383e+000
1.033566e+003,-4.096832e+000
1.034530e+003,-2.333252e+000
1.035494e+003,-6.921234e-001
1.036458e+003,-2.515106e-001
1.037422e+003,-6.910706e-001
1.038387e+003,-1.865448e+000
1.039351e+003,-3.560196e+000
1.040315e+003,-4.314026e+000
1.041279e+003,-2.858429e+000
1.042244e+003,2.819977e-001
1.043208e+003,2.369812e+000
1.044172e+003,3.155701e+000
1.045136e+003,2.894592e+000
1.046101e+003,5.143433e-001
1.047065e+003,-1.677444e+000
1.048029e+003,-2.082214e+000
1.048993e+003,-9.839325e-001
1.049958e+003,2.900543e-001
1.050922e+003,1.347046e+000
1.051886e+003,1.981491e+000
1.052850e+003,1.345200e+000
1.053814e+003,4.686127e-001
1.054779e+003,1.197449e+000
1.055743e+003,3.641220e+000
1.056707e+003,5.672058e+000
1.057671e+003,4.599472e+000
1.058636e+003,3.781128e-001
1.059600e+003,-1.475708e+000
1.060564e+003,1.002823e+000
1.061528e+003,3.066086e+000
1.062493e+003,3.947281e+000
1.063457e+003,4.071594e+000
1.064421e+003,3.901733e+000
1.065385e+003,3.534073e+000
1.066349e+003,2.853500e+000
1.067314e+003,1.211838e+000
1.068278e+003,-1.136780e-002
1.069242e+003,5.726166e-001
1.070206e+003,2.088913e+000
1.071171e+003,3.116394e+000
1.072135e+003,3.021088e+000
1.073099e+003,2.240570e+000
1.074063e+003,1.541397e+000
1.075028e+003,9.369965e-001
1.075992e+003,9.123077e-001
1.076956e+003,1.976944e+000
1.077920e+003,2.546951e+000
1.078885e+003,1.782654e+000
1.079849e+003,3.599396e-001
1.080813e+003,-6.733704e-001
1.081777e+003,-1.233505e+000
1.082741e+003,-1.032166e+000
1.083706e+003,7.692566e-001
1.084670e+003,2.633636e+000
1.085634e+003,3.848816e+000
1.086598e+003,4.436478e+000
1.087563e+003,4.581970e+000
1.088527e+003,4.456421e+000
1.089491e+003,4.259933e+000
1.090455e+003,4.287766e+000
1.091420e+003,4.503281e+000
1.092384e+003,4.335724e+000
1.093348e+003,3.701691e+000
1.094312e+003,2.730286e+000
1.095276e+003,1.208160e+000
1.096241e+003,-4.850006e-001
1.097205e+003,-1.063004e+000
1.098169e+003,2.785797e-001
1.099133e+003,5.942535e-001
1.100098e+003,-2.926987e+000
1.101062e+003,-6.107651e+000
1.102026e+003,-5.838364e+000
1.102990e+003,-3.011658e+000
1.103955e+003,-2.360840e-001
1.104919e+003,8.747559e-001
1.105883e+003,8.322601e-001
1.106847e+003,6.843109e-001
1.107812e+003,4.144135e-001
1.108776e+003,1.322479e-001
1.109740e+003,-1.627655e-001
1.110704e+003,-4.581909e-001
1.111668e+003,-7.446289e-001
1.112633e+003,-9.343109e-001
1.113597e+003,-7.379761e-001
1.114561e+003,3.132782e-001
1.115525e+003,5.002747e-001
1.116490e+003,-1.847641e+000
1.117454e+003,-4.054260e+000
1.118418e+003,-3.834534e+000
1.119382e+003,-1.895676e+000
1.120347e+003,-6.254578e-001
1.121311e+003,-1.548752e+000
1.122275e+003,-3.622269e+000
1.123239e+003,-4.693314e+000
1.124203e+003,-4.630417e+000
1.125168e+003,-3.525909e+000
1.126132e+003,-7.943115e-001
1.127096e+003,1.525497e+000
1.128060e+003,1.434296e+000
1.129025e+003,-5.272980e-001
1.129989e+003,-1.689377e+000
1.130953e+003,-1.900726e+000
1.131917e+003,-1.264801e+000
1.132882e+003,1.130539e+000
1.133846e+003,3.378525e+000
1.134810e+003,4.434311e+000
1.135774e+003,4.347610e+000
1.136739e+003,3.302002e+000
1.137703e+003,1.437607e+000
1.138667e+003,-3.443909e-001
1.139631e+003,-3.109589e-001
1.140595e+003,1.387466e+000
1.141560e+003,3.041870e+000
1.142524e+003,4.738510e+000
1.143488e+003,6.064423e+000
1.144452e+003,5.992249e+000
1.145417e+003,5.263824e+000
1.146381e+003,6.923828e+000
1.147345e+003,1.219624e+001
1.148309e+003,1.667694e+001
1.149274e+003,1.933148e+001
1.150238e+003,2.104248e+001
1.151202e+003,2.171666e+001
1.152166e+003,2.197675e+001
1.153130e+003,2.277420e+001
1.154095e+003,2.445247e+001
1.155059e+003,2.623843e+001
1.156023e+003,2.710628e+001
1.156987e+003,2.722272e+001
1.157952e+003,2.802762e+001
1.158916e+003,3.011461e+001
1.159880e+003,3.051241e+001
1.160844e+003,2.647842e+001
1.161809e+003,1.977736e+001
1.162773e+003,1.447746e+001
1.163737e+003,1.068980e+001
1.164701e+003,7.945053e+000
1.165666e+003,6.823395e+000
1.166630e+003,6.152969e+000
1.167594e+003,5.657974e+000
1.168558e+003,5.281235e+000
1.169522e+003,5.099091e+000
1.170487e+003,5.089828e+000
1.171451e+003,4.986267e+000
1.172415e+003,4.404602e+000
1.173379e+003,3.523712e+000
1.174344e+003,3.615891e+000
1.175308e+003,4.799164e+000
1.176272e+003,5.394592e+000
1.177236e+003,4.489059e+000
1.178201e+003,3.071609e+000
1.179165e+003,2.425690e+000
1.180129e+003,2.505569e+000
1.181093e+003,2.263000e+000
1.182057e+003,1.390762e+000
1.183022e+003,3.725433e-001
1.183986e+003,-8.811340e-001
1.184950e+003,-1.979446e+000
1.185914e+003,-2.622787e+000
1.186879e+003,-2.706390e+000
1.187843e+003,-2.085434e+000
1.188807e+003,-6.358948e-001
1.189771e+003,1.152420e+000
1.190736e+003,1.817413e+000
1.191700e+003,1.219193e+000
1.192664e+003,7.883911e-001
1.193628e+003,1.046158e+000
1.194593e+003,1.064957e+000
1.195557e+003,-2.212830e-001
1.196521e+003,-2.331329e+000
1.197485e+003,-3.340286e+000
1.198449e+003,-2.479126e+000
1.199414e+003,-2.007278e+000
1.200378e+003,-3.347656e+000
1.201342e+003,-5.030548e+000
1.202306e+003,-6.637589e+000
1.203271e+003,-7.804138e+000
1.204235e+003,-7.878342e+000
1.205199e+003,-6.625229e+000
1.206163e+003,-4.780838e+000
1.207128e+003,-3.551300e+000
1.208092e+003,-2.951965e+000
1.209056e+003,-3.050446e+000
1.210020e+003,-4.085541e+000
1.210984e+003,-5.177490e+000
1.211949e+003,-6.137665e+000
1.212913e+003,-7.019913e+000
1.213877e+003,-7.871063e+000
1.214841e+003,-8.673569e+000
1.215806e+003,-9.349472e+000
1.216770e+003,-9.787140e+000
1.217734e+003,-1.026016e+001
1.218698e+003,-1.104131e+001
1.219663e+003,-1.196835e+001
1.220627e+003,-1.315921e+001
1.221591e+003,-1.437167e+001
1.222555e+003,-1.454694e+001
1.223520e+003,-1.261523e+001
1.224484e+003,-9.278839e+000
1.225448e+003,-8.052658e+000
1.226412e+003,-1.021136e+001
1.227376e+003,-1.182843e+001
1.228341e+003,-1.281494e+001
1.229305e+003,-1.343610e+001
1.230269e+003,-1.379088e+001
1.231233e+003,-1.389911e+001
1.232198e+003,-1.365959e+001
1.233162e+003,-1.299030e+001
1.234126e+003,-1.234262e+001
1.235090e+003,-1.195897e+001
1.236055e+003,-1.196216e+001
1.237019e+003,-1.285204e+001
1.237983e+003,-1.418745e+001
1.238947e+003,-1.456770e+001
1.239911e+003,-1.339578e+001
1.240876e+003,-1.199223e+001
1.241840e+003,-1.255957e+001
1.242804e+003,-1.529372e+001
1.243768e+003,-1.632098e+001
1.244733e+003,-1.347652e+001
1.245697e+003,-1.174869e+001
1.246661e+003,-1.266502e+001
1.247625e+003,-1.390143e+001
1.248590e+003,-1.351468e+001
1.249554e+003,-1.179132e+001
1.250518e+003,-1.020270e+001
1.251482e+003,-9.421127e+000
1.252447e+003,-9.225143e+000
1.253411e+003,-9.465515e+000
1.254375e+003,-9.962067e+000
1.255339e+003,-1.039935e+001
1.256303e+003,-1.073286e+001
1.257268e+003,-1.100986e+001
1.258232e+003,-1.121747e+001
1.259196e+003,-1.160284e+001
1.260160e+003,-1.284004e+001
1.261125e+003,-1.519264e+001
1.262089e+003,-1.630624e+001
1.263053e+003,-1.510204e+001
1.264017e+003,-1.373831e+001
1.264982e+003,-1.247250e+001
1.265946e+003,-1.140442e+001
1.266910e+003,-1.067909e+001
1.267874e+003,-1.022084e+001
1.268839e+003,-9.723343e+000
1.269803e+003,-8.979034e+000
1.270767e+003,-8.210617e+000
1.271731e+003,-7.757263e+000
1.272695e+003,-7.650635e+000
1.273660e+003,-8.447815e+000
1.274624e+003,-1.082907e+001
1.275588e+003,-1.261557e+001
1.276552e+003,-1.195627e+001
1.277517e+003,-1.010165e+001
1.278481e+003,-9.555847e+000
1.279445e+003,-1.056046e+001
1.280409e+003,-1.161096e+001
1.281374e+003,-1.251930e+001
1.282338e+003,-1.292865e+001
1.283302e+003,-1.245456e+001
1.284266e+003,-1.158121e+001
1.285230e+003,-1.065042e+001
1.286195e+003,-9.891449e+000
1.287159e+003,-9.694916e+000
1.288123e+003,-1.036325e+001
1.289087e+003,-1.137169e+001
1.290052e+003,-1.116592e+001
1.291016e+003,-9.033142e+000
1.291980e+003,-8.572586e+000
1.292944e+003,-1.113145e+001
1.293909e+003,-1.357399e+001
1.294873e+003,-1.447620e+001
1.295837e+003,-1.459116e+001
1.296801e+003,-1.523223e+001
1.297766e+003,-1.646838e+001
1.298730e+003,-1.673205e+001
1.299694e+003,-1.481553e+001
1.300658e+003,-1.242586e+001
1.301622e+003,-1.136739e+001
1.302587e+003,-1.109460e+001
1.303551e+003,-1.092345e+001
1.304515e+003,-1.067226e+001
1.305479e+003,-1.025330e+001
1.306444e+003,-9.573273e+000
1.307408e+003,-8.810944e+000
1.308372e+003,-8.444031e+000
1.309336e+003,-8.420990e+000
1.310301e+003,-9.000977e+000
1.311265e+003,-1.119298e+001
1.312229e+003,-1.266133e+001
1.313193e+003,-1.219716e+001
1.314157e+003,-1.104242e+001
1.315122e+003,-1.053275e+001
1.316086e+003,-1.080351e+001
1.317050e+003,-1.112161e+001
1.318014e+003,-1.098209e+001
1.318979e+003,-1.057509e+001
1.319943e+003,-1.026790e+001
1.320907e+003,-1.001666e+001
1.321871e+003,-9.676193e+000
1.322836e+003,-9.286102e+000
1.323800e+003,-8.962204e+000
1.324764e+003,-8.792603e+000
1.325728e+003,-8.686859e+000
1.326693e+003,-8.509232e+000
1.327657e+003,-8.290848e+000
1.328621e+003,-8.122437e+000
1.329585e+003,-7.707336e+000
1.330549e+003,-7.523514e+000
1.331514e+003,-8.044052e+000
1.332478e+003,-8.963226e+000
1.333442e+003,-1.035324e+001
1.334406e+003,-1.177898e+001
1.335371e+003,-1.203716e+001
1.336335e+003,-1.046838e+001
1.337299e+003,-8.299637e+000
1.338263e+003,-7.921829e+000
1.339228e+003,-9.556107e+000
1.340192e+003,-1.089883e+001
1.341156e+003,-1.276991e+001
1.342120e+003,-1.320504e+001
1.343084e+003,-1.059808e+001
1.344049e+003,-7.752884e+000
1.345013e+003,-7.243103e+000
1.345977e+003,-8.414108e+000
1.346941e+003,-8.768295e+000
1.347906e+003,-7.373047e+000
1.348870e+003,-5.713440e+000
1.349834e+003,-5.141937e+000
1.350798e+003,-5.281082e+000
1.351763e+003,-5.214081e+000
1.352727e+003,-4.991425e+000
1.353691e+003,-5.069931e+000
1.354655e+003,-5.651566e+000
1.355620e+003,-6.425446e+000
1.356584e+003,-6.956924e+000
1.357548e+003,-7.284393e+000
1.358512e+003,-8.115784e+000
1.359476e+003,-1.015950e+001
1.360441e+003,-1.112827e+001
1.361405e+003,-9.358109e+000
1.362369e+003,-7.515182e+000
1.363333e+003,-7.035614e+000
1.364298e+003,-7.231583e+000
1.365262e+003,-6.690109e+000
1.366226e+003,-5.335449e+000
1.367190e+003,-4.875076e+000
1.368155e+003,-6.884430e+000
1.369119e+003,-1.019522e+001
1.370083e+003,-1.101854e+001
1.371047e+003,-8.502914e+000
1.372011e+003,-6.805908e+000
1.372976e+003,-5.980789e+000
1.373940e+003,-5.989410e+000
1.374904e+003,-7.709290e+000
1.375868e+003,-9.625000e+000
1.376833e+003,-9.458344e+000
1.377797e+003,-7.376022e+000
1.378761e+003,-6.009628e+000
1.379725e+003,-6.668701e+000
1.380690e+003,-7.624405e+000
1.381654e+003,-6.435867e+000
1.382618e+003,-4.752686e+000
1.383582e+003,-5.664307e+000
1.384547e+003,-8.778229e+000
1.385511e+003,-1.004716e+001
1.386475e+003,-7.095047e+000
1.387439e+003,-2.671448e+000
1.388403e+003,-8.708038e-001
1.389368e+003,-1.695877e+000
1.390332e+003,-3.170532e+000
1.391296e+003,-6.092407e+000
1.392260e+003,-7.815735e+000
1.393225e+003,-7.198944e+000
1.394189e+003,-6.013565e+000
1.395153e+003,-4.909454e+000
1.396117e+003,-4.047913e+000
1.397082e+003,-3.405472e+000
1.398046e+003,-3.013931e+000
1.399010e+003,-3.080841e+000
1.399974e+003,-3.848969e+000
1.400938e+003,-5.219696e+000
1.401903e+003,-6.711273e+000
1.402867e+003,-8.297379e+000
1.403831e+003,-9.152649e+000
1.404795e+003,-9.562454e+000
1.405760e+003,-9.087997e+000
1.406724e+003,-6.650925e+000
1.407688e+003,-4.112091e+000
1.408652e+003,-3.637558e+000
1.409617e+003,-5.061844e+000
1.410581e+003,-7.001266e+000
1.411545e+003,-9.148041e+000
1.412509e+003,-1.044713e+001
1.413474e+003,-9.418442e+000
1.414438e+003,-7.221909e+000
1.415402e+003,-5.327393e+000
1.416366e+003,-3.840271e+000
1.417330e+003,-3.457947e+000
1.418295e+003,-4.657150e+000
1.419259e+003,-6.271027e+000
1.420223e+003,-7.100555e+000
1.421187e+003,-7.238937e+000
1.422152e+003,-6.886703e+000
1.423116e+003,-5.693558e+000
1.424080e+003,-4.943771e+000
1.425044e+003,-5.473892e+000
1.426009e+003,-6.143021e+000
1.426973e+003,-6.593933e+000
1.427937e+003,-6.865646e+000
1.428901e+003,-7.081848e+000
1.429865e+003,-7.166763e+000
1.430830e+003,-6.794373e+000
1.431794e+003,-5.795013e+000
1.432758e+003,-4.584564e+000
1.433722e+003,-3.894730e+000
1.434687e+003,-3.642227e+000
1.435651e+003,-3.647339e+000
1.436615e+003,-4.812897e+000
1.437579e+003,-5.340469e+000
1.438544e+003,-4.251663e+000
1.439508e+003,-3.255493e+000
1.440472e+003,-3.763901e+000
1.441436e+003,-5.023117e+000
1.442401e+003,-5.527328e+000
1.443365e+003,-4.957764e+000
1.444329e+003,-4.037003e+000
1.445293e+003,-3.136795e+000
1.446257e+003,-2.553024e+000
1.447222e+003,-3.221283e+000
1.448186e+003,-4.846649e+000
1.449150e+003,-5.765091e+000
1.450114e+003,-5.863190e+000
1.451079e+003,-5.257309e+000
1.452043e+003,-3.320663e+000
1.453007e+003,-1.098404e+000
1.453971e+003,-6.842041e-002
1.454936e+003,-1.916046e-001
1.455900e+003,-9.231415e-001
1.456864e+003,-2.395905e+000
1.457828e+003,-3.473419e+000
1.458792e+003,-3.091522e+000
1.459757e+003,-2.493896e+000
1.460721e+003,-2.835770e+000
1.461685e+003,-3.703766e+000
1.462649e+003,-4.203964e+000
1.463614e+003,-4.063416e+000
1.464578e+003,-3.492737e+000
1.465542e+003,-2.621124e+000
1.466506e+003,-1.659668e+000
1.467471e+003,-1.074081e+000
1.468435e+003,-7.020569e-001
1.469399e+003,-1.142395e+000
1.470363e+003,-3.790298e+000
1.471328e+003,-5.453506e+000
1.472292e+003,-5.115616e+000
1.473256e+003,-4.030838e+000
1.474220e+003,-2.420609e+000
1.475184e+003,-8.654022e-001
1.476149e+003,-4.203796e-001
1.477113e+003,-1.308762e+000
1.478077e+003,-2.463348e+000
1.479041e+003,-2.796677e+000
1.480006e+003,-2.505554e+000
1.480970e+003,-2.383194e+000
1.481934e+003,-2.646515e+000
1.482898e+003,-2.422562e+000
1.483863e+003,-1.176102e+000
1.484827e+003,-2.839966e-001
1.485791e+003,-1.199036e-001
1.486755e+003,-3.355865e-001
1.487719e+003,-8.830872e-001
1.488684e+003,-1.568222e+000
1.489648e+003,-1.976410e+000
1.490612e+003,-1.936661e+000
1.491576e+003,-1.383133e+000
1.492541e+003,-1.173706e-001
1.493505e+003,1.359695e+000
1.494469e+003,1.818039e+000
1.495433e+003,1.378311e+000
1.496398e+003,1.200897e+000
1.497362e+003,1.587952e+000
1.498326e+003,2.063828e+000
1.499290e+003,1.803131e+000
1.500255e+003,1.880066e+000
1.501219e+003,4.423309e+000
1.502183e+003,8.824020e+000
1.503147e+003,1.139211e+001
1.504111e+003,1.103477e+001
1.505076e+003,1.031073e+001
1.506040e+003,1.073007e+001
1.507004e+003,1.141544e+001
1.507968e+003,1.077362e+001
1.508933e+003,9.901093e+000
1.509897e+003,1.151256e+001
1.510861e+003,1.604105e+001
1.511825e+003,2.058537e+001
1.512790e+003,2.285120e+001
1.513754e+003,2.417903e+001
1.514718e+003,2.749953e+001
1.515682e+003,3.274133e+001
1.516646e+003,3.691643e+001
1.517611e+003,3.977780e+001
1.518575e+003,4.182574e+001
1.519539e+003,4.291814e+001
1.520503e+003,4.367119e+001
1.521468e+003,4.426448e+001
1.522432e+003,4.470805e+001
1.523396e+003,4.515645e+001
1.524360e+003,4.547215e+001
1.525325e+003,4.515080e+001
1.526289e+003,4.387596e+001
1.527253e+003,4.191672e+001
1.528217e+003,3.968463e+001
1.529182e+003,3.722467e+001
1.530146e+003,3.477602e+001
1.531110e+003,3.284204e+001
1.532074e+003,2.982591e+001
1.533039e+003,2.414276e+001
1.534003e+003,1.895262e+001
1.534967e+003,1.605460e+001
1.535931e+003,1.433607e+001
1.536896e+003,1.251651e+001
1.537860e+003,1.045773e+001
1.538824e+003,8.430466e+000
1.539788e+003,6.616516e+000
1.540752e+003,5.744507e+000
1.541717e+003,7.030014e+000
1.542681e+003,9.851273e+000
1.543645e+003,1.000232e+001
1.544609e+003,5.766907e+000
1.545573e+003,3.439545e+000
1.546538e+003,4.213776e+000
1.547502e+003,5.056549e+000
1.548466e+003,4.898849e+000
1.549430e+003,4.447998e+000
1.550395e+003,4.294159e+000
1.551359e+003,4.463074e+000
1.552323e+003,4.955475e+000
1.553287e+003,5.734802e+000
1.554252e+003,6.299698e+000
1.555216e+003,6.191620e+000
1.556180e+003,5.579529e+000
1.557144e+003,4.728500e+000
1.558109e+003,3.662430e+000
1.559073e+003,3.237503e+000
1.560037e+003,3.906082e+000
1.561001e+003,4.064148e+000
1.561966e+003,2.877594e+000
1.562930e+003,1.438599e+000
1.563894e+003,5.264893e-001
1.564858e+003,1.304474e-001
1.565823e+003,1.249695e-001
1.566787e+003,4.809265e-001
1.567751e+003,1.399933e+000
1.568715e+003,3.182938e+000
1.569679e+003,5.114243e+000
1.570644e+003,6.448944e+000
1.571608e+003,7.069199e+000
1.572572e+003,6.582596e+000
1.573536e+003,4.981094e+000
1.574500e+003,4.189682e+000
1.575465e+003,5.516800e+000
1.576429e+003,6.703323e+000
1.577393e+003,5.134933e+000
1.578357e+003,2.451385e+000
1.579322e+003,2.130936e+000
1.580286e+003,4.272522e+000
1.581250e+003,6.704422e+000
1.582214e+003,9.220886e+000
1.583179e+003,1.011668e+001
1.584143e+003,6.665848e+000
1.585107e+003,2.140137e+000
1.586071e+003,1.222031e+000
1.587036e+003,3.014465e+000
1.588000e+003,4.591705e+000
1.588964e+003,5.296997e+000
1.589928e+003,5.559937e+000
1.590893e+003,5.242722e+000
1.591857e+003,5.066299e+000
1.592821e+003,6.551544e+000
1.593785e+003,9.299210e+000
1.594750e+003,1.076036e+001
1.595714e+003,1.039017e+001
1.596678e+003,1.010220e+001
1.597642e+003,1.096414e+001
1.598606e+003,1.169406e+001
1.599571e+003,1.065891e+001
1.600535e+003,9.292664e+000
1.601499e+003,9.709625e+000
1.602463e+003,1.169359e+001
1.603427e+003,1.349063e+001
1.604392e+003,1.446536e+001
1.605356e+003,1.456079e+001
1.606320e+003,1.317709e+001
1.607284e+003,1.105664e+001
1.608249e+003,1.055054e+001
1.609213e+003,1.173451e+001
1.610177e+003,1.214153e+001
1.611141e+003,1.091904e+001
1.612106e+003,1.002484e+001
1.613070e+003,1.077759e+001
1.614034e+003,1.185861e+001
1.614998e+003,1.240268e+001
1.615963e+003,1.258885e+001
1.616927e+003,1.272145e+001
1.617891e+003,1.286253e+001
1.618855e+003,1.298164e+001
1.619820e+003,1.300864e+001
1.620784e+003,1.304826e+001
1.621748e+003,1.354742e+001
1.622712e+003,1.444160e+001
1.623677e+003,1.458447e+001
1.624641e+003,1.380266e+001
1.625605e+003,1.330825e+001
1.626569e+003,1.331010e+001
1.627533e+003,1.335965e+001
1.628498e+003,1.366044e+001
1.629462e+003,1.371397e+001
1.630426e+003,1.225555e+001
1.631390e+003,1.038912e+001
1.632354e+003,1.100015e+001
1.633319e+003,1.446666e+001
1.634283e+003,1.745190e+001
1.635247e+003,1.737758e+001
1.636211e+003,1.572478e+001
1.637176e+003,1.531792e+001
1.638140e+003,1.605232e+001
1.639104e+003,1.555416e+001
1.640068e+003,1.316987e+001
1.641033e+003,1.171539e+001
1.641997e+003,1.257128e+001
1.642961e+003,1.359147e+001
1.643925e+003,1.350780e+001
1.644890e+003,1.320246e+001
1.645854e+003,1.370184e+001
1.646818e+003,1.469508e+001
1.647782e+003,1.520481e+001
1.648747e+003,1.493346e+001
1.649711e+003,1.439348e+001
1.650675e+003,1.405555e+001
1.651639e+003,1.375510e+001
1.652604e+003,1.278082e+001
1.653568e+003,1.115888e+001
1.654532e+003,1.096945e+001
1.655496e+003,1.279685e+001
1.656460e+003,1.435477e+001
1.657425e+003,1.502130e+001
1.658389e+003,1.528536e+001
1.659353e+003,1.570707e+001
1.660317e+003,1.568980e+001
1.661281e+003,1.410964e+001
1.662246e+003,1.153141e+001
1.663210e+003,9.703110e+000
1.664174e+003,9.216316e+000
1.665138e+003,9.382668e+000
1.666103e+003,9.693970e+000
1.667067e+003,1.005924e+001
1.668031e+003,1.043964e+001
1.668995e+003,1.082011e+001
1.669960e+003,1.060984e+001
1.670924e+003,9.512375e+000
1.671888e+003,9.028595e+000
1.672852e+003,1.008495e+001
1.673817e+003,1.111642e+001
1.674781e+003,1.118312e+001
1.675745e+003,1.067054e+001
1.676709e+003,9.491211e+000
1.677674e+003,8.129417e+000
1.678638e+003,8.202248e+000
1.679602e+003,1.018767e+001
1.680566e+003,1.166506e+001
1.681531e+003,1.043853e+001
1.682495e+003,8.124969e+000
1.683459e+003,7.567818e+000
1.684423e+003,8.398857e+000
1.685387e+003,8.344482e+000
1.686352e+003,7.061028e+000
1.687316e+003,6.352280e+000
1.688280e+003,7.119629e+000
1.689244e+003,7.963692e+000
1.690208e+003,7.495529e+000
1.691173e+003,6.770218e+000
1.692137e+003,7.364738e+000
1.693101e+003,8.776062e+000
1.694065e+003,8.929138e+000
1.695030e+003,7.217598e+000
1.695994e+003,5.554657e+000
1.696958e+003,5.367058e+000
1.697922e+003,5.596642e+000
1.698887e+003,4.599533e+000
1.699851e+003,2.994339e+000
1.700815e+003,2.829453e+000
1.701779e+003,4.213623e+000
1.702744e+003,5.352043e+000
1.703708e+003,5.794273e+000
1.704672e+003,5.711426e+000
1.705636e+003,4.814995e+000
1.706601e+003,3.692795e+000
1.707565e+003,3.415634e+000
1.708529e+003,3.769875e+000
1.709493e+003,3.936401e+000
1.710458e+003,3.784058e+000
1.711422e+003,3.715080e+000
1.712386e+003,4.312393e+000
1.713350e+003,4.648987e+000
1.714314e+003,3.404213e+000
1.715279e+003,1.627113e+000
1.716243e+003,1.341995e+000
1.717207e+003,2.352203e+000
1.718171e+003,2.942070e+000
1.719135e+003,2.651115e+000
1.720100e+003,2.007866e+000
1.721064e+003,1.210747e+000
1.722028e+003,5.971069e-001
1.722992e+003,9.544601e-001
1.723957e+003,2.021263e+000
1.724921e+003,1.765800e+000
1.725885e+003,-2.337418e-001
1.726849e+003,-1.455727e+000
1.727814e+003,-8.480759e-001
1.728778e+003,-7.785034e-002
1.729742e+003,2.825317e-001
1.730706e+003,3.173218e-001
1.731671e+003,-6.572342e-001
1.732635e+003,-1.716782e+000
1.733599e+003,-2.417526e-001
1.734563e+003,3.652252e+000
1.735528e+003,6.378563e+000
1.736492e+003,6.026878e+000
1.737456e+003,4.047157e+000
1.738420e+003,1.933556e+000
1.739385e+003,2.936554e-002
1.740349e+003,-9.864044e-002
1.741313e+003,2.139793e+000
1.742277e+003,3.379311e+000
1.743241e+003,3.530304e+000
1.744206e+003,3.019188e+000
1.745170e+003,1.366272e+000
1.746134e+003,-3.965836e-001
1.747098e+003,-2.194870e+000
1.748063e+003,-3.447174e+000
1.749027e+003,-3.256386e+000
1.749991e+003,-1.999214e+000
1.750955e+003,-5.898972e-001
1.751919e+003,4.829407e-001
1.752884e+003,7.065659e-001
1.753848e+003,-3.716812e-001
1.754812e+003,-1.876060e+000
1.755776e+003,-1.915611e+000
1.756741e+003,-5.003281e-001
1.757705e+003,3.088074e-001
1.758669e+003,2.211075e-001
1.759633e+003,2.296677e-001
1.760598e+003,3.504257e-001
1.761562e+003,6.041412e-001
1.762526e+003,1.434273e+000
1.763490e+003,2.063911e+000
1.764455e+003,1.578087e+000
1.765419e+003,7.318268e-001
1.766383e+003,8.727570e-001
1.767347e+003,1.916000e+000
1.768312e+003,2.589439e+000
1.769276e+003,2.276581e+000
1.770240e+003,1.453651e+000
1.771204e+003,3.853607e-001
1.772168e+003,-4.452133e-001
1.773133e+003,5.154266e-001
1.774097e+003,2.930855e+000
1.775061e+003,2.964523e+000
1.776025e+003,-2.686920e-001
1.776990e+003,-2.437355e+000
1.777954e+003,-1.815575e+000
1.778918e+003,-2.436142e-001
1.779882e+003,1.746300e+000
1.780846e+003,3.191536e+000
1.781811e+003,2.192780e+000
1.782775e+003,-2.986298e-001
1.783739e+003,-9.017029e-001
1.784703e+003,1.074249e+000
1.785668e+003,2.544579e+000
1.786632e+003,1.849190e+000
1.787596e+003,6.491623e-001
1.788560e+003,1.251450e-001
1.789525e+003,6.813049e-003
1.790489e+003,-3.342743e-001
1.791453e+003,-6.919327e-001
1.792417e+003,5.243683e-002
1.793382e+003,1.951515e+000
1.794346e+003,3.094994e+000
1.795310e+003,2.410988e+000
1.796274e+003,1.309868e+000
1.797239e+003,1.517578e+000
1.798203e+003,2.515007e+000
1.799167e+003,2.318405e+000
1.800131e+003,4.811401e-001
1.801095e+003,-3.775787e-001
1.802060e+003,5.757828e-001
1.803024e+003,1.306580e+000
1.803988e+003,1.605392e+000
1.804952e+003,1.581367e+000
1.805917e+003,7.668228e-001
1.806881e+003,9.002686e-002
1.807845e+003,9.683990e-001
1.808809e+003,2.573372e+000
1.809773e+003,2.828621e+000
1.810738e+003,1.548141e+000
1.811702e+003,6.867599e-001
1.812666e+003,1.444931e+000
1.813630e+003,2.665329e+000
1.814595e+003,2.755959e+000
1.815559e+003,2.038521e+000
1.816523e+003,1.980598e+000
1.817487e+003,2.694656e+000
1.818452e+003,2.907417e+000
1.819416e+003,2.351555e+000
1.820380e+003,2.104996e+000
1.821344e+003,3.021667e+000
1.822309e+003,3.383698e+000
1.823273e+003,1.291603e+000
1.824237e+003,-1.040390e+000
1.825201e+003,-1.159363e+000
1.826166e+003,2.841187e-001
1.827130e+003,1.401543e+000
1.828094e+003,1.835922e+000
1.829058e+003,2.135635e+000
1.830022e+003,2.552727e+000
1.830987e+003,3.009949e+000
1.831951e+003,3.866180e+000
1.832915e+003,4.421135e+000
1.833879e+003,2.984726e+000
1.834844e+003,4.468765e-001
1.835808e+003,-1.369476e-001
1.836772e+003,1.493874e+000
1.837736e+003,2.737709e+000
1.838700e+003,2.433434e+000
1.839665e+003,1.564812e+000
1.840629e+003,9.373093e-001
1.841593e+003,7.048645e-001
1.842557e+003,1.240257e+000
1.843522e+003,2.523048e+000
1.844486e+003,3.333191e+000
1.845450e+003,3.073219e+000
1.846414e+003,3.662834e+000
1.847379e+003,6.185776e+000
1.848343e+003,7.855042e+000
1.849307e+003,7.731712e+000
1.850271e+003,6.689133e+000
1.851236e+003,4.952789e+000
1.852200e+003,3.039703e+000
1.853164e+003,1.108330e+000
1.854128e+003,-5.054474e-001
1.855093e+003,-8.058167e-001
1.856057e+003,4.788437e-001
1.857021e+003,2.002708e+000
1.857985e+003,2.629356e+000
1.858949e+003,2.742630e+000
1.859914e+003,2.917221e+000
1.860878e+003,3.193993e+000
1.861842e+003,3.823708e+000
1.862806e+003,4.801559e+000
1.863771e+003,5.396141e+000
1.864735e+003,5.460815e+000
1.865699e+003,5.093498e+000
1.866663e+003,4.133652e+000
1.867627e+003,3.236809e+000
1.868592e+003,2.806496e+000
1.869556e+003,2.826950e+000
1.870520e+003,3.686020e+000
1.871484e+003,5.148117e+000
1.872449e+003,5.596313e+000
1.873413e+003,4.806152e+000
1.874377e+003,3.953308e+000
1.875341e+003,2.659607e+000
1.876306e+003,2.004799e+000
1.877270e+003,3.331879e+000
1.878234e+003,4.842476e+000
1.879198e+003,4.350845e+000
1.880163e+003,2.894348e+000
1.881127e+003,2.696877e+000
1.882091e+003,3.814568e+000
1.883055e+003,4.794136e+000
1.884020e+003,4.989708e+000
1.884984e+003,4.723763e+000
1.885948e+003,4.272423e+000
1.886912e+003,3.871178e+000
1.887876e+003,4.088257e+000
1.888841e+003,4.836487e+000
1.889805e+003,4.829865e+000
1.890769e+003,3.817055e+000
1.891733e+003,3.450310e+000
1.892698e+003,4.110756e+000
1.893662e+003,4.760506e+000
1.894626e+003,5.115601e+000
1.895590e+003,5.315308e+000
1.896554e+003,5.680634e+000
1.897519e+003,5.851746e+000
1.898483e+003,4.859581e+000
1.899447e+003,3.208534e+000
1.900411e+003,3.033455e+000
1.901376e+003,4.811249e+000
1.902340e+003,6.039047e+000
1.903304e+003,5.568665e+000
1.904268e+003,4.635056e+000
1.905233e+003,3.782104e+000
1.906197e+003,3.068512e+000
1.907161e+003,2.217285e+000
1.908125e+003,1.743393e+000
1.909090e+003,2.961868e+000
1.910054e+003,5.393723e+000
1.911018e+003,7.003212e+000
1.911982e+003,7.156563e+000
1.912947e+003,6.720856e+000
1.913911e+003,6.316826e+000
1.914875e+003,6.113617e+000
1.915839e+003,6.471809e+000
1.916803e+003,7.027275e+000
1.917768e+003,5.722015e+000
1.918732e+003,1.898735e+000
1.919696e+003,1.032433e+000
1.920660e+003,4.614388e+000
1.921625e+003,7.197174e+000
1.922589e+003,7.257240e+000
1.923553e+003,6.628700e+000
1.924517e+003,5.286087e+000
1.925481e+003,4.559204e+000
1.926446e+003,6.843727e+000
1.927410e+003,1.013295e+001
1.928374e+003,9.846962e+000
1.929338e+003,6.008896e+000
1.930303e+003,3.690674e+000
1.931267e+003,4.572639e+000
1.932231e+003,5.943520e+000
1.933195e+003,6.730797e+000
1.934160e+003,7.307564e+000
1.935124e+003,8.330811e+000
1.936088e+003,8.956902e+000
1.937052e+003,7.416771e+000
1.938017e+003,5.004044e+000
1.938981e+003,5.033112e+000
1.939945e+003,7.413025e+000
1.940909e+003,8.779778e+000
1.941874e+003,7.665909e+000
1.942838e+003,6.047989e+000
1.943802e+003,5.807121e+000
1.944766e+003,6.347893e+000
1.945730e+003,6.328369e+000
1.946695e+003,5.823692e+000
1.947659e+003,5.767311e+000
1.948623e+003,6.160271e+000
1.949587e+003,6.906570e+000
1.950552e+003,8.188370e+000
1.951516e+003,9.162010e+000
1.952480e+003,9.502724e+000
1.953444e+003,9.552200e+000
1.954408e+003,9.349640e+000
1.955373e+003,9.110489e+000
1.956337e+003,9.378181e+000
1.957301e+003,9.971992e+000
1.958265e+003,1.000260e+001
1.959230e+003,9.400627e+000
1.960194e+003,8.730400e+000
1.961158e+003,7.210861e+000
1.962122e+003,6.750534e+000
1.963087e+003,9.215614e+000
1.964051e+003,1.122343e+001
1.965015e+003,1.048781e+001
1.965979e+003,8.775856e+000
1.966944e+003,7.486443e+000
1.967908e+003,6.787743e+000
1.968872e+003,6.794899e+000
1.969836e+003,7.290962e+000
1.970801e+003,7.562538e+000
1.971765e+003,7.314720e+000
1.972729e+003,6.892418e+000
1.973693e+003,6.561050e+000
1.974657e+003,6.271706e+000
1.975622e+003,5.764191e+000
1.976586e+003,5.267670e+000
1.977550e+003,5.658897e+000
1.978514e+003,6.765816e+000
1.979479e+003,7.218735e+000
1.980443e+003,6.886612e+000
1.981407e+003,7.588577e+000
1.982371e+003,1.010059e+001
1.983335e+003,1.234921e+001
1.984300e+003,1.274497e+001
1.985264e+003,1.192805e+001
1.986228e+003,1.074184e+001
1.987192e+003,9.425804e+000
1.988157e+003,9.312065e+000
1.989121e+003,1.076240e+001
1.990085e+003,1.168488e+001
1.991049e+003,1.215146e+001
1.992014e+003,1.200656e+001
1.992978e+003,1.043163e+001
1.993942e+003,9.269501e+000
1.994906e+003,9.419731e+000
1.995871e+003,9.921600e+000
1.996835e+003,1.013566e+001
1.997799e+003,1.025608e+001
1.998763e+003,1.060332e+001
1.999728e+003,1.111347e+001
