5.003444e+002,2.055121e+002
5.013087e+002,2.020773e+002
5.022729e+002,1.994156e+002
5.032371e+002,1.975824e+002
5.042014e+002,1.936561e+002
5.051656e+002,1.881698e+002
5.061298e+002,1.828308e+002
5.070941e+002,1.789432e+002
5.080583e+002,1.762109e+002
5.090225e+002,1.746693e+002
5.099868e+002,1.754177e+002
5.109510e+002,1.757805e+002
5.119152e+002,1.741399e+002
5.128795e+002,1.703452e+002
5.138437e+002,1.671000e+002
5.148079e+002,1.655596e+002
5.157722e+002,1.648799e+002
5.167364e+002,1.653777e+002
5.177006e+002,1.663131e+002
5.186649e+002,1.656971e+002
5.196291e+002,1.596364e+002
5.205933e+002,1.532178e+002
5.215576e+002,1.519574e+002
5.225218e+002,1.554343e+002
5.234860e+002,1.601918e+002
5.244503e+002,1.608434e+002
5.254145e+002,1.569580e+002
5.263787e+002,1.521720e+002
5.273430e+002,1.446472e+002
5.283072e+002,1.374163e+002
5.292714e+002,1.350367e+002
5.302357e+002,1.401147e+002
5.311999e+002,1.421555e+002
5.321641e+002,1.400931e+002
5.331284e+002,1.366973e+002
5.340926e+002,1.333602e+002
5.350568e+002,1.301560e+002
5.360211e+002,1.270551e+002
5.369853e+002,1.253645e+002
5.379495e+002,1.244210e+002
5.389138e+002,1.236123e+002
5.398780e+002,1.224774e+002
5.408422e+002,1.207509e+002
5.418065e+002,1.174133e+002
5.427707e+002,1.128092e+002
5.437349e+002,1.097845e+002
5.446992e+002,1.093530e+002
5.456634e+002,1.106351e+002
5.466276e+002,1.107957e+002
5.475919e+002,1.096898e+002
5.485561e+002,1.078837e+002
5.495203e+002,1.040527e+002
5.504846e+002,9.942004e+001
5.514488e+002,9.616614e+001
5.524130e+002,9.615662e+001
5.533773e+002,9.622583e+001
5.543415e+002,9.461438e+001
5.553057e+002,9.227332e+001
5.562700e+002,8.983582e+001
5.572342e+002,8.760767e+001
5.581984e+002,8.570972e+001
5.591627e+002,8.591504e+001
5.601269e+002,8.749438e+001
5.610911e+002,8.735291e+001
5.620554e+002,8.345544e+001
5.630196e+002,7.634021e+001
5.639838e+002,7.348315e+001
5.649481e+002,7.978223e+001
5.659123e+002,8.329553e+001
5.668765e+002,8.207007e+001
5.678408e+002,7.760278e+001
5.688050e+002,7.274158e+001
5.697692e+002,6.502063e+001
5.707335e+002,5.940051e+001
5.716977e+002,5.872925e+001
5.726619e+002,6.095740e+001
5.736262e+002,6.362292e+001
5.745904e+002,6.534473e+001
5.755546e+002,6.633630e+001
5.765189e+002,6.644543e+001
5.774831e+002,6.537231e+001
5.784473e+002,6.328662e+001
5.794116e+002,6.060291e+001
5.803758e+002,5.779028e+001
5.813400e+002,5.503430e+001
5.823043e+002,5.082092e+001
5.832685e+002,4.764600e+001
5.842327e+002,4.814465e+001
5.851970e+002,5.193848e+001
5.861612e+002,5.361816e+001
5.871254e+002,4.725488e+001
5.880897e+002,4.362695e+001
5.890539e+002,4.673450e+001
5.900181e+002,5.319983e+001
5.909824e+002,5.742725e+001
5.919466e+002,5.576160e+001
5.929108e+002,5.167542e+001
5.938751e+002,4.858716e+001
5.948393e+002,4.634827e+001
5.958035e+002,4.513257e+001
5.967678e+002,4.511121e+001
5.977320e+002,4.618896e+001
5.986962e+002,4.476147e+001
5.996605e+002,3.986218e+001
6.006247e+002,3.614026e+001
6.015889e+002,3.672095e+001
6.025532e+002,4.126929e+001
6.035174e+002,4.355164e+001
6.044816e+002,4.065759e+001
6.054459e+002,3.872620e+001
6.064101e+002,3.938586e+001
6.073743e+002,4.140222e+001
6.083386e+002,4.251672e+001
6.093028e+002,4.157166e+001
6.102670e+002,3.978516e+001
6.112313e+002,3.783411e+001
6.121955e+002,3.579321e+001
6.131597e+002,3.350818e+001
6.141240e+002,3.088818e+001
6.150882e+002,2.828027e+001
6.160524e+002,2.775464e+001
6.170167e+002,2.924744e+001
6.179809e+002,3.179932e+001
6.189451e+002,3.487793e+001
6.199094e+002,3.807678e+001
6.208736e+002,4.067786e+001
6.218378e+002,4.413147e+001
6.228021e+002,4.653040e+001
6.237663e+002,4.774890e+001
6.247305e+002,4.801685e+001
6.256948e+002,4.738843e+001
6.266590e+002,4.518738e+001
6.276232e+002,4.184412e+001
6.285875e+002,3.792725e+001
6.295517e+002,3.419275e+001
6.305159e+002,3.109131e+001
6.314802e+002,2.871118e+001
6.324444e+002,2.676685e+001
6.334086e+002,2.521021e+001
6.343729e+002,2.459106e+001
6.353371e+002,2.612085e+001
6.363013e+002,3.066858e+001
6.372656e+002,3.650537e+001
6.382298e+002,3.793298e+001
6.391940e+002,3.019202e+001
6.401583e+002,2.327747e+001
6.411225e+002,1.779004e+001
6.420867e+002,1.425659e+001
6.430510e+002,1.321948e+001
6.440152e+002,1.509277e+001
6.449794e+002,1.630835e+001
6.459437e+002,1.446008e+001
6.469079e+002,1.179150e+001
6.478721e+002,1.036194e+001
6.488364e+002,1.092139e+001
6.498006e+002,1.232910e+001
6.507648e+002,1.198999e+001
6.517291e+002,1.047766e+001
6.526933e+002,9.870117e+000
6.536575e+002,1.056726e+001
6.546218e+002,1.166577e+001
6.555860e+002,1.138379e+001
6.565502e+002,8.324219e+000
6.575145e+002,6.759399e+000
6.584787e+002,7.537598e+000
6.594429e+002,9.005737e+000
6.604072e+002,9.798462e+000
6.613714e+002,9.653809e+000
6.623356e+002,1.001819e+001
6.632999e+002,1.226831e+001
6.642641e+002,1.379272e+001
6.652283e+002,1.354871e+001
6.661926e+002,1.179614e+001
6.671568e+002,9.422852e+000
6.681210e+002,6.728027e+000
6.690853e+002,4.096436e+000
6.700495e+002,3.014038e+000
6.710137e+002,3.503906e+000
6.719780e+002,5.125854e+000
6.729422e+002,7.497803e+000
6.739064e+002,1.076208e+001
6.748707e+002,1.225745e+001
6.758349e+002,1.119031e+001
6.767991e+002,9.588745e+000
6.777634e+002,8.567993e+000
6.787276e+002,8.536743e+000
6.796918e+002,9.348022e+000
6.806561e+002,1.100793e+001
6.816203e+002,1.223303e+001
6.825845e+002,1.272583e+001
6.835488e+002,1.246484e+001
6.845130e+002,1.113477e+001
6.854772e+002,8.367676e+000
6.864415e+002,6.226196e+000
6.874057e+002,9.280151e+000
6.883699e+002,1.508301e+001
6.893342e+002,1.885083e+001
6.902984e+002,1.795190e+001
6.912626e+002,1.338232e+001
6.922269e+002,1.073047e+001
6.931911e+002,1.291760e+001
6.941553e+002,1.488196e+001
6.951196e+002,1.517883e+001
6.960838e+002,1.430688e+001
6.970480e+002,1.342615e+001
6.980123e+002,1.282373e+001
6.989765e+002,1.306543e+001
6.999407e+002,1.478308e+001
7.009050e+002,1.670068e+001
7.018692e+002,1.793494e+001
7.028334e+002,1.803638e+001
7.037977e+002,1.693103e+001
7.047619e+002,1.400354e+001
7.057261e+002,1.078210e+001
7.066904e+002,9.614746e+000
7.076546e+002,1.084595e+001
7.086188e+002,1.332129e+001
7.095831e+002,1.526294e+001
7.105473e+002,1.630591e+001
7.115115e+002,1.668445e+001
7.124758e+002,1.635034e+001
7.134400e+002,1.518640e+001
7.144042e+002,1.294763e+001
7.153685e+002,9.938965e+000
7.163327e+002,7.756714e+000
7.172969e+002,7.226807e+000
7.182612e+002,7.884155e+000
7.192254e+002,1.054504e+001
7.201896e+002,1.389258e+001
7.211539e+002,1.573547e+001
7.221181e+002,1.423462e+001
7.230823e+002,1.041064e+001
7.240466e+002,6.343750e+000
7.250108e+002,2.862305e+000
7.259750e+002,2.197021e+000
7.269393e+002,5.506470e+000
7.279035e+002,1.149390e+001
7.288677e+002,1.465503e+001
7.298320e+002,1.411047e+001
7.307962e+002,1.423572e+001
7.317604e+002,1.597522e+001
7.327247e+002,1.842810e+001
7.336889e+002,1.966858e+001
7.346531e+002,1.789441e+001
7.356174e+002,1.537317e+001
7.365816e+002,1.531567e+001
7.375458e+002,1.598303e+001
7.385101e+002,1.533118e+001
7.394743e+002,1.322668e+001
7.404385e+002,1.188855e+001
7.414028e+002,1.529358e+001
7.423670e+002,2.072961e+001
7.433312e+002,2.144385e+001
7.442955e+002,1.764661e+001
7.452597e+002,1.272925e+001
7.462239e+002,9.634399e+000
7.471882e+002,7.941284e+000
7.481524e+002,9.088989e+000
7.491166e+002,1.381873e+001
7.500809e+002,1.817859e+001
7.510451e+002,2.149475e+001
7.520093e+002,2.337573e+001
7.529736e+002,2.295459e+001
7.539378e+002,1.924780e+001
7.549020e+002,1.552612e+001
7.558663e+002,1.258679e+001
7.568306e+002,1.113281e+001
7.577948e+002,1.269006e+001
7.587590e+002,1.770410e+001
7.597233e+002,2.370068e+001
7.606875e+002,2.376880e+001
7.616517e+002,1.913501e+001
7.626160e+002,1.519470e+001
7.635802e+002,1.315259e+001
7.645444e+002,1.292346e+001
7.655087e+002,1.439001e+001
7.664729e+002,1.834216e+001
7.674371e+002,2.191907e+001
7.684014e+002,2.532275e+001
7.693656e+002,2.792761e+001
7.703298e+002,2.930957e+001
7.712941e+002,2.956567e+001
7.722583e+002,2.933154e+001
7.732225e+002,2.836157e+001
7.741868e+002,2.768921e+001
7.751510e+002,2.849500e+001
7.761152e+002,3.036096e+001
7.770795e+002,3.197095e+001
7.780437e+002,3.206555e+001
7.790079e+002,3.079675e+001
7.799722e+002,3.146643e+001
7.809364e+002,3.435046e+001
7.819006e+002,3.616138e+001
7.828649e+002,3.614014e+001
7.838291e+002,3.477417e+001
7.847933e+002,3.225269e+001
7.857576e+002,2.525427e+001
7.867218e+002,2.119495e+001
7.876860e+002,2.429114e+001
7.886503e+002,2.945569e+001
7.896145e+002,3.236902e+001
7.905787e+002,3.191272e+001
7.915430e+002,3.075671e+001
7.925072e+002,3.099841e+001
7.934714e+002,3.148120e+001
7.944357e+002,3.196497e+001
7.953999e+002,3.268738e+001
7.963641e+002,3.351868e+001
7.973284e+002,3.406116e+001
7.982926e+002,3.430469e+001
7.992568e+002,3.457214e+001
8.002211e+002,3.356909e+001
8.011853e+002,3.194006e+001
8.021495e+002,3.131873e+001
8.031138e+002,3.207092e+001
8.040780e+002,3.252783e+001
8.050422e+002,3.085742e+001
8.060065e+002,2.949060e+001
8.069707e+002,2.769690e+001
8.079349e+002,2.663867e+001
8.088992e+002,2.827197e+001
8.098634e+002,3.326172e+001
8.108276e+002,3.965527e+001
8.117919e+002,4.497766e+001
8.127561e+002,4.777502e+001
8.137203e+002,4.687866e+001
8.146846e+002,4.287085e+001
8.156488e+002,3.761377e+001
8.166130e+002,3.274292e+001
8.175773e+002,2.786011e+001
8.185415e+002,2.465100e+001
8.195057e+002,2.150574e+001
8.204700e+002,2.034302e+001
8.214342e+002,2.300427e+001
8.223984e+002,2.819458e+001
8.233627e+002,3.279639e+001
8.243269e+002,3.662488e+001
8.252911e+002,3.827478e+001
8.262554e+002,3.526611e+001
8.272196e+002,3.113110e+001
8.281838e+002,3.008325e+001
8.291481e+002,3.321118e+001
8.301123e+002,3.731384e+001
8.310765e+002,3.642993e+001
8.320408e+002,3.084680e+001
8.330050e+002,2.757495e+001
8.339692e+002,2.737500e+001
8.349335e+002,2.877722e+001
8.358977e+002,3.093506e+001
8.368619e+002,3.444409e+001
8.378262e+002,3.702356e+001
8.387904e+002,3.801294e+001
8.397546e+002,3.771289e+001
8.407189e+002,3.447498e+001
8.416831e+002,3.051306e+001
8.426473e+002,2.986621e+001
8.436116e+002,3.500220e+001
8.445758e+002,4.138708e+001
8.455400e+002,4.350964e+001
8.465043e+002,4.307544e+001
8.474685e+002,4.249878e+001
8.484327e+002,4.302271e+001
8.493970e+002,4.453516e+001
8.503612e+002,4.605359e+001
8.513254e+002,4.724158e+001
8.522897e+002,4.889587e+001
8.532539e+002,5.067603e+001
8.542181e+002,5.245105e+001
8.551824e+002,5.506848e+001
8.561466e+002,5.898462e+001
8.571108e+002,6.285315e+001
8.580751e+002,6.454858e+001
8.590393e+002,6.535767e+001
8.600035e+002,6.582129e+001
8.609678e+002,6.671204e+001
8.619320e+002,6.901746e+001
8.628962e+002,7.291357e+001
8.638605e+002,7.688208e+001
8.648247e+002,7.847778e+001
8.657889e+002,7.838525e+001
8.667532e+002,7.799341e+001
8.677174e+002,7.748804e+001
8.686816e+002,7.775342e+001
8.696459e+002,8.031799e+001
8.706101e+002,8.614612e+001
8.715743e+002,8.937439e+001
8.725386e+002,8.743005e+001
8.735028e+002,8.655652e+001
8.744670e+002,8.771484e+001
8.754313e+002,9.022815e+001
8.763955e+002,9.340784e+001
8.773597e+002,9.754053e+001
8.783240e+002,1.019116e+002
8.792882e+002,1.059498e+002
8.802524e+002,1.094615e+002
8.812167e+002,1.130331e+002
8.821809e+002,1.162852e+002
8.831451e+002,1.172557e+002
8.841094e+002,1.130737e+002
8.850736e+002,1.047688e+002
8.860378e+002,1.041287e+002
8.870021e+002,1.124282e+002
8.879663e+002,1.211154e+002
8.889305e+002,1.250647e+002
8.898948e+002,1.250082e+002
8.908590e+002,1.256672e+002
8.918232e+002,1.282651e+002
8.927875e+002,1.312163e+002
8.937517e+002,1.342660e+002
8.947159e+002,1.374613e+002
8.956802e+002,1.403577e+002
8.966444e+002,1.426124e+002
8.976086e+002,1.446263e+002
8.985729e+002,1.480266e+002
8.995371e+002,1.515707e+002
9.005013e+002,1.517455e+002
9.014656e+002,1.495150e+002
9.024298e+002,1.485894e+002
9.033940e+002,1.515789e+002
9.043583e+002,1.573036e+002
9.053225e+002,1.603162e+002
9.062867e+002,1.572791e+002
9.072510e+002,1.547266e+002
9.082152e+002,1.532418e+002
9.091794e+002,1.534370e+002
9.101437e+002,1.566854e+002
9.111079e+002,1.631918e+002
9.120721e+002,1.681584e+002
9.130364e+002,1.667501e+002
9.140006e+002,1.633738e+002
9.149648e+002,1.603019e+002
9.159291e+002,1.582368e+002
9.168933e+002,1.575415e+002
9.178575e+002,1.581239e+002
9.188218e+002,1.587305e+002
9.197860e+002,1.554706e+002
9.207502e+002,1.479036e+002
9.217145e+002,1.422882e+002
9.226787e+002,1.414265e+002
9.236429e+002,1.429553e+002
9.246072e+002,1.433292e+002
9.255714e+002,1.419460e+002
9.265356e+002,1.400293e+002
9.274999e+002,1.372310e+002
9.284641e+002,1.339882e+002
9.294283e+002,1.302129e+002
9.303926e+002,1.266290e+002
9.313568e+002,1.245531e+002
9.323210e+002,1.247416e+002
9.332853e+002,1.250374e+002
9.342495e+002,1.205795e+002
9.352137e+002,1.140247e+002
9.361780e+002,1.101299e+002
9.371422e+002,1.103693e+002
9.381064e+002,1.131964e+002
9.390707e+002,1.160420e+002
9.400349e+002,1.182323e+002
9.409991e+002,1.205935e+002
9.419634e+002,1.248733e+002
9.429276e+002,1.268088e+002
9.438918e+002,1.233386e+002
9.448561e+002,1.176951e+002
9.458203e+002,1.159449e+002
9.467845e+002,1.207937e+002
9.477488e+002,1.253126e+002
9.487130e+002,1.230410e+002
9.496772e+002,1.188829e+002
9.506415e+002,1.163912e+002
9.516057e+002,1.158602e+002
9.525699e+002,1.157360e+002
9.535342e+002,1.144043e+002
9.544984e+002,1.117910e+002
9.554626e+002,1.090188e+002
9.564269e+002,1.061123e+002
9.573911e+002,1.063474e+002
9.583553e+002,1.138811e+002
9.593196e+002,1.232687e+002
9.602838e+002,1.245566e+002
9.612480e+002,1.147617e+002
9.622123e+002,1.069990e+002
9.631765e+002,1.067711e+002
9.641407e+002,1.080341e+002
9.651050e+002,1.077296e+002
9.660692e+002,1.062954e+002
9.670334e+002,1.063116e+002
9.679977e+002,1.097899e+002
9.689619e+002,1.148231e+002
9.699261e+002,1.148265e+002
9.708904e+002,1.113706e+002
9.718546e+002,1.105314e+002
9.728188e+002,1.134890e+002
9.737831e+002,1.188569e+002
9.747473e+002,1.251758e+002
9.757115e+002,1.326310e+002
9.766758e+002,1.412991e+002
9.776400e+002,1.562529e+002
9.786042e+002,1.672637e+002
9.795685e+002,1.716841e+002
9.805327e+002,1.698733e+002
9.814969e+002,1.618802e+002
9.824612e+002,1.480779e+002
9.834254e+002,1.332872e+002
9.843896e+002,1.192065e+002
9.853539e+002,1.074995e+002
9.863181e+002,1.011619e+002
9.872823e+002,9.936255e+001
9.882466e+002,9.945245e+001
9.892108e+002,9.993469e+001
9.901750e+002,1.012696e+002
9.911393e+002,1.005695e+002
9.921035e+002,9.239209e+001
9.930677e+002,8.775800e+001
9.940320e+002,8.921667e+001
9.949962e+002,9.393274e+001
9.959604e+002,1.002119e+002
9.969247e+002,1.078145e+002
9.978889e+002,1.146929e+002
9.988531e+002,1.183305e+002
9.998174e+002,1.209668e+002
1.000782e+003,1.248660e+002
1.001746e+003,1.294663e+002
1.002710e+003,1.334200e+002
1.003674e+003,1.361130e+002
1.004639e+003,1.383441e+002
1.005603e+003,1.417767e+002
1.006567e+003,1.463217e+002
1.007531e+003,1.474761e+002
1.008495e+003,1.437668e+002
1.009460e+003,1.400332e+002
1.010424e+003,1.397400e+002
1.011388e+003,1.421052e+002
1.012352e+003,1.435795e+002
1.013317e+003,1.440645e+002
1.014281e+003,1.419302e+002
1.015245e+003,1.357273e+002
1.016209e+003,1.277281e+002
1.017174e+003,1.195423e+002
1.018138e+003,1.115099e+002
1.019102e+003,1.027553e+002
1.020066e+003,9.241077e+001
1.021031e+003,8.227356e+001
1.021995e+003,7.736005e+001
1.022959e+003,7.597327e+001
1.023923e+003,7.323010e+001
1.024887e+003,6.713794e+001
1.025852e+003,5.941016e+001
1.026816e+003,5.279498e+001
1.027780e+003,4.774622e+001
1.028744e+003,4.396973e+001
1.029709e+003,4.173883e+001
1.030673e+003,4.014136e+001
1.031637e+003,3.936499e+001
1.032601e+003,3.852106e+001
1.033566e+003,3.643811e+001
1.034530e+003,3.291974e+001
1.035494e+003,2.958875e+001
1.036458e+003,2.756458e+001
1.037422e+003,2.693622e+001
1.038387e+003,2.855920e+001
1.039351e+003,3.199707e+001
1.040315e+003,3.500983e+001
1.041279e+003,3.603162e+001
1.042244e+003,3.582990e+001
1.043208e+003,3.714734e+001
1.044172e+003,4.168970e+001
1.045136e+003,4.345221e+001
1.046101e+003,4.043811e+001
1.047065e+003,3.724536e+001
1.048029e+003,3.713959e+001
1.048993e+003,3.930530e+001
1.049958e+003,4.011438e+001
1.050922e+003,3.746796e+001
1.051886e+003,3.512537e+001
1.052850e+003,3.796906e+001
1.053814e+003,4.267773e+001
1.054779e+003,4.478149e+001
1.055743e+003,4.334601e+001
1.056707e+003,4.063818e+001
1.057671e+003,3.942957e+001
1.058636e+003,3.961249e+001
1.059600e+003,3.885461e+001
1.060564e+003,3.592145e+001
1.061528e+003,3.533411e+001
1.062493e+003,3.898730e+001
1.063457e+003,4.331903e+001
1.064421e+003,4.497424e+001
1.065385e+003,4.379236e+001
1.066349e+003,4.122101e+001
1.067314e+003,3.706079e+001
1.068278e+003,3.279956e+001
1.069242e+003,2.812042e+001
1.070206e+003,2.475562e+001
1.071171e+003,2.604303e+001
1.072135e+003,3.259546e+001
1.073099e+003,4.038220e+001
1.074063e+003,4.299652e+001
1.075028e+003,4.010315e+001
1.075992e+003,3.816760e+001
1.076956e+003,3.673370e+001
1.077920e+003,3.579504e+001
1.078885e+003,3.691376e+001
1.079849e+003,3.877881e+001
1.080813e+003,3.782581e+001
1.081777e+003,3.279486e+001
1.082741e+003,2.988989e+001
1.083706e+003,3.361963e+001
1.084670e+003,3.805499e+001
1.085634e+003,4.062512e+001
1.086598e+003,4.126526e+001
1.087563e+003,4.089545e+001
1.088527e+003,4.024927e+001
1.089491e+003,3.900055e+001
1.090455e+003,3.530005e+001
1.091420e+003,2.833899e+001
1.092384e+003,2.439471e+001
1.093348e+003,2.405688e+001
1.094312e+003,2.464661e+001
1.095276e+003,2.571100e+001
1.096241e+003,2.716577e+001
1.097205e+003,2.736310e+001
1.098169e+003,2.477600e+001
1.099133e+003,2.352850e+001
1.100098e+003,2.648370e+001
1.101062e+003,3.043091e+001
1.102026e+003,3.429944e+001
1.102990e+003,3.743182e+001
1.103955e+003,3.879553e+001
1.104919e+003,3.769879e+001
1.105883e+003,3.516278e+001
1.106847e+003,3.356873e+001
1.107812e+003,3.289899e+001
1.108776e+003,3.264001e+001
1.109740e+003,3.273792e+001
1.110704e+003,3.333331e+001
1.111668e+003,3.565601e+001
1.112633e+003,3.937939e+001
1.113597e+003,4.124908e+001
1.114561e+003,3.962341e+001
1.115525e+003,3.810602e+001
1.116490e+003,3.656140e+001
1.117454e+003,3.643616e+001
1.118418e+003,4.043329e+001
1.119382e+003,4.720911e+001
1.120347e+003,5.283337e+001
1.121311e+003,5.445441e+001
1.122275e+003,5.287781e+001
1.123239e+003,5.043231e+001
1.124203e+003,4.818634e+001
1.125168e+003,4.957068e+001
1.126132e+003,5.612811e+001
1.127096e+003,6.347803e+001
1.128060e+003,6.848169e+001
1.129025e+003,7.112152e+001
1.129989e+003,7.187610e+001
1.130953e+003,6.921802e+001
1.131917e+003,6.764191e+001
1.132882e+003,6.772729e+001
1.133846e+003,7.008490e+001
1.134810e+003,7.637573e+001
1.135774e+003,8.520935e+001
1.136739e+003,9.346747e+001
1.137703e+003,9.936292e+001
1.138667e+003,1.042921e+002
1.139631e+003,1.103381e+002
1.140595e+003,1.177590e+002
1.141560e+003,1.286402e+002
1.142524e+003,1.440517e+002
1.143488e+003,1.611582e+002
1.144452e+003,1.769311e+002
1.145417e+003,1.926190e+002
1.146381e+003,2.132446e+002
1.147345e+003,2.405197e+002
1.148309e+003,2.680427e+002
1.149274e+003,2.935770e+002
1.150238e+003,3.201835e+002
1.151202e+003,3.514910e+002
1.152166e+003,3.851990e+002
1.153130e+003,4.174049e+002
1.154095e+003,4.455017e+002
1.155059e+003,4.679223e+002
1.156023e+003,4.838610e+002
1.156987e+003,4.925740e+002
1.157952e+003,4.919876e+002
1.158916e+003,4.826685e+002
1.159880e+003,4.682540e+002
1.160844e+003,4.485769e+002
1.161809e+003,4.235868e+002
1.162773e+003,3.940955e+002
1.163737e+003,3.587778e+002
1.164701e+003,3.253269e+002
1.165666e+003,2.962515e+002
1.166630e+003,2.697710e+002
1.167594e+003,2.437091e+002
1.168558e+003,2.203918e+002
1.169522e+003,2.032568e+002
1.170487e+003,1.931640e+002
1.171451e+003,1.884764e+002
1.172415e+003,1.878361e+002
1.173379e+003,1.900931e+002
1.174344e+003,1.902610e+002
1.175308e+003,1.887170e+002
1.176272e+003,1.854877e+002
1.177236e+003,1.797043e+002
1.178201e+003,1.732935e+002
1.179165e+003,1.691830e+002
1.180129e+003,1.669980e+002
1.181093e+003,1.607073e+002
1.182057e+003,1.451942e+002
1.183022e+003,1.318640e+002
1.183986e+003,1.246660e+002
1.184950e+003,1.215553e+002
1.185914e+003,1.219927e+002
1.186879e+003,1.247956e+002
1.187843e+003,1.273887e+002
1.188807e+003,1.274761e+002
1.189771e+003,1.259795e+002
1.190736e+003,1.266652e+002
1.191700e+003,1.298769e+002
1.192664e+003,1.308226e+002
1.193628e+003,1.286385e+002
1.194593e+003,1.254305e+002
1.195557e+003,1.226692e+002
1.196521e+003,1.198992e+002
1.197485e+003,1.156471e+002
1.198449e+003,1.093981e+002
1.199414e+003,1.029670e+002
1.200378e+003,9.708423e+001
1.201342e+003,9.146716e+001
1.202306e+003,8.529803e+001
1.203271e+003,7.904529e+001
1.204235e+003,7.439600e+001
1.205199e+003,7.203131e+001
1.206163e+003,6.987854e+001
1.207128e+003,6.417755e+001
1.208092e+003,5.475098e+001
1.209056e+003,4.663110e+001
1.210020e+003,4.002728e+001
1.210984e+003,3.410022e+001
1.211949e+003,2.931818e+001
1.212913e+003,2.439276e+001
1.213877e+003,1.720618e+001
1.214841e+003,7.906128e+000
1.215806e+003,4.649658e-001
1.216770e+003,-3.091003e+000
1.217734e+003,-5.370728e+000
1.218698e+003,-8.303284e+000
1.219663e+003,-1.164258e+001
1.220627e+003,-1.489514e+001
1.221591e+003,-1.801178e+001
1.222555e+003,-2.147968e+001
1.223520e+003,-2.569568e+001
1.224484e+003,-3.015497e+001
1.225448e+003,-3.348993e+001
1.226412e+003,-3.600006e+001
1.227376e+003,-3.657990e+001
1.228341e+003,-3.408588e+001
1.229305e+003,-3.138129e+001
1.230269e+003,-2.928589e+001
1.231233e+003,-2.834174e+001
1.232198e+003,-3.003741e+001
1.233162e+003,-3.474451e+001
1.234126e+003,-3.789374e+001
1.235090e+003,-3.475397e+001
1.236055e+003,-3.052679e+001
1.237019e+003,-3.153766e+001
1.237983e+003,-3.614563e+001
1.238947e+003,-3.901733e+001
1.239911e+003,-3.770825e+001
1.240876e+003,-3.487848e+001
1.241840e+003,-3.490839e+001
1.242804e+003,-3.802332e+001
1.243768e+003,-3.929370e+001
1.244733e+003,-3.681537e+001
1.245697e+003,-3.486853e+001
1.246661e+003,-3.542926e+001
1.247625e+003,-3.605237e+001
1.248590e+003,-3.444598e+001
1.249554e+003,-3.063721e+001
1.250518e+003,-2.586371e+001
1.251482e+003,-2.080121e+001
1.252447e+003,-1.663470e+001
1.253411e+003,-1.472192e+001
1.254375e+003,-1.404877e+001
1.255339e+003,-1.289520e+001
1.256303e+003,-1.098169e+001
1.257268e+003,-8.960510e+000
1.258232e+003,-7.791260e+000
1.259196e+003,-7.119263e+000
1.260160e+003,-5.361023e+000
1.261125e+003,-1.927734e+000
1.262089e+003,1.699768e+000
1.263053e+003,4.538086e+000
1.264017e+003,7.657654e+000
1.264982e+003,1.206201e+001
1.265946e+003,1.669354e+001
1.266910e+003,2.157080e+001
1.267874e+003,2.574292e+001
1.268839e+003,2.687561e+001
1.269803e+003,2.341565e+001
1.270767e+003,1.708191e+001
1.271731e+003,1.081012e+001
1.272695e+003,4.904602e+000
1.273660e+003,-6.134033e-002
1.274624e+003,-4.891357e+000
1.275588e+003,-8.696838e+000
1.276552e+003,-9.983521e+000
1.277517e+003,-9.494385e+000
1.278481e+003,-8.770081e+000
1.279445e+003,-7.922302e+000
1.280409e+003,-8.722900e+000
1.281374e+003,-1.284894e+001
1.282338e+003,-1.716223e+001
1.283302e+003,-2.042877e+001
1.284266e+003,-2.285809e+001
1.285230e+003,-2.428583e+001
1.286195e+003,-2.513153e+001
1.287159e+003,-2.683405e+001
1.288123e+003,-3.039087e+001
1.289087e+003,-3.405121e+001
1.290052e+003,-3.311505e+001
1.291016e+003,-2.543842e+001
1.291980e+003,-2.245038e+001
1.292944e+003,-2.807239e+001
1.293909e+003,-3.369073e+001
1.294873e+003,-3.513470e+001
1.295837e+003,-3.442462e+001
1.296801e+003,-3.448773e+001
1.297766e+003,-3.573438e+001
1.298730e+003,-3.736993e+001
1.299694e+003,-3.978699e+001
1.300658e+003,-4.164117e+001
1.301622e+003,-4.103131e+001
1.302587e+003,-3.870367e+001
1.303551e+003,-3.558472e+001
1.304515e+003,-3.182727e+001
1.305479e+003,-2.809070e+001
1.306444e+003,-2.504944e+001
1.307408e+003,-2.295508e+001
1.308372e+003,-2.222388e+001
1.309336e+003,-2.361816e+001
1.310301e+003,-2.413507e+001
1.311265e+003,-2.061395e+001
1.312229e+003,-1.940515e+001
1.313193e+003,-2.492175e+001
1.314157e+003,-3.218787e+001
1.315122e+003,-3.574200e+001
1.316086e+003,-3.540222e+001
1.317050e+003,-3.499231e+001
1.318014e+003,-3.689240e+001
1.318979e+003,-3.891992e+001
1.319943e+003,-3.697772e+001
1.320907e+003,-3.140656e+001
1.321871e+003,-2.768066e+001
1.322836e+003,-2.707733e+001
1.323800e+003,-2.670081e+001
1.324764e+003,-2.428021e+001
1.325728e+003,-2.132227e+001
1.326693e+003,-2.129266e+001
1.327657e+003,-2.460803e+001
1.328621e+003,-2.593744e+001
1.329585e+003,-2.069189e+001
1.330549e+003,-1.603064e+001
1.331514e+003,-1.782953e+001
1.332478e+003,-2.211737e+001
1.333442e+003,-2.528760e+001
1.334406e+003,-2.656818e+001
1.335371e+003,-2.633270e+001
1.336335e+003,-2.489807e+001
1.337299e+003,-2.294080e+001
1.338263e+003,-2.193677e+001
1.339228e+003,-2.203796e+001
1.340192e+003,-2.145007e+001
1.341156e+003,-1.950397e+001
1.342120e+003,-1.794220e+001
1.343084e+003,-1.757123e+001
1.344049e+003,-1.800922e+001
1.345013e+003,-1.880286e+001
1.345977e+003,-1.947589e+001
1.346941e+003,-1.936938e+001
1.347906e+003,-1.823358e+001
1.348870e+003,-1.729041e+001
1.349834e+003,-1.817389e+001
1.350798e+003,-1.999042e+001
1.351763e+003,-2.016150e+001
1.352727e+003,-1.895001e+001
1.353691e+003,-1.902197e+001
1.354655e+003,-2.181342e+001
1.355620e+003,-2.431934e+001
1.356584e+003,-2.167255e+001
1.357548e+003,-1.465509e+001
1.358512e+003,-1.222913e+001
1.359476e+003,-1.729572e+001
1.360441e+003,-2.177417e+001
1.361405e+003,-2.326868e+001
1.362369e+003,-2.360541e+001
1.363333e+003,-2.273297e+001
1.364298e+003,-2.165997e+001
1.365262e+003,-2.190320e+001
1.366226e+003,-2.354822e+001
1.367190e+003,-2.500000e+001
1.368155e+003,-2.482898e+001
1.369119e+003,-2.355957e+001
1.370083e+003,-2.277924e+001
1.371047e+003,-2.255475e+001
1.372011e+003,-2.134125e+001
1.372976e+003,-1.851978e+001
1.373940e+003,-1.658997e+001
1.374904e+003,-1.752368e+001
1.375868e+003,-1.875952e+001
1.376833e+003,-1.615735e+001
1.377797e+003,-1.033508e+001
1.378761e+003,-7.581970e+000
1.379725e+003,-1.140076e+001
1.380690e+003,-1.581305e+001
1.381654e+003,-1.359235e+001
1.382618e+003,-8.430359e+000
1.383582e+003,-5.542847e+000
1.384547e+003,-4.975647e+000
1.385511e+003,-3.875244e+000
1.386475e+003,-6.483154e-001
1.387439e+003,2.367737e+000
1.388403e+003,8.163452e-001
1.389368e+003,-5.328247e+000
1.390332e+003,-8.235107e+000
1.391296e+003,-6.067017e+000
1.392260e+003,-3.197693e+000
1.393225e+003,1.275574e+000
1.394189e+003,3.901794e+000
1.395153e+003,2.015381e-001
1.396117e+003,-5.542114e+000
1.397082e+003,-5.651978e+000
1.398046e+003,1.024170e+000
1.399010e+003,7.802979e+000
1.399974e+003,8.267273e+000
1.400938e+003,3.554077e+000
1.401903e+003,-1.440369e+000
1.402867e+003,-5.868530e+000
1.403831e+003,-8.008301e+000
1.404795e+003,-7.836548e+000
1.405760e+003,-6.767273e+000
1.406724e+003,-5.486694e+000
1.407688e+003,-4.988708e+000
1.408652e+003,-6.016235e+000
1.409617e+003,-7.699707e+000
1.410581e+003,-7.651001e+000
1.411545e+003,-4.623474e+000
1.412509e+003,-1.443420e+000
1.413474e+003,-1.511108e+000
1.414438e+003,-3.586853e+000
1.415402e+003,-4.831299e+000
1.416366e+003,-4.827942e+000
1.417330e+003,-3.895813e+000
1.418295e+003,-1.935120e+000
1.419259e+003,1.262207e-001
1.420223e+003,6.167603e-001
1.421187e+003,-3.649292e-001
1.422152e+003,-2.552490e-001
1.423116e+003,1.781494e+000
1.424080e+003,4.142029e+000
1.425044e+003,6.938721e+000
1.426009e+003,8.364197e+000
1.426973e+003,6.179565e+000
1.427937e+003,3.027405e+000
1.428901e+003,2.719788e+000
1.429865e+003,5.249573e+000
1.430830e+003,7.053467e+000
1.431794e+003,5.610046e+000
1.432758e+003,3.098450e+000
1.433722e+003,4.568176e+000
1.434687e+003,1.111719e+001
1.435651e+003,1.661237e+001
1.436615e+003,1.867511e+001
1.437579e+003,1.998926e+001
1.438544e+003,2.027631e+001
1.439508e+003,2.080554e+001
1.440472e+003,2.435760e+001
1.441436e+003,2.870123e+001
1.442401e+003,2.809259e+001
1.443365e+003,2.163348e+001
1.444329e+003,1.636255e+001
1.445293e+003,1.807147e+001
1.446257e+003,2.284644e+001
1.447222e+003,2.225861e+001
1.448186e+003,1.758386e+001
1.449150e+003,1.669818e+001
1.450114e+003,2.119824e+001
1.451079e+003,2.497168e+001
1.452043e+003,2.467633e+001
1.453007e+003,2.274091e+001
1.453971e+003,2.236090e+001
1.454936e+003,2.305127e+001
1.455900e+003,2.177795e+001
1.456864e+003,1.710498e+001
1.457828e+003,1.424597e+001
1.458792e+003,1.831116e+001
1.459757e+003,2.291656e+001
1.460721e+003,2.234790e+001
1.461685e+003,1.845593e+001
1.462649e+003,1.533856e+001
1.463614e+003,1.433527e+001
1.464578e+003,1.452570e+001
1.465542e+003,1.507825e+001
1.466506e+003,1.561243e+001
1.467471e+003,1.557568e+001
1.468435e+003,1.545105e+001
1.469399e+003,1.509900e+001
1.470363e+003,1.262708e+001
1.471328e+003,1.150439e+001
1.472292e+003,1.296466e+001
1.473256e+003,1.459998e+001
1.474220e+003,1.492816e+001
1.475184e+003,1.505438e+001
1.476149e+003,1.736084e+001
1.477113e+003,2.184180e+001
1.478077e+003,2.498706e+001
1.479041e+003,2.362933e+001
1.480006e+003,2.013739e+001
1.480970e+003,2.155145e+001
1.481934e+003,2.906488e+001
1.482898e+003,3.432141e+001
1.483863e+003,3.594836e+001
1.484827e+003,3.726624e+001
1.485791e+003,3.925482e+001
1.486755e+003,4.199048e+001
1.487719e+003,4.593951e+001
1.488684e+003,5.006653e+001
1.489648e+003,5.168616e+001
1.490612e+003,5.032709e+001
1.491576e+003,5.045728e+001
1.492541e+003,5.597430e+001
1.493505e+003,6.425482e+001
1.494469e+003,6.998865e+001
1.495433e+003,7.299316e+001
1.496398e+003,7.443481e+001
1.497362e+003,7.390637e+001
1.498326e+003,7.616364e+001
1.499290e+003,8.405829e+001
1.500255e+003,9.567023e+001
1.501219e+003,1.092860e+002
1.502183e+003,1.242128e+002
1.503147e+003,1.374511e+002
1.504111e+003,1.477140e+002
1.505076e+003,1.594330e+002
1.506040e+003,1.748510e+002
1.507004e+003,1.936731e+002
1.507968e+003,2.164088e+002
1.508933e+003,2.416637e+002
1.509897e+003,2.655944e+002
1.510861e+003,2.886140e+002
1.511825e+003,3.169609e+002
1.512790e+003,3.547277e+002
1.513754e+003,3.992590e+002
1.514718e+003,4.478802e+002
1.515682e+003,4.999822e+002
1.516646e+003,5.486464e+002
1.517611e+003,5.948569e+002
1.518575e+003,6.352797e+002
1.519539e+003,6.690494e+002
1.520503e+003,6.976942e+002
1.521468e+003,7.222015e+002
1.522432e+003,7.413813e+002
1.523396e+003,7.550867e+002
1.524360e+003,7.619540e+002
1.525325e+003,7.582872e+002
1.526289e+003,7.417682e+002
1.527253e+003,7.158674e+002
1.528217e+003,6.861550e+002
1.529182e+003,6.530887e+002
1.530146e+003,6.168094e+002
1.531110e+003,5.786207e+002
1.532074e+003,5.332000e+002
1.533039e+003,4.738185e+002
1.534003e+003,4.133021e+002
1.534967e+003,3.560710e+002
1.535931e+003,3.036826e+002
1.536896e+003,2.563825e+002
1.537860e+003,2.149066e+002
1.538824e+003,1.805156e+002
1.539788e+003,1.535030e+002
1.540752e+003,1.325111e+002
1.541717e+003,1.162321e+002
1.542681e+003,1.045746e+002
1.543645e+003,9.487598e+001
1.544609e+003,8.824384e+001
1.545573e+003,8.235571e+001
1.546538e+003,7.502661e+001
1.547502e+003,6.982379e+001
1.548466e+003,6.946057e+001
1.549430e+003,7.192773e+001
1.550395e+003,7.611591e+001
1.551359e+003,8.046045e+001
1.552323e+003,8.264612e+001
1.553287e+003,8.185406e+001
1.554252e+003,7.752722e+001
1.555216e+003,6.832495e+001
1.556180e+003,5.731964e+001
1.557144e+003,5.202234e+001
1.558109e+003,5.290100e+001
1.559073e+003,5.378461e+001
1.560037e+003,5.476117e+001
1.561001e+003,5.365320e+001
1.561966e+003,4.808856e+001
1.562930e+003,4.304138e+001
1.563894e+003,4.364020e+001
1.564858e+003,4.765497e+001
1.565823e+003,4.954413e+001
1.566787e+003,4.824298e+001
1.567751e+003,4.681958e+001
1.568715e+003,4.734491e+001
1.569679e+003,4.797162e+001
1.570644e+003,4.534869e+001
1.571608e+003,4.074414e+001
1.572572e+003,3.881830e+001
1.573536e+003,4.006134e+001
1.574500e+003,4.217432e+001
1.575465e+003,4.459161e+001
1.576429e+003,4.699042e+001
1.577393e+003,4.869733e+001
1.578357e+003,5.003546e+001
1.579322e+003,5.228436e+001
1.580286e+003,5.553979e+001
1.581250e+003,5.811816e+001
1.582214e+003,5.948126e+001
1.583179e+003,6.006183e+001
1.584143e+003,5.913171e+001
1.585107e+003,5.802838e+001
1.586071e+003,5.961243e+001
1.587036e+003,6.344507e+001
1.588000e+003,6.668896e+001
1.588964e+003,6.844867e+001
1.589928e+003,6.853949e+001
1.590893e+003,6.596527e+001
1.591857e+003,6.267755e+001
1.592821e+003,6.135126e+001
1.593785e+003,6.201648e+001
1.594750e+003,6.479224e+001
1.595714e+003,6.997552e+001
1.596678e+003,7.383594e+001
1.597642e+003,7.393988e+001
1.598606e+003,7.380591e+001
1.599571e+003,7.734564e+001
1.600535e+003,8.199756e+001
1.601499e+003,8.361023e+001
1.602463e+003,8.256311e+001
1.603427e+003,8.317847e+001
1.604392e+003,8.747827e+001
1.605356e+003,9.206274e+001
1.606320e+003,9.389636e+001
1.607284e+003,9.328857e+001
1.608249e+003,9.030731e+001
1.609213e+003,8.483484e+001
1.610177e+003,8.125812e+001
1.611141e+003,8.080920e+001
1.612106e+003,8.105829e+001
1.613070e+003,8.167682e+001
1.614034e+003,8.167987e+001
1.614998e+003,7.901422e+001
1.615963e+003,7.581860e+001
1.616927e+003,7.646588e+001
1.617891e+003,8.085699e+001
1.618855e+003,8.373334e+001
1.619820e+003,8.164581e+001
1.620784e+003,7.687292e+001
1.621748e+003,7.241290e+001
1.622712e+003,6.929803e+001
1.623677e+003,7.064398e+001
1.624641e+003,7.744836e+001
1.625605e+003,8.337158e+001
1.626569e+003,8.649921e+001
1.627533e+003,8.699054e+001
1.628498e+003,8.381628e+001
1.629462e+003,8.030420e+001
1.630426e+003,7.884650e+001
1.631390e+003,7.917712e+001
1.632354e+003,8.081989e+001
1.633319e+003,8.334686e+001
1.634283e+003,8.506250e+001
1.635247e+003,8.438635e+001
1.636211e+003,8.289954e+001
1.637176e+003,8.406494e+001
1.638140e+003,8.785052e+001
1.639104e+003,9.054303e+001
1.640068e+003,9.178021e+001
1.641033e+003,9.204065e+001
1.641997e+003,9.158270e+001
1.642961e+003,9.041504e+001
1.643925e+003,8.697894e+001
1.644890e+003,8.403699e+001
1.645854e+003,8.519220e+001
1.646818e+003,8.890521e+001
1.647782e+003,9.078015e+001
1.648747e+003,8.949622e+001
1.649711e+003,8.769208e+001
1.650675e+003,8.789551e+001
1.651639e+003,8.916333e+001
1.652604e+003,8.872260e+001
1.653568e+003,8.640503e+001
1.654532e+003,8.509607e+001
1.655496e+003,8.564453e+001
1.656460e+003,8.465466e+001
1.657425e+003,7.973621e+001
1.658389e+003,7.540552e+001
1.659353e+003,7.469788e+001
1.660317e+003,7.522235e+001
1.661281e+003,7.449261e+001
1.662246e+003,7.248932e+001
1.663210e+003,7.018555e+001
1.664174e+003,6.809784e+001
1.665138e+003,6.659656e+001
1.666103e+003,6.589014e+001
1.667067e+003,6.548578e+001
1.668031e+003,6.492499e+001
1.668995e+003,6.426709e+001
1.669960e+003,6.254987e+001
1.670924e+003,5.962933e+001
1.671888e+003,5.641534e+001
1.672852e+003,5.154938e+001
1.673817e+003,4.834216e+001
1.674781e+003,4.967273e+001
1.675745e+003,5.293896e+001
1.676709e+003,5.692224e+001
1.677674e+003,6.015985e+001
1.678638e+003,5.791241e+001
1.679602e+003,4.883411e+001
1.680566e+003,4.190851e+001
1.681531e+003,4.568805e+001
1.682495e+003,5.415723e+001
1.683459e+003,5.683191e+001
1.684423e+003,5.416687e+001
1.685387e+003,5.044617e+001
1.686352e+003,4.603845e+001
1.687316e+003,4.161334e+001
1.688280e+003,3.643420e+001
1.689244e+003,3.300018e+001
1.690208e+003,3.431903e+001
1.691173e+003,3.740143e+001
1.692137e+003,4.023218e+001
1.693101e+003,4.247974e+001
1.694065e+003,4.204584e+001
1.695030e+003,3.789703e+001
1.695994e+003,3.402527e+001
1.696958e+003,3.312366e+001
1.697922e+003,3.396454e+001
1.698887e+003,3.632117e+001
1.699851e+003,3.906555e+001
1.700815e+003,3.742761e+001
1.701779e+003,3.095343e+001
1.702744e+003,2.600220e+001
1.703708e+003,2.506885e+001
1.704672e+003,2.607288e+001
1.705636e+003,2.752209e+001
1.706601e+003,2.887244e+001
1.707565e+003,3.051794e+001
1.708529e+003,3.231073e+001
1.709493e+003,3.248724e+001
1.710458e+003,3.061090e+001
1.711422e+003,2.868286e+001
1.712386e+003,2.776080e+001
1.713350e+003,2.747888e+001
1.714314e+003,2.762805e+001
1.715279e+003,2.737067e+001
1.716243e+003,2.534088e+001
1.717207e+003,2.192896e+001
1.718171e+003,1.918646e+001
1.719135e+003,1.777856e+001
1.720100e+003,1.617395e+001
1.721064e+003,1.265125e+001
1.722028e+003,1.001270e+001
1.722992e+003,1.402026e+001
1.723957e+003,2.319873e+001
1.724921e+003,2.600958e+001
1.725885e+003,2.071777e+001
1.726849e+003,1.611548e+001
1.727814e+003,1.525153e+001
1.728778e+003,1.460687e+001
1.729742e+003,1.157422e+001
1.730706e+003,8.755005e+000
1.731671e+003,9.057251e+000
1.732635e+003,1.064380e+001
1.733599e+003,9.988037e+000
1.734563e+003,7.258057e+000
1.735528e+003,5.557129e+000
1.736492e+003,6.326111e+000
1.737456e+003,8.347107e+000
1.738420e+003,1.037775e+001
1.739385e+003,1.180554e+001
1.740349e+003,1.156403e+001
1.741313e+003,9.635193e+000
1.742277e+003,7.740845e+000
1.743241e+003,5.185913e+000
1.744206e+003,4.416626e+000
1.745170e+003,7.015259e+000
1.746134e+003,9.548767e+000
1.747098e+003,9.856323e+000
1.748063e+003,9.213440e+000
1.749027e+003,8.927185e+000
1.749991e+003,9.358948e+000
1.750955e+003,1.125208e+001
1.751919e+003,1.419775e+001
1.752884e+003,1.490802e+001
1.753848e+003,1.060126e+001
1.754812e+003,3.775818e+000
1.755776e+003,-4.065552e-001
1.756741e+003,-1.608948e+000
1.757705e+003,-3.427124e-001
1.758669e+003,4.729431e+000
1.759633e+003,7.283508e+000
1.760598e+003,4.483032e+000
1.761562e+003,1.593811e+000
1.762526e+003,-4.753418e-001
1.763490e+003,-6.784058e-001
1.764455e+003,3.361145e+000
1.765419e+003,9.010071e+000
1.766383e+003,1.216309e+001
1.767347e+003,1.217841e+001
1.768312e+003,1.053754e+001
1.769276e+003,7.780090e+000
1.770240e+003,4.993225e+000
1.771204e+003,4.159729e+000
1.772168e+003,4.515991e+000
1.773133e+003,2.427063e+000
1.774097e+003,-1.545776e+000
1.775061e+003,-5.941162e-001
1.776025e+003,6.445862e+000
1.776990e+003,1.129413e+001
1.777954e+003,1.118292e+001
1.778918e+003,9.818115e+000
1.779882e+003,9.759399e+000
1.780846e+003,9.176025e+000
1.781811e+003,4.481079e+000
1.782775e+003,-2.228271e+000
1.783739e+003,-3.486572e+000
1.784703e+003,2.441345e+000
1.785668e+003,7.225647e+000
1.786632e+003,6.408447e+000
1.787596e+003,3.780151e+000
1.788560e+003,1.401550e+000
1.789525e+003,4.819946e-001
1.790489e+003,3.107849e+000
1.791453e+003,7.864136e+000
1.792417e+003,1.087726e+001
1.793382e+003,1.144165e+001
1.794346e+003,1.164844e+001
1.795310e+003,1.257202e+001
1.796274e+003,1.305316e+001
1.797239e+003,1.173987e+001
1.798203e+003,1.015796e+001
1.799167e+003,1.195032e+001
1.800131e+003,1.726807e+001
1.801095e+003,1.889075e+001
1.802060e+003,1.561383e+001
1.803024e+003,1.260095e+001
1.803988e+003,9.436768e+000
1.804952e+003,7.140442e+000
1.805917e+003,6.518860e+000
1.806881e+003,6.694153e+000
1.807845e+003,7.414917e+000
1.808809e+003,8.237244e+000
1.809773e+003,7.953857e+000
1.810738e+003,6.721252e+000
1.811702e+003,6.791687e+000
1.812666e+003,9.485901e+000
1.813630e+003,1.288098e+001
1.814595e+003,1.458185e+001
1.815559e+003,1.447015e+001
1.816523e+003,1.151947e+001
1.817487e+003,5.153320e+000
1.818452e+003,4.512146e+000
1.819416e+003,1.356805e+001
1.820380e+003,1.901825e+001
1.821344e+003,1.419861e+001
1.822309e+003,8.476379e+000
1.823273e+003,7.534729e+000
1.824237e+003,8.847412e+000
1.825201e+003,9.907471e+000
1.826166e+003,1.069110e+001
1.827130e+003,1.242462e+001
1.828094e+003,1.506110e+001
1.829058e+003,1.496753e+001
1.830022e+003,9.021362e+000
1.830987e+003,3.572510e+000
1.831951e+003,5.257935e+000
1.832915e+003,9.641785e+000
1.833879e+003,9.920898e+000
1.834844e+003,7.241760e+000
1.835808e+003,6.062439e+000
1.836772e+003,7.046570e+000
1.837736e+003,8.117737e+000
1.838700e+003,8.189270e+000
1.839665e+003,7.832092e+000
1.840629e+003,7.710571e+000
1.841593e+003,7.851990e+000
1.842557e+003,8.018188e+000
1.843522e+003,8.187439e+000
1.844486e+003,8.316650e+000
1.845450e+003,8.793396e+000
1.846414e+003,9.520081e+000
1.847379e+003,9.463440e+000
1.848343e+003,9.714294e+000
1.849307e+003,1.150909e+001
1.850271e+003,1.323407e+001
1.851236e+003,1.396637e+001
1.852200e+003,1.414862e+001
1.853164e+003,1.409570e+001
1.854128e+003,1.346771e+001
1.855093e+003,1.154291e+001
1.856057e+003,8.688049e+000
1.857021e+003,7.448669e+000
1.857985e+003,9.988892e+000
1.858949e+003,1.373804e+001
1.859914e+003,1.381030e+001
1.860878e+003,1.127393e+001
1.861842e+003,1.217487e+001
1.862806e+003,1.651923e+001
1.863771e+003,1.847656e+001
1.864735e+003,1.639679e+001
1.865699e+003,1.420911e+001
1.866663e+003,1.368854e+001
1.867627e+003,1.420428e+001
1.868592e+003,1.544098e+001
1.869556e+003,1.641211e+001
1.870520e+003,1.580505e+001
1.871484e+003,1.380743e+001
1.872449e+003,1.170093e+001
1.873413e+003,1.012811e+001
1.874377e+003,1.102979e+001
1.875341e+003,1.596326e+001
1.876306e+003,2.019385e+001
1.877270e+003,2.096063e+001
1.878234e+003,1.978564e+001
1.879198e+003,1.710693e+001
1.880163e+003,1.453827e+001
1.881127e+003,1.517645e+001
1.882091e+003,1.864825e+001
1.883055e+003,2.133325e+001
1.884020e+003,2.180634e+001
1.884984e+003,2.273108e+001
1.885948e+003,2.669702e+001
1.886912e+003,3.081360e+001
1.887876e+003,2.870258e+001
1.888841e+003,2.117285e+001
1.889805e+003,1.800610e+001
1.890769e+003,2.000110e+001
1.891733e+003,2.214709e+001
1.892698e+003,2.392554e+001
1.893662e+003,2.518787e+001
1.894626e+003,2.600555e+001
1.895590e+003,2.641339e+001
1.896554e+003,2.629608e+001
1.897519e+003,2.630487e+001
1.898483e+003,2.714020e+001
1.899447e+003,2.813660e+001
1.900411e+003,2.795667e+001
1.901376e+003,2.643939e+001
1.902340e+003,2.547638e+001
1.903304e+003,2.559888e+001
1.904268e+003,2.655847e+001
1.905233e+003,3.012067e+001
1.906197e+003,3.295929e+001
1.907161e+003,3.036212e+001
1.908125e+003,2.532935e+001
1.909090e+003,2.285724e+001
1.910054e+003,2.315173e+001
1.911018e+003,2.481207e+001
1.911982e+003,2.723901e+001
1.912947e+003,2.923285e+001
1.913911e+003,2.980286e+001
1.914875e+003,2.973834e+001
1.915839e+003,3.018658e+001
1.916803e+003,3.058136e+001
1.917768e+003,2.927130e+001
1.918732e+003,2.593182e+001
1.919696e+003,2.502399e+001
1.920660e+003,2.771191e+001
1.921625e+003,3.044135e+001
1.922589e+003,3.258124e+001
1.923553e+003,3.384985e+001
1.924517e+003,3.273785e+001
1.925481e+003,3.200275e+001
1.926446e+003,3.571667e+001
1.927410e+003,4.098267e+001
1.928374e+003,4.102466e+001
1.929338e+003,3.570197e+001
1.930303e+003,3.264087e+001
1.931267e+003,3.490753e+001
1.932231e+003,3.776471e+001
1.933195e+003,3.892365e+001
1.934160e+003,3.925983e+001
1.935124e+003,3.918091e+001
1.936088e+003,3.859479e+001
1.937052e+003,3.784125e+001
1.938017e+003,3.697516e+001
1.938981e+003,3.495978e+001
1.939945e+003,3.227100e+001
1.940909e+003,3.219641e+001
1.941874e+003,3.574860e+001
1.942838e+003,3.837311e+001
1.943802e+003,3.605548e+001
1.944766e+003,3.169513e+001
1.945730e+003,3.019135e+001
1.946695e+003,3.103326e+001
1.947659e+003,3.254395e+001
1.948623e+003,3.472992e+001
1.949587e+003,3.648785e+001
1.950552e+003,3.814038e+001
1.951516e+003,3.829980e+001
1.952480e+003,3.553516e+001
1.953444e+003,3.316095e+001
1.954408e+003,3.318848e+001
1.955373e+003,3.467584e+001
1.956337e+003,3.795496e+001
1.957301e+003,4.234296e+001
1.958265e+003,4.356970e+001
1.959230e+003,4.114063e+001
1.960194e+003,3.948315e+001
1.961158e+003,3.908539e+001
1.962122e+003,3.831818e+001
1.963087e+003,3.583850e+001
1.964051e+003,3.424158e+001
1.965015e+003,3.582617e+001
1.965979e+003,3.903717e+001
1.966944e+003,4.272681e+001
1.967908e+003,4.577264e+001
1.968872e+003,4.689948e+001
1.969836e+003,4.630273e+001
1.970801e+003,4.504370e+001
1.971765e+003,4.373602e+001
1.972729e+003,4.339636e+001
1.973693e+003,4.503632e+001
1.974657e+003,4.748993e+001
1.975622e+003,4.884717e+001
1.976586e+003,4.942511e+001
1.977550e+003,5.105188e+001
1.978514e+003,5.340375e+001
1.979479e+003,5.304144e+001
1.980443e+003,4.963446e+001
1.981407e+003,4.817151e+001
1.982371e+003,5.076013e+001
1.983335e+003,5.380640e+001
1.984300e+003,5.440094e+001
1.985264e+003,5.358545e+001
1.986228e+003,5.320020e+001
1.987192e+003,5.307660e+001
1.988157e+003,5.232025e+001
1.989121e+003,5.073914e+001
1.990085e+003,5.044550e+001
1.991049e+003,5.274048e+001
1.992014e+003,5.417371e+001
1.992978e+003,5.408032e+001
1.993942e+003,5.294403e+001
1.994906e+003,4.872479e+001
1.995871e+003,4.581152e+001
1.996835e+003,4.916925e+001
1.997799e+003,5.510254e+001
1.998763e+003,5.789124e+001
1.999728e+003,5.757190e+001
