5.003444e+002,3.697653e+001
5.013087e+002,3.637900e+001
5.022729e+002,3.614896e+001
5.032371e+002,3.637294e+001
5.042014e+002,3.686984e+001
5.051656e+002,3.759790e+001
5.061298e+002,3.808852e+001
5.070941e+002,3.779247e+001
5.080583e+002,3.629501e+001
5.090225e+002,3.612495e+001
5.099868e+002,3.840627e+001
5.109510e+002,4.040472e+001
5.119152e+002,4.061667e+001
5.128795e+002,3.889149e+001
5.138437e+002,3.700742e+001
5.148079e+002,3.507266e+001
5.157722e+002,3.360945e+001
5.167364e+002,3.327083e+001
5.177006e+002,3.379730e+001
5.186649e+002,3.393872e+001
5.196291e+002,3.138208e+001
5.205933e+002,2.840013e+001
5.215576e+002,2.785992e+001
5.225218e+002,2.971500e+001
5.234860e+002,3.217485e+001
5.244503e+002,3.210081e+001
5.254145e+002,2.859521e+001
5.263787e+002,2.652957e+001
5.273430e+002,2.630717e+001
5.283072e+002,2.722321e+001
5.292714e+002,2.858966e+001
5.302357e+002,3.125494e+001
5.311999e+002,3.185605e+001
5.321641e+002,2.903323e+001
5.331284e+002,2.544130e+001
5.340926e+002,2.280597e+001
5.350568e+002,2.167195e+001
5.360211e+002,2.172865e+001
5.369853e+002,2.434642e+001
5.379495e+002,2.717072e+001
5.389138e+002,2.782605e+001
5.398780e+002,2.555002e+001
5.408422e+002,2.165694e+001
5.418065e+002,1.977625e+001
5.427707e+002,1.962943e+001
5.437349e+002,1.941130e+001
5.446992e+002,1.851941e+001
5.456634e+002,1.731651e+001
5.466276e+002,1.715645e+001
5.475919e+002,2.011690e+001
5.485561e+002,2.157225e+001
5.495203e+002,2.024356e+001
5.504846e+002,1.760355e+001
5.514488e+002,1.581682e+001
5.524130e+002,1.592499e+001
5.533773e+002,1.649524e+001
5.543415e+002,1.694765e+001
5.553057e+002,1.725165e+001
5.562700e+002,1.728368e+001
5.572342e+002,1.695946e+001
5.581984e+002,1.650551e+001
5.591627e+002,1.662923e+001
5.601269e+002,1.717635e+001
5.610911e+002,1.777272e+001
5.620554e+002,1.821130e+001
5.630196e+002,1.843300e+001
5.639838e+002,1.825772e+001
5.649481e+002,1.750514e+001
5.659123e+002,1.664290e+001
5.668765e+002,1.577711e+001
5.678408e+002,1.499751e+001
5.688050e+002,1.436972e+001
5.697692e+002,1.365688e+001
5.707335e+002,1.316513e+001
5.716977e+002,1.363414e+001
5.726619e+002,1.424754e+001
5.736262e+002,1.361798e+001
5.745904e+002,1.050620e+001
5.755546e+002,7.230347e+000
5.765189e+002,7.522583e+000
5.774831e+002,9.992477e+000
5.784473e+002,1.254805e+001
5.794116e+002,1.380428e+001
5.803758e+002,1.394978e+001
5.813400e+002,1.436937e+001
5.823043e+002,1.531520e+001
5.832685e+002,1.546994e+001
5.842327e+002,1.392024e+001
5.851970e+002,1.109203e+001
5.861612e+002,9.328934e+000
5.871254e+002,9.650818e+000
5.880897e+002,1.023416e+001
5.890539e+002,1.109087e+001
5.900181e+002,1.185541e+001
5.909824e+002,1.195465e+001
5.919466e+002,1.076306e+001
5.929108e+002,9.518265e+000
5.938751e+002,9.765091e+000
5.948393e+002,1.077278e+001
5.958035e+002,1.144754e+001
5.967678e+002,1.100539e+001
5.977320e+002,9.651047e+000
5.986962e+002,8.448242e+000
5.996605e+002,7.200104e+000
6.006247e+002,6.322205e+000
6.015889e+002,6.265244e+000
6.025532e+002,6.956085e+000
6.035174e+002,7.107697e+000
6.044816e+002,5.639404e+000
6.054459e+002,4.846985e+000
6.064101e+002,5.334000e+000
6.073743e+002,6.670990e+000
6.083386e+002,8.157684e+000
6.093028e+002,9.724548e+000
6.102670e+002,1.078584e+001
6.112313e+002,1.070815e+001
6.121955e+002,1.004037e+001
6.131597e+002,9.559418e+000
6.141240e+002,9.780228e+000
6.150882e+002,1.037851e+001
6.160524e+002,9.891724e+000
6.170167e+002,8.571381e+000
6.179809e+002,7.138046e+000
6.189451e+002,5.652115e+000
6.199094e+002,4.191116e+000
6.208736e+002,3.731018e+000
6.218378e+002,5.878326e+000
6.228021e+002,7.439072e+000
6.237663e+002,8.135742e+000
6.247305e+002,8.117081e+000
6.256948e+002,7.480789e+000
6.266590e+002,5.788528e+000
6.276232e+002,4.311493e+000
6.285875e+002,3.845322e+000
6.295517e+002,4.047836e+000
6.305159e+002,4.716400e+000
6.314802e+002,5.658875e+000
6.324444e+002,6.558517e+000
6.334086e+002,6.655914e+000
6.343729e+002,6.193985e+000
6.353371e+002,5.163101e+000
6.363013e+002,3.353088e+000
6.372656e+002,1.165207e+000
6.382298e+002,1.347046e-001
6.391940e+002,1.414520e+000
6.401583e+002,2.410126e+000
6.411225e+002,3.164566e+000
6.420867e+002,3.785782e+000
6.430510e+002,4.440994e+000
6.440152e+002,5.272629e+000
6.449794e+002,5.356812e+000
6.459437e+002,3.413330e+000
6.469079e+002,1.252670e+000
6.478721e+002,5.101013e-001
6.488364e+002,1.655533e+000
6.498006e+002,3.525894e+000
6.507648e+002,3.983261e+000
6.517291e+002,3.482620e+000
6.526933e+002,3.193909e+000
6.536575e+002,3.337906e+000
6.546218e+002,3.636826e+000
6.555860e+002,3.528168e+000
6.565502e+002,2.533539e+000
6.575145e+002,2.193451e+000
6.584787e+002,2.558701e+000
6.594429e+002,3.439621e+000
6.604072e+002,5.186081e+000
6.613714e+002,8.072906e+000
6.623356e+002,9.577530e+000
6.632999e+002,6.784790e+000
6.642641e+002,3.676117e+000
6.652283e+002,2.489914e+000
6.661926e+002,3.308899e+000
6.671568e+002,4.621368e+000
6.681210e+002,4.535217e+000
6.690853e+002,3.639496e+000
6.700495e+002,3.794205e+000
6.710137e+002,4.972473e+000
6.719780e+002,6.233612e+000
6.729422e+002,6.582733e+000
6.739064e+002,5.869095e+000
6.748707e+002,4.774200e+000
6.758349e+002,2.800797e+000
6.767991e+002,1.090225e+000
6.777634e+002,1.429749e-001
6.787276e+002,0.000000e+000
6.796918e+002,3.939209e-001
6.806561e+002,1.488159e+000
6.816203e+002,2.711334e+000
6.825845e+002,4.021103e+000
6.835488e+002,5.274094e+000
6.845130e+002,6.287552e+000
6.854772e+002,6.937225e+000
6.864415e+002,7.380402e+000
6.874057e+002,7.964355e+000
6.883699e+002,8.474167e+000
6.893342e+002,8.529037e+000
6.902984e+002,7.932083e+000
6.912626e+002,6.773010e+000
6.922269e+002,5.452911e+000
6.931911e+002,3.494614e+000
6.941553e+002,2.326431e+000
6.951196e+002,2.235794e+000
6.960838e+002,2.769424e+000
6.970480e+002,3.363052e+000
6.980123e+002,4.080887e+000
6.989765e+002,4.510422e+000
6.999407e+002,4.079102e+000
7.009050e+002,3.608017e+000
7.018692e+002,3.989990e+000
7.028334e+002,5.379059e+000
7.037977e+002,6.806931e+000
7.047619e+002,6.676300e+000
7.057261e+002,5.551453e+000
7.066904e+002,4.149734e+000
7.076546e+002,2.584824e+000
7.086188e+002,1.432800e+000
7.095831e+002,1.705109e+000
7.105473e+002,4.091080e+000
7.115115e+002,5.582611e+000
7.124758e+002,5.838928e+000
7.134400e+002,5.695648e+000
7.144042e+002,5.402908e+000
7.153685e+002,5.062424e+000
7.163327e+002,5.397781e+000
7.172969e+002,8.387421e+000
7.182612e+002,1.057884e+001
7.192254e+002,9.793579e+000
7.201896e+002,7.029022e+000
7.211539e+002,4.503174e+000
7.221181e+002,4.083786e+000
7.230823e+002,5.063248e+000
7.240466e+002,5.642365e+000
7.250108e+002,5.899063e+000
7.259750e+002,5.477295e+000
7.269393e+002,3.883652e+000
7.279035e+002,1.324875e+000
7.288677e+002,3.246918e-001
7.298320e+002,3.175110e+000
7.307962e+002,5.153854e+000
7.317604e+002,5.489761e+000
7.327247e+002,5.001587e+000
7.336889e+002,4.778534e+000
7.346531e+002,5.066788e+000
7.356174e+002,5.071213e+000
7.365816e+002,4.204849e+000
7.375458e+002,3.357346e+000
7.385101e+002,3.271774e+000
7.394743e+002,4.076569e+000
7.404385e+002,5.266617e+000
7.414028e+002,6.121033e+000
7.423670e+002,6.455902e+000
7.433312e+002,6.473679e+000
7.442955e+002,6.309738e+000
7.452597e+002,6.119095e+000
7.462239e+002,5.962296e+000
7.471882e+002,5.743729e+000
7.481524e+002,5.814148e+000
7.491166e+002,5.773438e+000
7.500809e+002,6.125259e+000
7.510451e+002,7.787933e+000
7.520093e+002,1.013443e+001
7.529736e+002,1.094333e+001
7.539378e+002,8.174591e+000
7.549020e+002,5.397568e+000
7.558663e+002,4.978455e+000
7.568306e+002,5.914780e+000
7.577948e+002,6.822510e+000
7.587590e+002,6.828125e+000
7.597233e+002,6.204605e+000
7.606875e+002,5.966049e+000
7.616517e+002,6.123062e+000
7.626160e+002,6.069885e+000
7.635802e+002,5.479370e+000
7.645444e+002,4.820801e+000
7.655087e+002,5.199295e+000
7.664729e+002,7.521103e+000
7.674371e+002,8.780029e+000
7.684014e+002,8.271118e+000
7.693656e+002,7.324799e+000
7.703298e+002,6.489594e+000
7.712941e+002,5.982224e+000
7.722583e+002,6.261597e+000
7.732225e+002,8.529907e+000
7.741868e+002,1.090726e+001
7.751510e+002,1.175012e+001
7.761152e+002,1.141049e+001
7.770795e+002,1.103290e+001
7.780437e+002,1.161931e+001
7.790079e+002,1.293077e+001
7.799722e+002,1.284779e+001
7.809364e+002,1.122377e+001
7.819006e+002,1.000458e+001
7.828649e+002,1.032790e+001
7.838291e+002,1.172725e+001
7.847933e+002,1.247409e+001
7.857576e+002,1.212770e+001
7.867218e+002,1.139041e+001
7.876860e+002,9.958954e+000
7.886503e+002,8.730072e+000
7.896145e+002,8.651031e+000
7.905787e+002,9.878815e+000
7.915430e+002,1.124599e+001
7.925072e+002,1.135143e+001
7.934714e+002,1.080527e+001
7.944357e+002,1.028464e+001
7.953999e+002,9.942276e+000
7.963641e+002,9.732040e+000
7.973284e+002,9.562286e+000
7.982926e+002,9.431778e+000
7.992568e+002,9.443695e+000
8.002211e+002,9.395340e+000
8.011853e+002,9.349701e+000
8.021495e+002,9.546478e+000
8.031138e+002,1.003603e+001
8.040780e+002,1.060110e+001
8.050422e+002,1.125252e+001
8.060065e+002,1.156438e+001
8.069707e+002,1.127483e+001
8.079349e+002,1.060684e+001
8.088992e+002,9.509064e+000
8.098634e+002,8.139877e+000
8.108276e+002,7.366669e+000
8.117919e+002,9.077774e+000
8.127561e+002,1.182025e+001
8.137203e+002,1.290419e+001
8.146846e+002,1.212706e+001
8.156488e+002,1.043834e+001
8.166130e+002,8.785568e+000
8.175773e+002,6.932953e+000
8.185415e+002,6.438965e+000
8.195057e+002,8.320831e+000
8.204700e+002,9.863861e+000
8.214342e+002,9.758011e+000
8.223984e+002,8.630371e+000
8.233627e+002,8.337372e+000
8.243269e+002,1.008705e+001
8.252911e+002,1.164223e+001
8.262554e+002,1.180409e+001
8.272196e+002,1.111070e+001
8.281838e+002,9.721985e+000
8.291481e+002,7.921432e+000
8.301123e+002,6.431625e+000
8.310765e+002,6.751831e+000
8.320408e+002,8.693329e+000
8.330050e+002,9.697754e+000
8.339692e+002,9.468155e+000
8.349335e+002,8.890045e+000
8.358977e+002,8.940872e+000
8.368619e+002,9.807648e+000
8.378262e+002,1.030534e+001
8.387904e+002,9.658096e+000
8.397546e+002,9.347153e+000
8.407189e+002,1.032230e+001
8.416831e+002,1.175865e+001
8.426473e+002,1.190810e+001
8.436116e+002,9.629822e+000
8.445758e+002,7.579880e+000
8.455400e+002,9.079514e+000
8.465043e+002,1.192778e+001
8.474685e+002,1.396213e+001
8.484327e+002,1.458530e+001
8.493970e+002,1.436992e+001
8.503612e+002,1.412379e+001
8.513254e+002,1.377234e+001
8.522897e+002,1.370601e+001
8.532539e+002,1.414644e+001
8.542181e+002,1.443274e+001
8.551824e+002,1.402310e+001
8.561466e+002,1.315147e+001
8.571108e+002,1.303893e+001
8.580751e+002,1.414481e+001
8.590393e+002,1.536798e+001
8.600035e+002,1.674242e+001
8.609678e+002,1.800201e+001
8.619320e+002,1.890488e+001
8.628962e+002,1.932910e+001
8.638605e+002,1.922514e+001
8.648247e+002,1.784428e+001
8.657889e+002,1.612115e+001
8.667532e+002,1.652420e+001
8.677174e+002,1.936472e+001
8.686816e+002,2.263571e+001
8.696459e+002,2.410187e+001
8.706101e+002,2.362907e+001
8.715743e+002,2.257993e+001
8.725386e+002,1.909111e+001
8.735028e+002,1.740506e+001
8.744670e+002,2.006799e+001
8.754313e+002,2.478784e+001
8.763955e+002,2.717845e+001
8.773597e+002,2.536273e+001
8.783240e+002,2.288673e+001
8.792882e+002,2.161481e+001
8.802524e+002,2.129439e+001
8.812167e+002,2.218048e+001
8.821809e+002,2.404321e+001
8.831451e+002,2.614342e+001
8.841094e+002,2.757301e+001
8.850736e+002,2.834380e+001
8.860378e+002,2.828830e+001
8.870021e+002,2.704572e+001
8.879663e+002,2.611513e+001
8.889305e+002,2.659473e+001
8.898948e+002,2.811084e+001
8.908590e+002,2.884598e+001
8.918232e+002,2.818744e+001
8.927875e+002,2.770010e+001
8.937517e+002,2.724788e+001
8.947159e+002,2.740161e+001
8.956802e+002,2.934088e+001
8.966444e+002,3.279590e+001
8.976086e+002,3.510730e+001
8.985729e+002,3.274092e+001
8.995371e+002,2.851222e+001
9.005013e+002,2.714830e+001
9.014656e+002,2.846201e+001
9.024298e+002,3.065115e+001
9.033940e+002,3.236320e+001
9.043583e+002,3.358791e+001
9.053225e+002,3.488420e+001
9.062867e+002,3.672520e+001
9.072510e+002,3.779955e+001
9.082152e+002,3.794171e+001
9.091794e+002,3.760374e+001
9.101437e+002,3.710672e+001
9.111079e+002,3.648685e+001
9.120721e+002,3.585509e+001
9.130364e+002,3.470848e+001
9.140006e+002,3.393359e+001
9.149648e+002,3.436386e+001
9.159291e+002,3.570825e+001
9.168933e+002,3.737967e+001
9.178575e+002,3.889664e+001
9.188218e+002,3.997665e+001
9.197860e+002,3.949753e+001
9.207502e+002,3.737354e+001
9.217145e+002,3.570787e+001
9.226787e+002,3.508813e+001
9.236429e+002,3.512585e+001
9.246072e+002,3.537437e+001
9.255714e+002,3.588306e+001
9.265356e+002,3.594238e+001
9.274999e+002,3.512013e+001
9.284641e+002,3.409766e+001
9.294283e+002,3.296648e+001
9.303926e+002,3.190277e+001
9.313568e+002,3.116922e+001
9.323210e+002,3.091704e+001
9.332853e+002,3.074026e+001
9.342495e+002,2.965614e+001
9.352137e+002,2.825410e+001
9.361780e+002,2.776607e+001
9.371422e+002,2.850095e+001
9.381064e+002,2.951550e+001
9.390707e+002,2.941887e+001
9.400349e+002,2.790503e+001
9.409991e+002,2.666959e+001
9.419634e+002,2.526001e+001
9.429276e+002,2.459415e+001
9.438918e+002,2.562372e+001
9.448561e+002,2.735858e+001
9.458203e+002,2.805435e+001
9.467845e+002,2.709401e+001
9.477488e+002,2.595212e+001
9.487130e+002,2.542026e+001
9.496772e+002,2.535033e+001
9.506415e+002,2.598189e+001
9.516057e+002,2.707332e+001
9.525699e+002,2.794737e+001
9.535342e+002,2.793768e+001
9.544984e+002,2.706081e+001
9.554626e+002,2.553644e+001
9.564269e+002,2.317908e+001
9.573911e+002,2.166203e+001
9.583553e+002,2.170932e+001
9.593196e+002,2.268326e+001
9.602838e+002,2.379010e+001
9.612480e+002,2.521124e+001
9.622123e+002,2.568307e+001
9.631765e+002,2.406161e+001
9.641407e+002,2.228387e+001
9.651050e+002,2.099057e+001
9.660692e+002,2.023708e+001
9.670334e+002,1.981947e+001
9.679977e+002,1.964690e+001
9.689619e+002,2.006668e+001
9.699261e+002,2.227806e+001
9.708904e+002,2.554848e+001
9.718546e+002,2.790578e+001
9.728188e+002,2.878276e+001
9.737831e+002,2.906918e+001
9.747473e+002,3.007619e+001
9.757115e+002,3.208568e+001
9.766758e+002,3.344061e+001
9.776400e+002,3.413818e+001
9.786042e+002,3.433333e+001
9.795685e+002,3.394106e+001
9.805327e+002,3.297145e+001
9.814969e+002,3.127806e+001
9.824612e+002,2.886565e+001
9.834254e+002,2.667755e+001
9.843896e+002,2.594884e+001
9.853539e+002,2.558379e+001
9.863181e+002,2.434254e+001
9.872823e+002,2.222194e+001
9.882466e+002,1.990215e+001
9.892108e+002,1.803030e+001
9.901750e+002,1.673376e+001
9.911393e+002,1.617453e+001
9.921035e+002,1.652380e+001
9.930677e+002,1.692473e+001
9.940320e+002,1.817311e+001
9.949962e+002,1.900925e+001
9.959604e+002,1.751599e+001
9.969247e+002,1.378281e+001
9.978889e+002,1.164500e+001
9.988531e+002,1.369208e+001
9.998174e+002,1.671254e+001
1.000782e+003,1.965599e+001
1.001746e+003,2.200012e+001
1.002710e+003,2.294984e+001
1.003674e+003,2.225731e+001
1.004639e+003,2.064755e+001
1.005603e+003,1.937059e+001
1.006567e+003,1.842897e+001
1.007531e+003,1.757635e+001
1.008495e+003,1.695804e+001
1.009460e+003,1.617191e+001
1.010424e+003,1.478265e+001
1.011388e+003,1.303110e+001
1.012352e+003,1.181731e+001
1.013317e+003,1.119608e+001
1.014281e+003,1.120079e+001
1.015245e+003,1.197095e+001
1.016209e+003,1.299316e+001
1.017174e+003,1.424445e+001
1.018138e+003,1.545543e+001
1.019102e+003,1.607314e+001
1.020066e+003,1.564693e+001
1.021031e+003,1.443652e+001
1.021995e+003,1.263335e+001
1.022959e+003,1.034302e+001
1.023923e+003,8.876617e+000
1.024887e+003,8.805466e+000
1.025852e+003,9.460358e+000
1.026816e+003,9.852325e+000
1.027780e+003,9.988556e+000
1.028744e+003,1.013055e+001
1.029709e+003,1.036992e+001
1.030673e+003,1.049857e+001
1.031637e+003,1.018442e+001
1.032601e+003,9.782593e+000
1.033566e+003,9.877579e+000
1.034530e+003,1.068457e+001
1.035494e+003,1.173999e+001
1.036458e+003,1.297342e+001
1.037422e+003,1.371439e+001
1.038387e+003,1.219139e+001
1.039351e+003,8.732086e+000
1.040315e+003,6.436737e+000
1.041279e+003,7.904602e+000
1.042244e+003,1.212329e+001
1.043208e+003,1.383658e+001
1.044172e+003,1.090866e+001
1.045136e+003,8.815353e+000
1.046101e+003,7.672241e+000
1.047065e+003,7.396530e+000
1.048029e+003,8.356140e+000
1.048993e+003,1.015685e+001
1.049958e+003,1.154111e+001
1.050922e+003,1.177800e+001
1.051886e+003,1.198071e+001
1.052850e+003,1.404240e+001
1.053814e+003,1.640657e+001
1.054779e+003,1.677203e+001
1.055743e+003,1.476836e+001
1.056707e+003,1.183331e+001
1.057671e+003,9.624039e+000
1.058636e+003,8.126282e+000
1.059600e+003,7.848541e+000
1.060564e+003,9.668518e+000
1.061528e+003,1.156114e+001
1.062493e+003,1.362846e+001
1.063457e+003,1.525909e+001
1.064421e+003,1.578658e+001
1.065385e+003,1.517844e+001
1.066349e+003,1.388625e+001
1.067314e+003,1.098546e+001
1.068278e+003,8.914978e+000
1.069242e+003,1.016408e+001
1.070206e+003,1.309346e+001
1.071171e+003,1.507457e+001
1.072135e+003,1.497215e+001
1.073099e+003,1.368640e+001
1.074063e+003,1.275655e+001
1.075028e+003,1.223378e+001
1.075992e+003,1.202875e+001
1.076956e+003,1.224767e+001
1.077920e+003,1.240898e+001
1.078885e+003,1.245970e+001
1.079849e+003,1.240793e+001
1.080813e+003,1.208624e+001
1.081777e+003,1.136000e+001
1.082741e+003,1.106329e+001
1.083706e+003,1.225903e+001
1.084670e+003,1.328416e+001
1.085634e+003,1.281509e+001
1.086598e+003,1.152130e+001
1.087563e+003,1.101196e+001
1.088527e+003,1.213663e+001
1.089491e+003,1.386159e+001
1.090455e+003,1.399377e+001
1.091420e+003,1.225069e+001
1.092384e+003,1.077039e+001
1.093348e+003,9.287964e+000
1.094312e+003,8.385651e+000
1.095276e+003,8.717407e+000
1.096241e+003,9.971649e+000
1.097205e+003,1.116835e+001
1.098169e+003,1.235626e+001
1.099133e+003,1.282228e+001
1.100098e+003,1.137936e+001
1.101062e+003,1.010835e+001
1.102026e+003,1.052844e+001
1.102990e+003,1.223279e+001
1.103955e+003,1.404912e+001
1.104919e+003,1.523715e+001
1.105883e+003,1.582674e+001
1.106847e+003,1.588733e+001
1.107812e+003,1.537207e+001
1.108776e+003,1.456506e+001
1.109740e+003,1.336954e+001
1.110704e+003,1.210457e+001
1.111668e+003,1.093112e+001
1.112633e+003,9.951630e+000
1.113597e+003,9.452179e+000
1.114561e+003,9.560257e+000
1.115525e+003,9.780807e+000
1.116490e+003,9.707062e+000
1.117454e+003,9.874680e+000
1.118418e+003,1.108585e+001
1.119382e+003,1.290280e+001
1.120347e+003,1.412465e+001
1.121311e+003,1.395668e+001
1.122275e+003,1.286243e+001
1.123239e+003,1.175836e+001
1.124203e+003,1.083115e+001
1.125168e+003,1.106178e+001
1.126132e+003,1.328049e+001
1.127096e+003,1.475316e+001
1.128060e+003,1.233800e+001
1.129025e+003,7.145462e+000
1.129989e+003,4.850830e+000
1.130953e+003,7.074707e+000
1.131917e+003,9.346512e+000
1.132882e+003,1.045871e+001
1.133846e+003,1.129251e+001
1.134810e+003,1.231136e+001
1.135774e+003,1.353314e+001
1.136739e+003,1.482658e+001
1.137703e+003,1.610619e+001
1.138667e+003,1.728475e+001
1.139631e+003,1.823800e+001
1.140595e+003,1.893279e+001
1.141560e+003,1.938154e+001
1.142524e+003,1.954284e+001
1.143488e+003,1.982805e+001
1.144452e+003,2.050674e+001
1.145417e+003,2.149837e+001
1.146381e+003,2.254752e+001
1.147345e+003,2.362334e+001
1.148309e+003,2.471325e+001
1.149274e+003,2.536604e+001
1.150238e+003,2.654246e+001
1.151202e+003,2.929342e+001
1.152166e+003,3.287241e+001
1.153130e+003,3.596860e+001
1.154095e+003,3.787840e+001
1.155059e+003,3.870702e+001
1.156023e+003,3.861209e+001
1.156987e+003,3.768826e+001
1.157952e+003,3.663494e+001
1.158916e+003,3.558775e+001
1.159880e+003,3.440621e+001
1.160844e+003,3.284518e+001
1.161809e+003,3.091891e+001
1.162773e+003,2.869458e+001
1.163737e+003,2.595416e+001
1.164701e+003,2.397752e+001
1.165666e+003,2.442008e+001
1.166630e+003,2.437159e+001
1.167594e+003,2.218914e+001
1.168558e+003,1.908364e+001
1.169522e+003,1.653724e+001
1.170487e+003,1.514780e+001
1.171451e+003,1.492570e+001
1.172415e+003,1.606006e+001
1.173379e+003,1.811694e+001
1.174344e+003,1.902838e+001
1.175308e+003,1.892907e+001
1.176272e+003,1.775715e+001
1.177236e+003,1.431039e+001
1.178201e+003,1.072526e+001
1.179165e+003,1.015863e+001
1.180129e+003,1.260226e+001
1.181093e+003,1.398611e+001
1.182057e+003,1.295718e+001
1.183022e+003,1.158131e+001
1.183986e+003,1.013400e+001
1.184950e+003,9.106483e+000
1.185914e+003,9.256996e+000
1.186879e+003,1.038931e+001
1.187843e+003,1.142573e+001
1.188807e+003,1.145947e+001
1.189771e+003,1.086804e+001
1.190736e+003,1.089102e+001
1.191700e+003,1.159711e+001
1.192664e+003,1.218095e+001
1.193628e+003,1.285212e+001
1.194593e+003,1.311761e+001
1.195557e+003,1.225153e+001
1.196521e+003,1.064942e+001
1.197485e+003,9.888412e+000
1.198449e+003,1.058287e+001
1.199414e+003,1.094972e+001
1.200378e+003,9.161987e+000
1.201342e+003,7.712372e+000
1.202306e+003,8.739464e+000
1.203271e+003,1.125484e+001
1.204235e+003,1.310297e+001
1.205199e+003,1.320206e+001
1.206163e+003,1.211420e+001
1.207128e+003,1.066537e+001
1.208092e+003,8.828262e+000
1.209056e+003,7.650589e+000
1.210020e+003,7.337936e+000
1.210984e+003,7.139778e+000
1.211949e+003,6.830299e+000
1.212913e+003,6.499046e+000
1.213877e+003,6.463615e+000
1.214841e+003,6.725670e+000
1.215806e+003,6.365997e+000
1.216770e+003,4.639923e+000
1.217734e+003,2.767540e+000
1.218698e+003,1.208862e+000
1.219663e+003,1.595688e-001
1.220627e+003,2.980042e-002
1.221591e+003,7.608032e-001
1.222555e+003,1.871315e+000
1.223520e+003,2.956741e+000
1.224484e+003,3.903999e+000
1.225448e+003,4.043243e+000
1.226412e+003,2.904167e+000
1.227376e+003,1.906158e+000
1.228341e+003,7.360687e-001
1.229305e+003,7.629395e-006
1.230269e+003,2.869568e-001
1.231233e+003,1.164322e+000
1.232198e+003,1.748528e+000
1.233162e+003,1.826714e+000
1.234126e+003,1.995537e+000
1.235090e+003,2.866943e+000
1.236055e+003,3.755959e+000
1.237019e+003,3.891434e+000
1.237983e+003,3.437943e+000
1.238947e+003,2.926346e+000
1.239911e+003,2.611603e+000
1.240876e+003,2.327927e+000
1.241840e+003,1.684303e+000
1.242804e+003,6.047287e-001
1.243768e+003,5.981750e-001
1.244733e+003,2.944862e+000
1.245697e+003,4.709862e+000
1.246661e+003,5.647324e+000
1.247625e+003,5.848137e+000
1.248590e+003,4.919289e+000
1.249554e+003,3.420296e+000
1.250518e+003,2.805473e+000
1.251482e+003,3.753220e+000
1.252447e+003,5.044952e+000
1.253411e+003,5.278229e+000
1.254375e+003,4.879318e+000
1.255339e+003,4.650681e+000
1.256303e+003,4.664185e+000
1.257268e+003,4.891159e+000
1.258232e+003,5.367043e+000
1.259196e+003,5.821991e+000
1.260160e+003,5.750923e+000
1.261125e+003,5.111671e+000
1.262089e+003,4.576805e+000
1.263053e+003,3.973038e+000
1.264017e+003,3.682838e+000
1.264982e+003,3.752213e+000
1.265946e+003,4.243141e+000
1.266910e+003,5.780228e+000
1.267874e+003,7.844757e+000
1.268839e+003,8.659172e+000
1.269803e+003,7.019562e+000
1.270767e+003,4.386055e+000
1.271731e+003,3.717087e+000
1.272695e+003,4.971642e+000
1.273660e+003,5.222763e+000
1.274624e+003,3.909889e+000
1.275588e+003,2.639671e+000
1.276552e+003,2.201561e+000
1.277517e+003,2.503204e+000
1.278481e+003,3.517776e+000
1.279445e+003,5.302284e+000
1.280409e+003,6.684647e+000
1.281374e+003,7.383072e+000
1.282338e+003,7.418457e+000
1.283302e+003,6.523125e+000
1.284266e+003,5.206261e+000
1.285230e+003,3.647400e+000
1.286195e+003,2.199715e+000
1.287159e+003,1.863792e+000
1.288123e+003,3.504250e+000
1.289087e+003,6.185143e+000
1.290052e+003,6.847191e+000
1.291016e+003,4.509583e+000
1.291980e+003,3.501900e+000
1.292944e+003,4.771393e+000
1.293909e+003,5.903221e+000
1.294873e+003,6.091934e+000
1.295837e+003,5.648399e+000
1.296801e+003,4.728790e+000
1.297766e+003,3.465187e+000
1.298730e+003,2.752304e+000
1.299694e+003,3.211319e+000
1.300658e+003,4.031586e+000
1.301622e+003,4.460892e+000
1.302587e+003,4.623497e+000
1.303551e+003,4.588531e+000
1.304515e+003,4.422371e+000
1.305479e+003,4.374527e+000
1.306444e+003,4.638741e+000
1.307408e+003,5.085289e+000
1.308372e+003,5.379768e+000
1.309336e+003,5.530602e+000
1.310301e+003,5.476448e+000
1.311265e+003,5.146996e+000
1.312229e+003,4.771675e+000
1.313193e+003,4.227623e+000
1.314157e+003,3.770294e+000
1.315122e+003,3.479797e+000
1.316086e+003,3.499519e+000
1.317050e+003,4.478264e+000
1.318014e+003,6.997009e+000
1.318979e+003,9.565674e+000
1.319943e+003,8.949020e+000
1.320907e+003,5.691208e+000
1.321871e+003,4.776962e+000
1.322836e+003,7.010010e+000
1.323800e+003,9.090179e+000
1.324764e+003,9.045280e+000
1.325728e+003,7.904312e+000
1.326693e+003,7.391151e+000
1.327657e+003,7.532631e+000
1.328621e+003,7.509171e+000
1.329585e+003,7.054329e+000
1.330549e+003,6.851318e+000
1.331514e+003,7.354599e+000
1.332478e+003,7.902306e+000
1.333442e+003,7.914101e+000
1.334406e+003,7.425735e+000
1.335371e+003,6.639137e+000
1.336335e+003,5.712837e+000
1.337299e+003,5.112854e+000
1.338263e+003,5.817352e+000
1.339228e+003,8.121048e+000
1.340192e+003,8.949303e+000
1.341156e+003,6.612061e+000
1.342120e+003,5.380585e+000
1.343084e+003,6.925575e+000
1.344049e+003,8.724854e+000
1.345013e+003,8.366806e+000
1.345977e+003,6.540268e+000
1.346941e+003,5.843285e+000
1.347906e+003,7.261581e+000
1.348870e+003,8.911575e+000
1.349834e+003,8.791611e+000
1.350798e+003,7.942406e+000
1.351763e+003,8.945755e+000
1.352727e+003,1.133794e+001
1.353691e+003,1.196200e+001
1.354655e+003,9.180260e+000
1.355620e+003,6.051979e+000
1.356584e+003,6.629311e+000
1.357548e+003,1.042854e+001
1.358512e+003,1.286205e+001
1.359476e+003,1.333688e+001
1.360441e+003,1.339427e+001
1.361405e+003,1.348080e+001
1.362369e+003,1.326466e+001
1.363333e+003,1.216045e+001
1.364298e+003,1.085210e+001
1.365262e+003,1.039523e+001
1.366226e+003,1.092962e+001
1.367190e+003,1.161555e+001
1.368155e+003,1.170171e+001
1.369119e+003,1.140798e+001
1.370083e+003,1.143983e+001
1.371047e+003,1.192402e+001
1.372011e+003,1.237125e+001
1.372976e+003,1.237342e+001
1.373940e+003,1.273605e+001
1.374904e+003,1.449609e+001
1.375868e+003,1.635635e+001
1.376833e+003,1.644727e+001
1.377797e+003,1.480343e+001
1.378761e+003,1.294673e+001
1.379725e+003,1.129933e+001
1.380690e+003,1.037683e+001
1.381654e+003,1.121942e+001
1.382618e+003,1.292289e+001
1.383582e+003,1.474871e+001
1.384547e+003,1.639838e+001
1.385511e+003,1.635775e+001
1.386475e+003,1.339851e+001
1.387439e+003,9.898460e+000
1.388403e+003,1.014227e+001
1.389368e+003,1.410546e+001
1.390332e+003,1.559992e+001
1.391296e+003,1.314283e+001
1.392260e+003,1.092550e+001
1.393225e+003,9.417053e+000
1.394189e+003,8.827980e+000
1.395153e+003,1.011203e+001
1.396117e+003,1.204982e+001
1.397082e+003,1.274289e+001
1.398046e+003,1.182903e+001
1.399010e+003,1.049223e+001
1.399974e+003,9.746689e+000
1.400938e+003,9.662346e+000
1.401903e+003,1.080700e+001
1.402867e+003,1.396725e+001
1.403831e+003,1.545729e+001
1.404795e+003,1.349963e+001
1.405760e+003,1.219004e+001
1.406724e+003,1.339113e+001
1.407688e+003,1.544458e+001
1.408652e+003,1.666227e+001
1.409617e+003,1.699197e+001
1.410581e+003,1.695707e+001
1.411545e+003,1.672591e+001
1.412509e+003,1.634317e+001
1.413474e+003,1.560635e+001
1.414438e+003,1.480690e+001
1.415402e+003,1.476439e+001
1.416366e+003,1.536240e+001
1.417330e+003,1.536736e+001
1.418295e+003,1.405702e+001
1.419259e+003,1.292707e+001
1.420223e+003,1.413570e+001
1.421187e+003,1.714845e+001
1.422152e+003,1.882056e+001
1.423116e+003,1.895542e+001
1.424080e+003,1.840675e+001
1.425044e+003,1.626359e+001
1.426009e+003,1.457714e+001
1.426973e+003,1.435449e+001
1.427937e+003,1.497223e+001
1.428901e+003,1.599873e+001
1.429865e+003,1.711467e+001
1.430830e+003,1.775974e+001
1.431794e+003,1.754857e+001
1.432758e+003,1.683086e+001
1.433722e+003,1.634716e+001
1.434687e+003,1.616726e+001
1.435651e+003,1.648325e+001
1.436615e+003,1.770325e+001
1.437579e+003,1.838439e+001
1.438544e+003,1.870994e+001
1.439508e+003,1.820572e+001
1.440472e+003,1.550423e+001
1.441436e+003,1.219132e+001
1.442401e+003,1.144907e+001
1.443365e+003,1.380965e+001
1.444329e+003,1.652764e+001
1.445293e+003,1.767903e+001
1.446257e+003,1.783433e+001
1.447222e+003,1.778015e+001
1.448186e+003,1.758406e+001
1.449150e+003,1.776866e+001
1.450114e+003,1.852672e+001
1.451079e+003,1.897385e+001
1.452043e+003,1.827914e+001
1.453007e+003,1.737160e+001
1.453971e+003,1.785615e+001
1.454936e+003,1.942738e+001
1.455900e+003,1.963683e+001
1.456864e+003,1.749043e+001
1.457828e+003,1.578596e+001
1.458792e+003,1.633891e+001
1.459757e+003,1.777106e+001
1.460721e+003,1.970616e+001
1.461685e+003,2.145421e+001
1.462649e+003,2.148433e+001
1.463614e+003,1.959377e+001
1.464578e+003,1.763895e+001
1.465542e+003,1.721403e+001
1.466506e+003,1.792164e+001
1.467471e+003,1.896967e+001
1.468435e+003,2.084144e+001
1.469399e+003,2.095651e+001
1.470363e+003,1.692659e+001
1.471328e+003,1.419499e+001
1.472292e+003,1.444305e+001
1.473256e+003,1.575725e+001
1.474220e+003,1.751239e+001
1.475184e+003,1.910267e+001
1.476149e+003,1.953020e+001
1.477113e+003,1.862217e+001
1.478077e+003,1.752695e+001
1.479041e+003,1.740279e+001
1.480006e+003,1.805412e+001
1.480970e+003,1.871849e+001
1.481934e+003,1.928683e+001
1.482898e+003,2.007708e+001
1.483863e+003,2.185199e+001
1.484827e+003,2.272706e+001
1.485791e+003,2.172110e+001
1.486755e+003,2.013306e+001
1.487719e+003,1.863468e+001
1.488684e+003,1.758536e+001
1.489648e+003,1.787691e+001
1.490612e+003,1.975997e+001
1.491576e+003,2.160094e+001
1.492541e+003,2.193172e+001
1.493505e+003,2.152787e+001
1.494469e+003,2.229475e+001
1.495433e+003,2.390881e+001
1.496398e+003,2.460730e+001
1.497362e+003,2.390039e+001
1.498326e+003,2.352402e+001
1.499290e+003,2.481881e+001
1.500255e+003,2.661272e+001
1.501219e+003,2.711870e+001
1.502183e+003,2.655863e+001
1.503147e+003,2.641516e+001
1.504111e+003,2.689082e+001
1.505076e+003,2.851012e+001
1.506040e+003,3.281160e+001
1.507004e+003,3.708984e+001
1.507968e+003,3.821384e+001
1.508933e+003,3.748364e+001
1.509897e+003,3.736819e+001
1.510861e+003,3.848469e+001
1.511825e+003,4.084441e+001
1.512790e+003,4.469755e+001
1.513754e+003,4.913685e+001
1.514718e+003,5.239642e+001
1.515682e+003,5.443404e+001
1.516646e+003,5.696146e+001
1.517611e+003,6.069208e+001
1.518575e+003,6.368312e+001
1.519539e+003,6.487238e+001
1.520503e+003,6.575390e+001
1.521468e+003,6.725092e+001
1.522432e+003,6.878017e+001
1.523396e+003,6.982330e+001
1.524360e+003,7.001610e+001
1.525325e+003,6.845041e+001
1.526289e+003,6.454753e+001
1.527253e+003,6.015021e+001
1.528217e+003,5.879120e+001
1.529182e+003,6.057912e+001
1.530146e+003,5.994698e+001
1.531110e+003,5.497340e+001
1.532074e+003,5.106007e+001
1.533039e+003,4.969241e+001
1.534003e+003,4.780939e+001
1.534967e+003,4.357527e+001
1.535931e+003,3.868193e+001
1.536896e+003,3.486313e+001
1.537860e+003,3.238894e+001
1.538824e+003,3.099326e+001
1.539788e+003,3.041195e+001
1.540752e+003,2.968967e+001
1.541717e+003,2.747612e+001
1.542681e+003,2.431871e+001
1.543645e+003,2.354517e+001
1.544609e+003,2.655090e+001
1.545573e+003,2.860999e+001
1.546538e+003,2.921461e+001
1.547502e+003,2.939809e+001
1.548466e+003,2.924097e+001
1.549430e+003,2.923869e+001
1.550395e+003,3.012566e+001
1.551359e+003,3.148810e+001
1.552323e+003,3.221777e+001
1.553287e+003,3.192398e+001
1.554252e+003,3.078681e+001
1.555216e+003,2.877364e+001
1.556180e+003,2.650912e+001
1.557144e+003,2.556837e+001
1.558109e+003,2.603722e+001
1.559073e+003,2.618087e+001
1.560037e+003,2.552732e+001
1.561001e+003,2.527311e+001
1.561966e+003,2.658002e+001
1.562930e+003,2.790514e+001
1.563894e+003,2.726843e+001
1.564858e+003,2.556448e+001
1.565823e+003,2.527978e+001
1.566787e+003,2.681793e+001
1.567751e+003,2.842476e+001
1.568715e+003,2.921855e+001
1.569679e+003,2.946331e+001
1.570644e+003,2.926263e+001
1.571608e+003,2.875124e+001
1.572572e+003,2.845322e+001
1.573536e+003,2.842874e+001
1.574500e+003,2.845882e+001
1.575465e+003,2.844946e+001
1.576429e+003,2.846056e+001
1.577393e+003,2.831963e+001
1.578357e+003,2.828657e+001
1.579322e+003,2.923473e+001
1.580286e+003,3.109776e+001
1.581250e+003,3.203942e+001
1.582214e+003,3.122842e+001
1.583179e+003,3.043295e+001
1.584143e+003,3.105115e+001
1.585107e+003,3.224046e+001
1.586071e+003,3.320208e+001
1.587036e+003,3.387800e+001
1.588000e+003,3.367312e+001
1.588964e+003,3.234315e+001
1.589928e+003,3.122392e+001
1.590893e+003,3.133463e+001
1.591857e+003,3.204433e+001
1.592821e+003,3.242069e+001
1.593785e+003,3.255063e+001
1.594750e+003,3.309489e+001
1.595714e+003,3.432729e+001
1.596678e+003,3.432497e+001
1.597642e+003,3.085635e+001
1.598606e+003,2.813160e+001
1.599571e+003,3.054714e+001
1.600535e+003,3.504633e+001
1.601499e+003,3.785841e+001
1.602463e+003,3.882392e+001
1.603427e+003,3.926417e+001
1.604392e+003,3.970451e+001
1.605356e+003,3.994199e+001
1.606320e+003,3.972426e+001
1.607284e+003,3.916939e+001
1.608249e+003,3.848180e+001
1.609213e+003,3.764722e+001
1.610177e+003,3.733138e+001
1.611141e+003,3.793372e+001
1.612106e+003,3.833743e+001
1.613070e+003,3.745901e+001
1.614034e+003,3.668243e+001
1.614998e+003,3.728777e+001
1.615963e+003,3.858636e+001
1.616927e+003,3.936656e+001
1.617891e+003,3.943570e+001
1.618855e+003,3.929727e+001
1.619820e+003,3.922018e+001
1.620784e+003,3.901910e+001
1.621748e+003,3.818876e+001
1.622712e+003,3.709173e+001
1.623677e+003,3.777771e+001
1.624641e+003,4.068904e+001
1.625605e+003,4.287712e+001
1.626569e+003,4.327032e+001
1.627533e+003,4.325249e+001
1.628498e+003,4.365716e+001
1.629462e+003,4.398437e+001
1.630426e+003,4.368592e+001
1.631390e+003,4.296297e+001
1.632354e+003,4.218909e+001
1.633319e+003,4.151976e+001
1.634283e+003,4.133762e+001
1.635247e+003,4.202812e+001
1.636211e+003,4.300267e+001
1.637176e+003,4.304916e+001
1.638140e+003,4.230019e+001
1.639104e+003,4.257136e+001
1.640068e+003,4.437061e+001
1.641033e+003,4.527082e+001
1.641997e+003,4.404558e+001
1.642961e+003,4.276331e+001
1.643925e+003,4.244661e+001
1.644890e+003,4.255629e+001
1.645854e+003,4.245119e+001
1.646818e+003,4.229888e+001
1.647782e+003,4.297073e+001
1.648747e+003,4.460877e+001
1.649711e+003,4.556797e+001
1.650675e+003,4.431341e+001
1.651639e+003,4.205142e+001
1.652604e+003,4.126654e+001
1.653568e+003,4.186169e+001
1.654532e+003,4.217206e+001
1.655496e+003,4.204926e+001
1.656460e+003,4.189545e+001
1.657425e+003,4.199633e+001
1.658389e+003,4.189985e+001
1.659353e+003,4.086835e+001
1.660317e+003,3.988348e+001
1.661281e+003,4.020166e+001
1.662246e+003,4.147694e+001
1.663210e+003,4.259558e+001
1.664174e+003,4.318994e+001
1.665138e+003,4.325326e+001
1.666103e+003,4.266032e+001
1.667067e+003,4.165194e+001
1.668031e+003,4.071386e+001
1.668995e+003,3.986318e+001
1.669960e+003,3.905831e+001
1.670924e+003,3.834319e+001
1.671888e+003,3.751234e+001
1.672852e+003,3.589415e+001
1.673817e+003,3.497684e+001
1.674781e+003,3.676398e+001
1.675745e+003,3.890723e+001
1.676709e+003,3.841568e+001
1.677674e+003,3.596291e+001
1.678638e+003,3.409162e+001
1.679602e+003,3.361024e+001
1.680566e+003,3.418620e+001
1.681531e+003,3.608562e+001
1.682495e+003,3.827333e+001
1.683459e+003,3.895312e+001
1.684423e+003,3.822486e+001
1.685387e+003,3.664268e+001
1.686352e+003,3.404780e+001
1.687316e+003,3.252169e+001
1.688280e+003,3.317107e+001
1.689244e+003,3.418379e+001
1.690208e+003,3.404359e+001
1.691173e+003,3.366002e+001
1.692137e+003,3.417648e+001
1.693101e+003,3.538078e+001
1.694065e+003,3.648109e+001
1.695030e+003,3.725864e+001
1.695994e+003,3.718855e+001
1.696958e+003,3.530380e+001
1.697922e+003,3.326186e+001
1.698887e+003,3.362113e+001
1.699851e+003,3.544990e+001
1.700815e+003,3.552005e+001
1.701779e+003,3.358849e+001
1.702744e+003,3.270892e+001
1.703708e+003,3.421379e+001
1.704672e+003,3.572318e+001
1.705636e+003,3.556826e+001
1.706601e+003,3.423449e+001
1.707565e+003,3.185947e+001
1.708529e+003,2.908683e+001
1.709493e+003,2.805148e+001
1.710458e+003,2.913634e+001
1.711422e+003,3.052323e+001
1.712386e+003,3.179385e+001
1.713350e+003,3.280701e+001
1.714314e+003,3.349192e+001
1.715279e+003,3.373114e+001
1.716243e+003,3.316066e+001
1.717207e+003,3.198060e+001
1.718171e+003,3.113143e+001
1.719135e+003,3.088595e+001
1.720100e+003,3.079786e+001
1.721064e+003,3.054470e+001
1.722028e+003,3.034173e+001
1.722992e+003,3.077301e+001
1.723957e+003,3.161308e+001
1.724921e+003,3.105482e+001
1.725885e+003,2.865002e+001
1.726849e+003,2.716362e+001
1.727814e+003,2.737665e+001
1.728778e+003,2.829172e+001
1.729742e+003,3.007170e+001
1.730706e+003,3.179697e+001
1.731671e+003,3.260829e+001
1.732635e+003,3.255031e+001
1.733599e+003,3.163444e+001
1.734563e+003,3.021991e+001
1.735528e+003,2.976144e+001
1.736492e+003,3.098859e+001
1.737456e+003,3.221203e+001
1.738420e+003,3.135047e+001
1.739385e+003,2.902283e+001
1.740349e+003,2.763622e+001
1.741313e+003,2.727992e+001
1.742277e+003,2.764964e+001
1.743241e+003,2.957500e+001
1.744206e+003,3.096575e+001
1.745170e+003,3.156470e+001
1.746134e+003,3.150601e+001
1.747098e+003,3.029081e+001
1.748063e+003,2.887935e+001
1.749027e+003,2.843665e+001
1.749991e+003,2.878524e+001
1.750955e+003,2.905142e+001
1.751919e+003,2.891602e+001
1.752884e+003,2.869619e+001
1.753848e+003,2.865594e+001
1.754812e+003,2.864848e+001
1.755776e+003,2.835914e+001
1.756741e+003,2.785863e+001
1.757705e+003,2.805573e+001
1.758669e+003,2.931113e+001
1.759633e+003,3.007601e+001
1.760598e+003,3.000219e+001
1.761562e+003,2.960031e+001
1.762526e+003,2.879488e+001
1.763490e+003,2.806015e+001
1.764455e+003,2.776620e+001
1.765419e+003,2.775293e+001
1.766383e+003,2.765415e+001
1.767347e+003,2.746101e+001
1.768312e+003,2.764320e+001
1.769276e+003,2.842412e+001
1.770240e+003,2.887911e+001
1.771204e+003,2.776483e+001
1.772168e+003,2.607594e+001
1.773133e+003,2.641909e+001
1.774097e+003,2.847490e+001
1.775061e+003,2.877006e+001
1.776025e+003,2.662830e+001
1.776990e+003,2.488285e+001
1.777954e+003,2.451735e+001
1.778918e+003,2.480270e+001
1.779882e+003,2.508348e+001
1.780846e+003,2.576001e+001
1.781811e+003,2.802705e+001
1.782775e+003,3.115176e+001
1.783739e+003,3.240607e+001
1.784703e+003,3.125330e+001
1.785668e+003,3.033542e+001
1.786632e+003,3.090089e+001
1.787596e+003,3.167587e+001
1.788560e+003,3.188677e+001
1.789525e+003,3.177505e+001
1.790489e+003,3.155533e+001
1.791453e+003,3.122883e+001
1.792417e+003,3.068764e+001
1.793382e+003,2.997304e+001
1.794346e+003,2.957913e+001
1.795310e+003,2.976979e+001
1.796274e+003,3.026993e+001
1.797239e+003,3.088444e+001
1.798203e+003,3.148941e+001
1.799167e+003,3.142102e+001
1.800131e+003,3.040105e+001
1.801095e+003,2.982894e+001
1.802060e+003,3.003300e+001
1.803024e+003,3.031963e+001
1.803988e+003,3.089357e+001
1.804952e+003,3.112977e+001
1.805917e+003,3.034969e+001
1.806881e+003,2.941177e+001
1.807845e+003,2.909334e+001
1.808809e+003,2.938572e+001
1.809773e+003,3.007184e+001
1.810738e+003,3.104063e+001
1.811702e+003,3.234729e+001
1.812666e+003,3.399326e+001
1.813630e+003,3.523672e+001
1.814595e+003,3.498665e+001
1.815559e+003,3.360831e+001
1.816523e+003,3.259810e+001
1.817487e+003,3.197693e+001
1.818452e+003,3.176366e+001
1.819416e+003,3.228716e+001
1.820380e+003,3.236227e+001
1.821344e+003,3.110491e+001
1.822309e+003,3.002368e+001
1.823273e+003,3.030799e+001
1.824237e+003,3.102155e+001
1.825201e+003,3.112358e+001
1.826166e+003,3.082741e+001
1.827130e+003,3.088024e+001
1.828094e+003,3.138732e+001
1.829058e+003,3.190476e+001
1.830022e+003,3.230784e+001
1.830987e+003,3.256525e+001
1.831951e+003,3.243113e+001
1.832915e+003,3.229574e+001
1.833879e+003,3.309303e+001
1.834844e+003,3.432559e+001
1.835808e+003,3.400401e+001
1.836772e+003,3.211502e+001
1.837736e+003,3.167258e+001
1.838700e+003,3.403385e+001
1.839665e+003,3.622977e+001
1.840629e+003,3.541575e+001
1.841593e+003,3.312582e+001
1.842557e+003,3.258997e+001
1.843522e+003,3.377962e+001
1.844486e+003,3.465313e+001
1.845450e+003,3.538647e+001
1.846414e+003,3.555536e+001
1.847379e+003,3.435756e+001
1.848343e+003,3.353291e+001
1.849307e+003,3.379556e+001
1.850271e+003,3.444244e+001
1.851236e+003,3.534277e+001
1.852200e+003,3.610227e+001
1.853164e+003,3.613770e+001
1.854128e+003,3.549825e+001
1.855093e+003,3.459121e+001
1.856057e+003,3.369102e+001
1.857021e+003,3.317332e+001
1.857985e+003,3.336023e+001
1.858949e+003,3.387794e+001
1.859914e+003,3.410390e+001
1.860878e+003,3.411390e+001
1.861842e+003,3.430650e+001
1.862806e+003,3.467437e+001
1.863771e+003,3.475501e+001
1.864735e+003,3.434423e+001
1.865699e+003,3.415916e+001
1.866663e+003,3.471324e+001
1.867627e+003,3.528829e+001
1.868592e+003,3.510995e+001
1.869556e+003,3.452443e+001
1.870520e+003,3.429066e+001
1.871484e+003,3.434693e+001
1.872449e+003,3.436224e+001
1.873413e+003,3.453459e+001
1.874377e+003,3.436226e+001
1.875341e+003,3.276076e+001
1.876306e+003,3.173992e+001
1.877270e+003,3.302176e+001
1.878234e+003,3.477236e+001
1.879198e+003,3.489494e+001
1.880163e+003,3.423057e+001
1.881127e+003,3.485993e+001
1.882091e+003,3.664020e+001
1.883055e+003,3.743061e+001
1.884020e+003,3.644647e+001
1.884984e+003,3.529820e+001
1.885948e+003,3.544035e+001
1.886912e+003,3.656959e+001
1.887876e+003,3.829298e+001
1.888841e+003,4.047664e+001
1.889805e+003,4.119694e+001
1.890769e+003,4.017354e+001
1.891733e+003,3.914494e+001
1.892698e+003,3.804601e+001
1.893662e+003,3.742216e+001
1.894626e+003,3.794581e+001
1.895590e+003,3.840800e+001
1.896554e+003,3.768645e+001
1.897519e+003,3.670681e+001
1.898483e+003,3.649928e+001
1.899447e+003,3.692914e+001
1.900411e+003,3.779053e+001
1.901376e+003,3.915765e+001
1.902340e+003,3.933487e+001
1.903304e+003,3.666911e+001
1.904268e+003,3.424622e+001
1.905233e+003,3.375201e+001
1.906197e+003,3.461630e+001
1.907161e+003,3.738091e+001
1.908125e+003,4.051304e+001
1.909090e+003,4.106939e+001
1.910054e+003,3.927609e+001
1.911018e+003,3.735126e+001
1.911982e+003,3.621244e+001
1.912947e+003,3.591257e+001
1.913911e+003,3.647216e+001
1.914875e+003,3.743171e+001
1.915839e+003,3.809100e+001
1.916803e+003,3.841866e+001
1.917768e+003,3.841531e+001
1.918732e+003,3.806131e+001
1.919696e+003,3.766600e+001
1.920660e+003,3.699163e+001
1.921625e+003,3.712569e+001
1.922589e+003,3.901014e+001
1.923553e+003,4.051977e+001
1.924517e+003,4.022587e+001
1.925481e+003,3.935438e+001
1.926446e+003,3.860727e+001
1.927410e+003,3.820826e+001
1.928374e+003,3.882154e+001
1.929338e+003,4.031787e+001
1.930303e+003,4.104163e+001
1.931267e+003,4.041493e+001
1.932231e+003,3.979182e+001
1.933195e+003,3.956309e+001
1.934160e+003,3.968237e+001
1.935124e+003,4.039434e+001
1.936088e+003,4.118172e+001
1.937052e+003,4.164303e+001
1.938017e+003,4.166983e+001
1.938981e+003,4.071584e+001
1.939945e+003,3.910581e+001
1.940909e+003,3.858281e+001
1.941874e+003,3.979685e+001
1.942838e+003,4.094814e+001
1.943802e+003,4.035863e+001
1.944766e+003,3.914781e+001
1.945730e+003,3.968966e+001
1.946695e+003,4.158765e+001
1.947659e+003,4.152187e+001
1.948623e+003,3.919727e+001
1.949587e+003,3.823974e+001
1.950552e+003,3.937045e+001
1.951516e+003,4.061982e+001
1.952480e+003,4.154471e+001
1.953444e+003,4.198528e+001
1.954408e+003,4.157306e+001
1.955373e+003,4.080151e+001
1.956337e+003,4.019158e+001
1.957301e+003,3.991221e+001
1.958265e+003,4.055832e+001
1.959230e+003,4.231114e+001
1.960194e+003,4.358706e+001
1.961158e+003,4.419485e+001
1.962122e+003,4.410020e+001
1.963087e+003,4.306830e+001
1.964051e+003,4.163000e+001
1.965015e+003,3.926817e+001
1.965979e+003,3.746062e+001
1.966944e+003,3.804996e+001
1.967908e+003,4.002943e+001
1.968872e+003,4.159473e+001
1.969836e+003,4.238833e+001
1.970801e+003,4.296632e+001
1.971765e+003,4.354527e+001
1.972729e+003,4.337553e+001
1.973693e+003,4.144424e+001
1.974657e+003,3.953525e+001
1.975622e+003,4.077406e+001
1.976586e+003,4.394438e+001
1.977550e+003,4.601994e+001
1.978514e+003,4.699174e+001
1.979479e+003,4.713495e+001
1.980443e+003,4.652563e+001
1.981407e+003,4.560130e+001
1.982371e+003,4.449124e+001
1.983335e+003,4.418828e+001
1.984300e+003,4.557101e+001
1.985264e+003,4.737204e+001
1.986228e+003,4.772089e+001
1.987192e+003,4.674043e+001
1.988157e+003,4.492432e+001
1.989121e+003,4.176854e+001
1.990085e+003,4.061721e+001
1.991049e+003,4.300404e+001
1.992014e+003,4.433916e+001
1.992978e+003,4.281078e+001
1.993942e+003,4.184953e+001
1.994906e+003,4.333194e+001
1.995871e+003,4.506310e+001
1.996835e+003,4.518528e+001
1.997799e+003,4.471465e+001
1.998763e+003,4.520749e+001
1.999728e+003,4.655711e+001
