5.003444e+002,3.806073e+001
5.013087e+002,3.668491e+001
5.022729e+002,3.561832e+001
5.032371e+002,3.478720e+001
5.042014e+002,3.308310e+001
5.051656e+002,3.071527e+001
5.061298e+002,2.851031e+001
5.070941e+002,2.712225e+001
5.080583e+002,2.644659e+001
5.090225e+002,2.691504e+001
5.099868e+002,2.977911e+001
5.109510e+002,3.212524e+001
5.119152e+002,3.198389e+001
5.128795e+002,2.910233e+001
5.138437e+002,2.717056e+001
5.148079e+002,2.900516e+001
5.157722e+002,3.071649e+001
5.167364e+002,3.016129e+001
5.177006e+002,2.736975e+001
5.186649e+002,2.447208e+001
5.196291e+002,2.465152e+001
5.205933e+002,2.618167e+001
5.215576e+002,2.683112e+001
5.225218e+002,2.626062e+001
5.234860e+002,2.515430e+001
5.244503e+002,2.498526e+001
5.254145e+002,2.650818e+001
5.263787e+002,2.614786e+001
5.273430e+002,2.206668e+001
5.283072e+002,1.733112e+001
5.292714e+002,1.655127e+001
5.302357e+002,2.244751e+001
5.311999e+002,2.589481e+001
5.321641e+002,2.541455e+001
5.331284e+002,2.332993e+001
5.340926e+002,2.102219e+001
5.350568e+002,1.884946e+001
5.360211e+002,1.689615e+001
5.369853e+002,1.517697e+001
5.379495e+002,1.403589e+001
5.389138e+002,1.385159e+001
5.398780e+002,1.469409e+001
5.408422e+002,1.629462e+001
5.418065e+002,1.850507e+001
5.427707e+002,2.110730e+001
5.437349e+002,2.203424e+001
5.446992e+002,2.024939e+001
5.456634e+002,1.665234e+001
5.466276e+002,1.447293e+001
5.475919e+002,1.486392e+001
5.485561e+002,1.569110e+001
5.495203e+002,1.780038e+001
5.504846e+002,1.984958e+001
5.514488e+002,1.972482e+001
5.524130e+002,1.567764e+001
5.533773e+002,1.192810e+001
5.543415e+002,1.114990e+001
5.553057e+002,1.149823e+001
5.562700e+002,1.067511e+001
5.572342e+002,7.280762e+000
5.581984e+002,3.258850e+000
5.591627e+002,4.270752e+000
5.601269e+002,8.460022e+000
5.610911e+002,1.197321e+001
5.620554e+002,1.276205e+001
5.630196e+002,1.107031e+001
5.639838e+002,9.648926e+000
5.649481e+002,8.160950e+000
5.659123e+002,7.425659e+000
5.668765e+002,8.602600e+000
5.678408e+002,1.092252e+001
5.688050e+002,1.183212e+001
5.697692e+002,9.251678e+000
5.707335e+002,6.582214e+000
5.716977e+002,4.726410e+000
5.726619e+002,3.593140e+000
5.736262e+002,3.063385e+000
5.745904e+002,3.190704e+000
5.755546e+002,3.525085e+000
5.765189e+002,3.018066e+000
5.774831e+002,1.969543e+000
5.784473e+002,1.138519e+000
5.794116e+002,1.110687e+000
5.803758e+002,1.902710e+000
5.813400e+002,2.324921e+000
5.823043e+002,2.063324e+000
5.832685e+002,1.731415e+000
5.842327e+002,1.601624e+000
5.851970e+002,1.782257e+000
5.861612e+002,2.285431e+000
5.871254e+002,3.239044e+000
5.880897e+002,4.176697e+000
5.890539e+002,5.056396e+000
5.900181e+002,5.757263e+000
5.909824e+002,6.202118e+000
5.919466e+002,6.457275e+000
5.929108e+002,6.277740e+000
5.938751e+002,4.943939e+000
5.948393e+002,3.230682e+000
5.958035e+002,2.574951e+000
5.967678e+002,4.017273e+000
5.977320e+002,7.144989e+000
5.986962e+002,7.923218e+000
5.996605e+002,6.177063e+000
6.006247e+002,4.572357e+000
6.015889e+002,4.783661e+000
6.025532e+002,6.617981e+000
6.035174e+002,6.904205e+000
6.044816e+002,2.995605e+000
6.054459e+002,4.221802e-001
6.064101e+002,6.003418e-001
6.073743e+002,2.539398e+000
6.083386e+002,4.559875e+000
6.093028e+002,6.315430e+000
6.102670e+002,6.892090e+000
6.112313e+002,4.613281e+000
6.121955e+002,1.347229e+000
6.131597e+002,-1.086426e-001
6.141240e+002,2.086761e+000
6.150882e+002,6.509827e+000
6.160524e+002,6.451996e+000
6.170167e+002,2.817505e+000
6.179809e+002,1.223755e-002
6.189451e+002,1.697998e-001
6.199094e+002,2.770874e+000
6.208736e+002,4.395477e+000
6.218378e+002,4.832489e+000
6.228021e+002,4.711639e+000
6.237663e+002,3.775574e+000
6.247305e+002,2.437408e+000
6.256948e+002,1.089508e+000
6.266590e+002,-6.725159e-001
6.276232e+002,-1.421112e+000
6.285875e+002,8.153687e-001
6.295517e+002,3.878296e+000
6.305159e+002,5.180206e+000
6.314802e+002,3.358368e+000
6.324444e+002,-1.259766e-001
6.334086e+002,-9.371338e-001
6.343729e+002,2.370300e-001
6.353371e+002,1.655182e+000
6.363013e+002,2.755707e+000
6.372656e+002,3.478027e+000
6.382298e+002,3.752472e+000
6.391940e+002,3.633850e+000
6.401583e+002,2.687286e+000
6.411225e+002,2.360535e-001
6.420867e+002,-2.363983e+000
6.430510e+002,-3.447021e+000
6.440152e+002,-2.245728e+000
6.449794e+002,-1.247833e+000
6.459437e+002,-1.894287e+000
6.469079e+002,-3.100586e+000
6.478721e+002,-4.105774e+000
6.488364e+002,-4.559296e+000
6.498006e+002,-4.592712e+000
6.507648e+002,-4.513580e+000
6.517291e+002,-4.289459e+000
6.526933e+002,-3.544952e+000
6.536575e+002,-2.176056e+000
6.546218e+002,-6.693420e-001
6.555860e+002,5.328369e-002
6.565502e+002,-3.935547e-001
6.575145e+002,-1.013672e+000
6.584787e+002,-1.774078e+000
6.594429e+002,-2.677002e+000
6.604072e+002,-4.138367e+000
6.613714e+002,-6.402985e+000
6.623356e+002,-7.230530e+000
6.632999e+002,-3.678040e+000
6.642641e+002,-2.538757e-001
6.652283e+002,5.561523e-001
6.661926e+002,-1.146240e+000
6.671568e+002,-3.476624e+000
6.681210e+002,-4.437653e+000
6.690853e+002,-4.354736e+000
6.700495e+002,-4.227783e+000
6.710137e+002,-4.050476e+000
6.719780e+002,-3.449036e+000
6.729422e+002,-1.941833e+000
6.739064e+002,7.317200e-001
6.748707e+002,2.268158e+000
6.758349e+002,2.588196e+000
6.767991e+002,2.200500e+000
6.777634e+002,1.183105e+000
6.787276e+002,-2.579651e-001
6.796918e+002,-1.526581e+000
6.806561e+002,-3.046967e+000
6.816203e+002,-3.852356e+000
6.825845e+002,-3.031342e+000
6.835488e+002,-1.345673e+000
6.845130e+002,3.906250e-003
6.854772e+002,1.374207e-001
6.864415e+002,-3.255310e-001
6.874057e+002,-3.435364e-001
6.883699e+002,-1.371460e-001
6.893342e+002,3.074951e-001
6.902984e+002,1.092804e+000
6.912626e+002,2.134003e+000
6.922269e+002,2.509216e+000
6.931911e+002,2.085083e+000
6.941553e+002,1.598816e+000
6.951196e+002,1.045685e+000
6.960838e+002,1.949158e-001
6.970480e+002,-1.605865e+000
6.980123e+002,-5.541931e+000
6.989765e+002,-7.290283e+000
6.999407e+002,-3.666077e+000
7.009050e+002,1.216064e+000
7.018692e+002,4.208740e+000
7.028334e+002,4.191742e+000
7.037977e+002,2.426331e+000
7.047619e+002,1.503601e-001
7.057261e+002,-1.933685e+000
7.066904e+002,-2.330261e+000
7.076546e+002,-8.034668e-001
7.086188e+002,1.477692e+000
7.095831e+002,2.663513e+000
7.105473e+002,2.287872e+000
7.115115e+002,1.856049e+000
7.124758e+002,1.643890e+000
7.134400e+002,1.038940e+000
7.144042e+002,-9.214478e-001
7.153685e+002,-4.082672e+000
7.163327e+002,-5.608185e+000
7.172969e+002,-2.100342e+000
7.182612e+002,1.511719e+000
7.192254e+002,3.193115e+000
7.201896e+002,3.274048e+000
7.211539e+002,3.016785e+000
7.221181e+002,3.517700e+000
7.230823e+002,4.202881e+000
7.240466e+002,3.401306e+000
7.250108e+002,1.570740e+000
7.259750e+002,-1.161804e-001
7.269393e+002,-1.144928e+000
7.279035e+002,-1.717682e+000
7.288677e+002,-2.194946e+000
7.298320e+002,-1.943726e+000
7.307962e+002,-1.749573e+000
7.317604e+002,-1.818604e+000
7.327247e+002,-1.871002e+000
7.336889e+002,-1.593842e+000
7.346531e+002,-1.036957e+000
7.356174e+002,-7.129822e-001
7.365816e+002,-4.958801e-001
7.375458e+002,-3.238525e-001
7.385101e+002,-1.886292e-001
7.394743e+002,-9.182739e-002
7.404385e+002,-4.730225e-002
7.414028e+002,-1.282959e-001
7.423670e+002,-6.652222e-001
7.433312e+002,-1.663025e+000
7.442955e+002,-2.957550e+000
7.452597e+002,-3.928131e+000
7.462239e+002,-4.067505e+000
7.471882e+002,-3.464752e+000
7.481524e+002,-1.785675e+000
7.491166e+002,2.096375e+000
7.500809e+002,5.136566e+000
7.510451e+002,6.073944e+000
7.520093e+002,5.187134e+000
7.529736e+002,3.737885e+000
7.539378e+002,2.252625e+000
7.549020e+002,7.755127e-001
7.558663e+002,-1.238770e+000
7.568306e+002,-3.112335e+000
7.577948e+002,-3.837677e+000
7.587590e+002,-2.908661e+000
7.597233e+002,-1.003052e+000
7.606875e+002,3.507080e-001
7.616517e+002,1.304352e+000
7.626160e+002,1.783173e+000
7.635802e+002,1.563904e+000
7.645444e+002,1.115540e+000
7.655087e+002,1.542145e+000
7.664729e+002,3.824341e+000
7.674371e+002,4.597412e+000
7.684014e+002,2.284332e+000
7.693656e+002,-9.875488e-002
7.703298e+002,-4.396362e-001
7.712941e+002,1.422272e+000
7.722583e+002,3.678253e+000
7.732225e+002,5.902161e+000
7.741868e+002,7.013245e+000
7.751510e+002,5.099304e+000
7.761152e+002,1.352051e+000
7.770795e+002,-1.408905e+000
7.780437e+002,-6.943054e-001
7.790079e+002,2.913971e+000
7.799722e+002,4.835602e+000
7.809364e+002,5.147858e+000
7.819006e+002,4.837952e+000
7.828649e+002,4.028900e+000
7.838291e+002,3.020050e+000
7.847933e+002,2.600616e+000
7.857576e+002,3.083557e+000
7.867218e+002,3.192017e+000
7.876860e+002,2.791443e+000
7.886503e+002,2.225830e+000
7.896145e+002,1.729950e+000
7.905787e+002,1.375946e+000
7.915430e+002,1.089996e+000
7.925072e+002,3.523560e-001
7.934714e+002,-3.073425e-001
7.944357e+002,1.761169e-001
7.953999e+002,1.771912e+000
7.963641e+002,3.536102e+000
7.973284e+002,4.341278e+000
7.982926e+002,4.109436e+000
7.992568e+002,4.349030e+000
8.002211e+002,4.996094e+000
8.011853e+002,5.372375e+000
8.021495e+002,5.600983e+000
8.031138e+002,5.822784e+000
8.040780e+002,5.726105e+000
8.050422e+002,4.387604e+000
8.060065e+002,3.749176e+000
8.069707e+002,4.686371e+000
8.079349e+002,6.166229e+000
8.088992e+002,7.483643e+000
8.098634e+002,8.353363e+000
8.108276e+002,8.628906e+000
8.117919e+002,7.426392e+000
8.127561e+002,5.303741e+000
8.137203e+002,4.014069e+000
8.146846e+002,3.914429e+000
8.156488e+002,4.353027e+000
8.166130e+002,4.432678e+000
8.175773e+002,4.029175e+000
8.185415e+002,3.729187e+000
8.195057e+002,2.876312e+000
8.204700e+002,2.578247e+000
8.214342e+002,3.472137e+000
8.223984e+002,5.216919e+000
8.233627e+002,7.006592e+000
8.243269e+002,8.971039e+000
8.252911e+002,1.020197e+001
8.262554e+002,9.703308e+000
8.272196e+002,8.662842e+000
8.281838e+002,8.373108e+000
8.291481e+002,9.234833e+000
8.301123e+002,1.049155e+001
8.310765e+002,1.074130e+001
8.320408e+002,1.006567e+001
8.330050e+002,1.029904e+001
8.339692e+002,1.197577e+001
8.349335e+002,1.333322e+001
8.358977e+002,1.215649e+001
8.368619e+002,7.968689e+000
8.378262e+002,5.477997e+000
8.387904e+002,5.789642e+000
8.397546e+002,6.439484e+000
8.407189e+002,7.223602e+000
8.416831e+002,7.881775e+000
8.426473e+002,8.020264e+000
8.436116e+002,7.362640e+000
8.445758e+002,6.700500e+000
8.455400e+002,6.881805e+000
8.465043e+002,7.204376e+000
8.474685e+002,6.687744e+000
8.484327e+002,5.406128e+000
8.493970e+002,4.805847e+000
8.503612e+002,7.253052e+000
8.513254e+002,1.348273e+001
8.522897e+002,1.664294e+001
8.532539e+002,1.526266e+001
8.542181e+002,1.297867e+001
8.551824e+002,1.181830e+001
8.561466e+002,1.186172e+001
8.571108e+002,1.252286e+001
8.580751e+002,1.414581e+001
8.590393e+002,1.491104e+001
8.600035e+002,1.402802e+001
8.609678e+002,1.243433e+001
8.619320e+002,1.073062e+001
8.628962e+002,9.279449e+000
8.638605e+002,8.876709e+000
8.648247e+002,1.180573e+001
8.657889e+002,1.638000e+001
8.667532e+002,1.902567e+001
8.677174e+002,1.926822e+001
8.686816e+002,1.820328e+001
8.696459e+002,1.686298e+001
8.706101e+002,1.509589e+001
8.715743e+002,1.501007e+001
8.725386e+002,1.812070e+001
8.735028e+002,2.084570e+001
8.744670e+002,2.204883e+001
8.754313e+002,2.209937e+001
8.763955e+002,2.182196e+001
8.773597e+002,2.139609e+001
8.783240e+002,2.128113e+001
8.792882e+002,2.180328e+001
8.802524e+002,2.259799e+001
8.812167e+002,2.352667e+001
8.821809e+002,2.447086e+001
8.831451e+002,2.527167e+001
8.841094e+002,2.574243e+001
8.850736e+002,2.599420e+001
8.860378e+002,2.627106e+001
8.870021e+002,2.648676e+001
8.879663e+002,2.668158e+001
8.889305e+002,2.677261e+001
8.898948e+002,2.674960e+001
8.908590e+002,2.680200e+001
8.918232e+002,2.695227e+001
8.927875e+002,2.748871e+001
8.937517e+002,2.895804e+001
8.947159e+002,3.045038e+001
8.956802e+002,3.095615e+001
8.966444e+002,3.028824e+001
8.976086e+002,2.933035e+001
8.985729e+002,2.907614e+001
8.995371e+002,2.936176e+001
9.005013e+002,2.962558e+001
9.014656e+002,2.995795e+001
9.024298e+002,3.058173e+001
9.033940e+002,3.159744e+001
9.043583e+002,3.281595e+001
9.053225e+002,3.373044e+001
9.062867e+002,3.400000e+001
9.072510e+002,3.413361e+001
9.082152e+002,3.409021e+001
9.091794e+002,3.430072e+001
9.101437e+002,3.545755e+001
9.111079e+002,3.767090e+001
9.120721e+002,3.924985e+001
9.130364e+002,3.872180e+001
9.140006e+002,3.728879e+001
9.149648e+002,3.504169e+001
9.159291e+002,3.272012e+001
9.168933e+002,3.155640e+001
9.178575e+002,3.230927e+001
9.188218e+002,3.411453e+001
9.197860e+002,3.407410e+001
9.207502e+002,3.205838e+001
9.217145e+002,3.076694e+001
9.226787e+002,3.122678e+001
9.236429e+002,3.249179e+001
9.246072e+002,3.325150e+001
9.255714e+002,3.337888e+001
9.265356e+002,3.303079e+001
9.274999e+002,3.197336e+001
9.284641e+002,3.059756e+001
9.294283e+002,2.853378e+001
9.303926e+002,2.647760e+001
9.313568e+002,2.568179e+001
9.323210e+002,2.685355e+001
9.332853e+002,2.858774e+001
9.342495e+002,2.887369e+001
9.352137e+002,2.808841e+001
9.361780e+002,2.639771e+001
9.371422e+002,2.399658e+001
9.381064e+002,2.178473e+001
9.390707e+002,2.086511e+001
9.400349e+002,2.126553e+001
9.409991e+002,2.166177e+001
9.419634e+002,2.190125e+001
9.429276e+002,2.224860e+001
9.438918e+002,2.297073e+001
9.448561e+002,2.384402e+001
9.458203e+002,2.443744e+001
9.467845e+002,2.460568e+001
9.477488e+002,2.490320e+001
9.487130e+002,2.636545e+001
9.496772e+002,2.762833e+001
9.506415e+002,2.713733e+001
9.516057e+002,2.517056e+001
9.525699e+002,2.332846e+001
9.535342e+002,2.315546e+001
9.544984e+002,2.439642e+001
9.554626e+002,2.549387e+001
9.564269e+002,2.674249e+001
9.573911e+002,2.771506e+001
9.583553e+002,2.864105e+001
9.593196e+002,2.897049e+001
9.602838e+002,2.728040e+001
9.612480e+002,2.260181e+001
9.622123e+002,1.960828e+001
9.631765e+002,2.090891e+001
9.641407e+002,2.296927e+001
9.651050e+002,2.427316e+001
9.660692e+002,2.491101e+001
9.670334e+002,2.586081e+001
9.679977e+002,2.784180e+001
9.689619e+002,3.008099e+001
9.699261e+002,3.039578e+001
9.708904e+002,2.918796e+001
9.718546e+002,2.745782e+001
9.728188e+002,2.514160e+001
9.737831e+002,2.319836e+001
9.747473e+002,2.297641e+001
9.757115e+002,2.473837e+001
9.766758e+002,2.717142e+001
9.776400e+002,3.144324e+001
9.786042e+002,3.521451e+001
9.795685e+002,3.832504e+001
9.805327e+002,4.020419e+001
9.814969e+002,3.998062e+001
9.824612e+002,3.744656e+001
9.834254e+002,3.440970e+001
9.843896e+002,3.224274e+001
9.853539e+002,3.047031e+001
9.863181e+002,2.874738e+001
9.872823e+002,2.691736e+001
9.882466e+002,2.477286e+001
9.892108e+002,2.224289e+001
9.901750e+002,1.979236e+001
9.911393e+002,1.942230e+001
9.921035e+002,2.254736e+001
9.930677e+002,2.468051e+001
9.940320e+002,2.525070e+001
9.949962e+002,2.539218e+001
9.959604e+002,2.584232e+001
9.969247e+002,2.674402e+001
9.978889e+002,2.863748e+001
9.988531e+002,3.256232e+001
9.998174e+002,3.610977e+001
1.000782e+003,3.765799e+001
1.001746e+003,3.822644e+001
1.002710e+003,3.952573e+001
1.003674e+003,4.214334e+001
1.004639e+003,4.483920e+001
1.005603e+003,4.540750e+001
1.006567e+003,4.352701e+001
1.007531e+003,4.136932e+001
1.008495e+003,3.857074e+001
1.009460e+003,3.624490e+001
1.010424e+003,3.503320e+001
1.011388e+003,3.489166e+001
1.012352e+003,3.587930e+001
1.013317e+003,3.958026e+001
1.014281e+003,4.080453e+001
1.015245e+003,3.601239e+001
1.016209e+003,3.029355e+001
1.017174e+003,2.747986e+001
1.018138e+003,2.766422e+001
1.019102e+003,2.851486e+001
1.020066e+003,2.830606e+001
1.021031e+003,2.710028e+001
1.021995e+003,2.432257e+001
1.022959e+003,2.017261e+001
1.023923e+003,1.625577e+001
1.024887e+003,1.282227e+001
1.025852e+003,1.025586e+001
1.026816e+003,9.592377e+000
1.027780e+003,1.159268e+001
1.028744e+003,1.244217e+001
1.029709e+003,1.034183e+001
1.030673e+003,8.782471e+000
1.031637e+003,9.097260e+000
1.032601e+003,1.036069e+001
1.033566e+003,1.141904e+001
1.034530e+003,1.188348e+001
1.035494e+003,1.178479e+001
1.036458e+003,1.080692e+001
1.037422e+003,9.339478e+000
1.038387e+003,7.914429e+000
1.039351e+003,6.596649e+000
1.040315e+003,5.759308e+000
1.041279e+003,5.724579e+000
1.042244e+003,6.504333e+000
1.043208e+003,7.963898e+000
1.044172e+003,1.104961e+001
1.045136e+003,1.278589e+001
1.046101e+003,1.298242e+001
1.047065e+003,1.222522e+001
1.048029e+003,1.033784e+001
1.048993e+003,7.698257e+000
1.049958e+003,5.388397e+000
1.050922e+003,3.782104e+000
1.051886e+003,3.261810e+000
1.052850e+003,5.014771e+000
1.053814e+003,7.515549e+000
1.054779e+003,8.474350e+000
1.055743e+003,7.559418e+000
1.056707e+003,6.568115e+000
1.057671e+003,7.753540e+000
1.058636e+003,1.110535e+001
1.059600e+003,1.285042e+001
1.060564e+003,1.212071e+001
1.061528e+003,1.152985e+001
1.062493e+003,1.136453e+001
1.063457e+003,1.123117e+001
1.064421e+003,1.065831e+001
1.065385e+003,9.674820e+000
1.066349e+003,9.185013e+000
1.067314e+003,1.027994e+001
1.068278e+003,1.125024e+001
1.069242e+003,1.077039e+001
1.070206e+003,9.483322e+000
1.071171e+003,8.090103e+000
1.072135e+003,6.975311e+000
1.073099e+003,6.603424e+000
1.074063e+003,7.998688e+000
1.075028e+003,1.150040e+001
1.075992e+003,1.297606e+001
1.076956e+003,1.181667e+001
1.077920e+003,9.894592e+000
1.078885e+003,7.109467e+000
1.079849e+003,4.469757e+000
1.080813e+003,4.088165e+000
1.081777e+003,6.719711e+000
1.082741e+003,9.092972e+000
1.083706e+003,8.724243e+000
1.084670e+003,8.065948e+000
1.085634e+003,8.558167e+000
1.086598e+003,9.803665e+000
1.087563e+003,1.105934e+001
1.088527e+003,1.188943e+001
1.089491e+003,1.196179e+001
1.090455e+003,1.012360e+001
1.091420e+003,5.985016e+000
1.092384e+003,4.324417e+000
1.093348e+003,6.167892e+000
1.094312e+003,8.311890e+000
1.095276e+003,8.867310e+000
1.096241e+003,8.472656e+000
1.097205e+003,8.985443e+000
1.098169e+003,1.109035e+001
1.099133e+003,1.236992e+001
1.100098e+003,1.140701e+001
1.101062e+003,1.002341e+001
1.102026e+003,9.097717e+000
1.102990e+003,8.759933e+000
1.103955e+003,8.999588e+000
1.104919e+003,9.754150e+000
1.105883e+003,1.048840e+001
1.106847e+003,9.953979e+000
1.107812e+003,8.126770e+000
1.108776e+003,7.380478e+000
1.109740e+003,8.332565e+000
1.110704e+003,9.293732e+000
1.111668e+003,8.640533e+000
1.112633e+003,7.066742e+000
1.113597e+003,7.495941e+000
1.114561e+003,1.124648e+001
1.115525e+003,1.423952e+001
1.116490e+003,1.479755e+001
1.117454e+003,1.466144e+001
1.118418e+003,1.484601e+001
1.119382e+003,1.550131e+001
1.120347e+003,1.654485e+001
1.121311e+003,1.779932e+001
1.122275e+003,1.836093e+001
1.123239e+003,1.613815e+001
1.124203e+003,1.172870e+001
1.125168e+003,1.010571e+001
1.126132e+003,1.218327e+001
1.127096e+003,1.575433e+001
1.128060e+003,1.999283e+001
1.129025e+003,2.439789e+001
1.129989e+003,2.660550e+001
1.130953e+003,2.558064e+001
1.131917e+003,2.410185e+001
1.132882e+003,2.184116e+001
1.133846e+003,2.057333e+001
1.134810e+003,2.200912e+001
1.135774e+003,2.531311e+001
1.136739e+003,2.858119e+001
1.137703e+003,3.070578e+001
1.138667e+003,3.182590e+001
1.139631e+003,3.170300e+001
1.140595e+003,3.069812e+001
1.141560e+003,3.179187e+001
1.142524e+003,3.541200e+001
1.143488e+003,4.052054e+001
1.144452e+003,4.691418e+001
1.145417e+003,5.420993e+001
1.146381e+003,6.084317e+001
1.147345e+003,6.618321e+001
1.148309e+003,7.237285e+001
1.149274e+003,7.993024e+001
1.150238e+003,8.853510e+001
1.151202e+003,9.904822e+001
1.152166e+003,1.104226e+002
1.153130e+003,1.209409e+002
1.154095e+003,1.296364e+002
1.155059e+003,1.366920e+002
1.156023e+003,1.428726e+002
1.156987e+003,1.477570e+002
1.157952e+003,1.493615e+002
1.158916e+003,1.479057e+002
1.159880e+003,1.440403e+002
1.160844e+003,1.368741e+002
1.161809e+003,1.273121e+002
1.162773e+003,1.177353e+002
1.163737e+003,1.080551e+002
1.164701e+003,9.888130e+001
1.165666e+003,9.100311e+001
1.166630e+003,8.323831e+001
1.167594e+003,7.440384e+001
1.168558e+003,6.568915e+001
1.169522e+003,5.843285e+001
1.170487e+003,5.321190e+001
1.171451e+003,5.049246e+001
1.172415e+003,5.124460e+001
1.173379e+003,5.430774e+001
1.174344e+003,5.320142e+001
1.175308e+003,4.777202e+001
1.176272e+003,4.339951e+001
1.177236e+003,4.254074e+001
1.178201e+003,4.311050e+001
1.179165e+003,4.237100e+001
1.180129e+003,4.020044e+001
1.181093e+003,3.788472e+001
1.182057e+003,3.496265e+001
1.183022e+003,3.324414e+001
1.183986e+003,3.407437e+001
1.184950e+003,3.579251e+001
1.185914e+003,3.711137e+001
1.186879e+003,3.771581e+001
1.187843e+003,3.759488e+001
1.188807e+003,3.665692e+001
1.189771e+003,3.547491e+001
1.190736e+003,3.626157e+001
1.191700e+003,3.932692e+001
1.192664e+003,4.083061e+001
1.193628e+003,3.981665e+001
1.194593e+003,3.819348e+001
1.195557e+003,3.715125e+001
1.196521e+003,3.653674e+001
1.197485e+003,3.601802e+001
1.198449e+003,3.582730e+001
1.199414e+003,3.492236e+001
1.200378e+003,3.206451e+001
1.201342e+003,2.906720e+001
1.202306e+003,2.688741e+001
1.203271e+003,2.543636e+001
1.204235e+003,2.427658e+001
1.205199e+003,2.322672e+001
1.206163e+003,2.259402e+001
1.207128e+003,2.298633e+001
1.208092e+003,2.452122e+001
1.209056e+003,2.420543e+001
1.210020e+003,2.148175e+001
1.210984e+003,1.846347e+001
1.211949e+003,1.538211e+001
1.212913e+003,1.248096e+001
1.213877e+003,1.025633e+001
1.214841e+003,8.743942e+000
1.215806e+003,7.084290e+000
1.216770e+003,4.269653e+000
1.217734e+003,2.306168e+000
1.218698e+003,3.395187e+000
1.219663e+003,5.366745e+000
1.220627e+003,5.480682e+000
1.221591e+003,3.388565e+000
1.222555e+003,5.902863e-001
1.223520e+003,-1.530533e+000
1.224484e+003,-2.986420e+000
1.225448e+003,-4.122803e+000
1.226412e+003,-5.051208e+000
1.227376e+003,-5.351273e+000
1.228341e+003,-4.271469e+000
1.229305e+003,-3.515900e+000
1.230269e+003,-4.438858e+000
1.231233e+003,-6.238205e+000
1.232198e+003,-7.337814e+000
1.233162e+003,-7.298279e+000
1.234126e+003,-6.105804e+000
1.235090e+003,-2.288239e+000
1.236055e+003,1.061676e+000
1.237019e+003,-3.312683e-001
1.237983e+003,-4.819595e+000
1.238947e+003,-7.692108e+000
1.239911e+003,-6.934616e+000
1.240876e+003,-4.677322e+000
1.241840e+003,-4.101349e+000
1.242804e+003,-5.282761e+000
1.243768e+003,-6.539749e+000
1.244733e+003,-9.496857e+000
1.245697e+003,-1.015605e+001
1.246661e+003,-6.000153e+000
1.247625e+003,-1.672607e+000
1.248590e+003,-9.235535e-001
1.249554e+003,-2.952652e+000
1.250518e+003,-4.624878e+000
1.251482e+003,-4.628021e+000
1.252447e+003,-3.733398e+000
1.253411e+003,-2.351059e+000
1.254375e+003,-7.630768e-001
1.255339e+003,3.054352e-001
1.256303e+003,8.884277e-001
1.257268e+003,1.355103e+000
1.258232e+003,1.841309e+000
1.259196e+003,2.129211e+000
1.260160e+003,1.810120e+000
1.261125e+003,7.924652e-001
1.262089e+003,4.825592e-001
1.263053e+003,1.430740e+000
1.264017e+003,2.378464e+000
1.264982e+003,3.183563e+000
1.265946e+003,3.840714e+000
1.266910e+003,4.097794e+000
1.267874e+003,4.189972e+000
1.268839e+003,5.026779e+000
1.269803e+003,7.238373e+000
1.270767e+003,9.786133e+000
1.271731e+003,1.074060e+001
1.272695e+003,1.007903e+001
1.273660e+003,8.302353e+000
1.274624e+003,4.511490e+000
1.275588e+003,1.509949e+000
1.276552e+003,1.774673e+000
1.277517e+003,3.633270e+000
1.278481e+003,3.484894e+000
1.279445e+003,9.018250e-001
1.280409e+003,-7.426147e-001
1.281374e+003,9.773102e-001
1.282338e+003,2.044891e+000
1.283302e+003,-8.507996e-001
1.284266e+003,-4.747604e+000
1.285230e+003,-5.944580e+000
1.286195e+003,-4.265747e+000
1.287159e+003,-2.238556e+000
1.288123e+003,-1.883179e+000
1.289087e+003,-2.876740e+000
1.290052e+003,-4.584229e+000
1.291016e+003,-7.875229e+000
1.291980e+003,-8.841446e+000
1.292944e+003,-5.735580e+000
1.293909e+003,-3.007446e+000
1.294873e+003,-2.372452e+000
1.295837e+003,-2.893356e+000
1.296801e+003,-3.400024e+000
1.297766e+003,-3.703461e+000
1.298730e+003,-4.072388e+000
1.299694e+003,-4.713806e+000
1.300658e+003,-5.543457e+000
1.301622e+003,-6.660187e+000
1.302587e+003,-7.715912e+000
1.303551e+003,-8.138779e+000
1.304515e+003,-7.814667e+000
1.305479e+003,-7.079285e+000
1.306444e+003,-6.195633e+000
1.307408e+003,-5.297821e+000
1.308372e+003,-4.740082e+000
1.309336e+003,-4.768921e+000
1.310301e+003,-4.400177e+000
1.311265e+003,-2.679184e+000
1.312229e+003,-1.548096e+000
1.313193e+003,-1.919357e+000
1.314157e+003,-2.992538e+000
1.315122e+003,-4.038376e+000
1.316086e+003,-4.902115e+000
1.317050e+003,-5.748566e+000
1.318014e+003,-6.651428e+000
1.318979e+003,-7.360046e+000
1.319943e+003,-7.565155e+000
1.320907e+003,-7.172516e+000
1.321871e+003,-5.977829e+000
1.322836e+003,-3.792648e+000
1.323800e+003,-2.006393e+000
1.324764e+003,-1.550186e+000
1.325728e+003,-1.800827e+000
1.326693e+003,-1.704727e+000
1.327657e+003,-1.287933e+000
1.328621e+003,-1.277954e+000
1.329585e+003,-1.749908e+000
1.330549e+003,-2.181137e+000
1.331514e+003,-2.837280e+000
1.332478e+003,-3.435562e+000
1.333442e+003,-3.626602e+000
1.334406e+003,-3.324936e+000
1.335371e+003,-2.409286e+000
1.336335e+003,-8.633270e-001
1.337299e+003,5.768738e-001
1.338263e+003,3.674164e-001
1.339228e+003,-1.800903e+000
1.340192e+003,-2.639023e+000
1.341156e+003,-4.855347e-001
1.342120e+003,4.538116e-001
1.343084e+003,-1.818924e+000
1.344049e+003,-4.470016e+000
1.345013e+003,-4.894241e+000
1.345977e+003,-3.491821e+000
1.346941e+003,-2.273117e+000
1.347906e+003,-1.978516e+000
1.348870e+003,-1.735733e+000
1.349834e+003,-4.130859e-001
1.350798e+003,9.947052e-001
1.351763e+003,5.819550e-001
1.352727e+003,-1.328735e+000
1.353691e+003,-2.963577e+000
1.354655e+003,-3.614136e+000
1.355620e+003,-3.983856e+000
1.356584e+003,-5.190948e+000
1.357548e+003,-6.981369e+000
1.358512e+003,-7.182938e+000
1.359476e+003,-5.026321e+000
1.360441e+003,-3.520691e+000
1.361405e+003,-4.038330e+000
1.362369e+003,-4.578766e+000
1.363333e+003,-4.042862e+000
1.364298e+003,-2.958603e+000
1.365262e+003,-2.062088e+000
1.366226e+003,-1.605377e+000
1.367190e+003,-1.580505e+000
1.368155e+003,-2.001312e+000
1.369119e+003,-2.551849e+000
1.370083e+003,-2.125488e+000
1.371047e+003,-1.617889e-001
1.372011e+003,5.442200e-001
1.372976e+003,-1.020950e+000
1.373940e+003,-2.696930e+000
1.374904e+003,-3.796768e+000
1.375868e+003,-4.407547e+000
1.376833e+003,-4.759872e+000
1.377797e+003,-4.849167e+000
1.378761e+003,-4.215729e+000
1.379725e+003,-2.413269e+000
1.380690e+003,-5.350800e-001
1.381654e+003,2.445984e-001
1.382618e+003,4.608765e-001
1.383582e+003,7.315063e-001
1.384547e+003,1.105759e+000
1.385511e+003,1.613129e+000
1.386475e+003,2.352295e+000
1.387439e+003,2.737747e+000
1.388403e+003,1.379379e+000
1.389368e+003,-1.723038e+000
1.390332e+003,-2.648056e+000
1.391296e+003,3.851013e-001
1.392260e+003,2.361420e+000
1.393225e+003,1.722244e+000
1.394189e+003,2.771759e-001
1.395153e+003,-1.958817e+000
1.396117e+003,-3.878311e+000
1.397082e+003,-3.402084e+000
1.398046e+003,-5.012970e-001
1.399010e+003,1.952240e+000
1.399974e+003,1.207214e+000
1.400938e+003,-1.678741e+000
1.401903e+003,-2.972153e+000
1.402867e+003,-1.898651e+000
1.403831e+003,-9.767914e-001
1.404795e+003,-5.615082e-001
1.405760e+003,-1.091461e-001
1.406724e+003,3.927155e-001
1.407688e+003,7.514801e-001
1.408652e+003,9.940338e-001
1.409617e+003,1.227386e+000
1.410581e+003,1.453415e+000
1.411545e+003,1.705399e+000
1.412509e+003,1.726547e+000
1.413474e+003,8.020477e-001
1.414438e+003,-4.074402e-001
1.415402e+003,-3.925018e-001
1.416366e+003,7.646027e-001
1.417330e+003,1.840988e+000
1.418295e+003,2.432465e+000
1.419259e+003,2.541534e+000
1.420223e+003,1.798294e+000
1.421187e+003,3.530579e-001
1.422152e+003,-3.576508e-001
1.423116e+003,-7.290649e-002
1.424080e+003,6.434326e-001
1.425044e+003,2.648666e+000
1.426009e+003,3.689865e+000
1.426973e+003,1.575058e+000
1.427937e+003,-1.294556e+000
1.428901e+003,-1.780441e+000
1.429865e+003,1.835175e-001
1.430830e+003,2.370819e+000
1.431794e+003,3.242004e+000
1.432758e+003,3.320953e+000
1.433722e+003,3.805634e+000
1.434687e+003,4.941696e+000
1.435651e+003,5.642441e+000
1.436615e+003,4.692673e+000
1.437579e+003,4.306274e+000
1.438544e+003,5.377747e+000
1.439508e+003,6.458466e+000
1.440472e+003,6.188354e+000
1.441436e+003,5.506638e+000
1.442401e+003,6.677261e+000
1.443365e+003,9.929550e+000
1.444329e+003,1.221373e+001
1.445293e+003,1.112511e+001
1.446257e+003,8.375549e+000
1.447222e+003,6.892029e+000
1.448186e+003,6.511383e+000
1.449150e+003,6.727936e+000
1.450114e+003,7.679672e+000
1.451079e+003,8.334579e+000
1.452043e+003,8.049576e+000
1.453007e+003,7.421906e+000
1.453971e+003,7.221039e+000
1.454936e+003,7.335342e+000
1.455900e+003,7.199448e+000
1.456864e+003,6.715210e+000
1.457828e+003,6.133377e+000
1.458792e+003,5.163956e+000
1.459757e+003,4.402496e+000
1.460721e+003,4.405670e+000
1.461685e+003,4.979309e+000
1.462649e+003,5.990158e+000
1.463614e+003,7.324646e+000
1.464578e+003,8.082901e+000
1.465542e+003,7.281845e+000
1.466506e+003,5.517792e+000
1.467471e+003,4.778076e+000
1.468435e+003,5.483658e+000
1.469399e+003,5.772781e+000
1.470363e+003,4.723114e+000
1.471328e+003,4.150757e+000
1.472292e+003,4.416519e+000
1.473256e+003,5.069672e+000
1.474220e+003,6.191025e+000
1.475184e+003,7.573593e+000
1.476149e+003,8.902512e+000
1.477113e+003,9.920471e+000
1.478077e+003,1.034180e+001
1.479041e+003,9.954788e+000
1.480006e+003,9.167587e+000
1.480970e+003,9.149292e+000
1.481934e+003,1.022348e+001
1.482898e+003,1.005391e+001
1.483863e+003,6.924988e+000
1.484827e+003,5.048676e+000
1.485791e+003,6.393631e+000
1.486755e+003,8.903671e+000
1.487719e+003,1.081529e+001
1.488684e+003,1.209831e+001
1.489648e+003,1.332834e+001
1.490612e+003,1.476726e+001
1.491576e+003,1.649512e+001
1.492541e+003,1.863513e+001
1.493505e+003,2.087463e+001
1.494469e+003,2.291125e+001
1.495433e+003,2.447545e+001
1.496398e+003,2.388547e+001
1.497362e+003,1.994873e+001
1.498326e+003,1.770900e+001
1.499290e+003,2.042200e+001
1.500255e+003,2.580228e+001
1.501219e+003,3.147565e+001
1.502183e+003,3.708298e+001
1.503147e+003,4.126422e+001
1.504111e+003,4.347675e+001
1.505076e+003,4.543762e+001
1.506040e+003,4.736320e+001
1.507004e+003,5.043915e+001
1.507968e+003,5.613892e+001
1.508933e+003,6.360251e+001
1.509897e+003,7.109070e+001
1.510861e+003,7.847160e+001
1.511825e+003,8.644118e+001
1.512790e+003,9.509790e+001
1.513754e+003,1.049238e+002
1.514718e+003,1.179310e+002
1.515682e+003,1.339413e+002
1.516646e+003,1.468559e+002
1.517611e+003,1.550696e+002
1.518575e+003,1.632784e+002
1.519539e+003,1.742252e+002
1.520503e+003,1.844952e+002
1.521468e+003,1.930414e+002
1.522432e+003,1.992795e+002
1.523396e+003,2.022593e+002
1.524360e+003,2.022096e+002
1.525325e+003,2.007521e+002
1.526289e+003,1.989991e+002
1.527253e+003,1.963097e+002
1.528217e+003,1.915198e+002
1.529182e+003,1.847465e+002
1.530146e+003,1.757281e+002
1.531110e+003,1.633626e+002
1.532074e+003,1.504150e+002
1.533039e+003,1.363023e+002
1.534003e+003,1.220745e+002
1.534967e+003,1.086083e+002
1.535931e+003,9.555988e+001
1.536896e+003,8.164182e+001
1.537860e+003,6.765216e+001
1.538824e+003,5.621483e+001
1.539788e+003,4.852188e+001
1.540752e+003,4.273874e+001
1.541717e+003,3.653351e+001
1.542681e+003,3.020850e+001
1.543645e+003,2.507193e+001
1.544609e+003,2.147067e+001
1.545573e+003,1.871507e+001
1.546538e+003,1.670587e+001
1.547502e+003,1.527705e+001
1.548466e+003,1.491924e+001
1.549430e+003,1.497977e+001
1.550395e+003,1.442863e+001
1.551359e+003,1.357143e+001
1.552323e+003,1.387561e+001
1.553287e+003,1.576891e+001
1.554252e+003,1.763908e+001
1.555216e+003,1.817078e+001
1.556180e+003,1.738368e+001
1.557144e+003,1.483098e+001
1.558109e+003,1.050584e+001
1.559073e+003,8.222244e+000
1.560037e+003,8.906845e+000
1.561001e+003,9.445862e+000
1.561966e+003,8.490097e+000
1.562930e+003,7.598907e+000
1.563894e+003,8.533508e+000
1.564858e+003,1.045251e+001
1.565823e+003,1.111847e+001
1.566787e+003,1.015381e+001
1.567751e+003,9.275803e+000
1.568715e+003,9.468643e+000
1.569679e+003,1.024870e+001
1.570644e+003,1.141878e+001
1.571608e+003,1.242175e+001
1.572572e+003,1.161514e+001
1.573536e+003,8.977020e+000
1.574500e+003,7.189590e+000
1.575465e+003,7.232681e+000
1.576429e+003,8.112244e+000
1.577393e+003,9.283066e+000
1.578357e+003,1.055449e+001
1.579322e+003,1.157756e+001
1.580286e+003,1.239870e+001
1.581250e+003,1.360223e+001
1.582214e+003,1.558917e+001
1.583179e+003,1.713655e+001
1.584143e+003,1.704811e+001
1.585107e+003,1.614421e+001
1.586071e+003,1.560783e+001
1.587036e+003,1.549158e+001
1.588000e+003,1.549802e+001
1.588964e+003,1.546046e+001
1.589928e+003,1.571413e+001
1.590893e+003,1.683476e+001
1.591857e+003,1.807388e+001
1.592821e+003,1.811130e+001
1.593785e+003,1.721046e+001
1.594750e+003,1.678441e+001
1.595714e+003,1.698384e+001
1.596678e+003,1.742522e+001
1.597642e+003,1.815768e+001
1.598606e+003,1.882088e+001
1.599571e+003,1.920100e+001
1.600535e+003,1.938496e+001
1.601499e+003,1.931090e+001
1.602463e+003,1.904457e+001
1.603427e+003,1.898000e+001
1.604392e+003,1.928857e+001
1.605356e+003,1.981381e+001
1.606320e+003,2.047864e+001
1.607284e+003,2.122260e+001
1.608249e+003,2.202959e+001
1.609213e+003,2.292444e+001
1.610177e+003,2.286679e+001
1.611141e+003,2.130621e+001
1.612106e+003,1.974586e+001
1.613070e+003,1.896440e+001
1.614034e+003,1.837213e+001
1.614998e+003,1.711783e+001
1.615963e+003,1.594987e+001
1.616927e+003,1.660651e+001
1.617891e+003,1.897212e+001
1.618855e+003,2.052811e+001
1.619820e+003,1.967117e+001
1.620784e+003,1.753841e+001
1.621748e+003,1.554929e+001
1.622712e+003,1.398164e+001
1.623677e+003,1.381062e+001
1.624641e+003,1.535280e+001
1.625605e+003,1.651712e+001
1.626569e+003,1.632866e+001
1.627533e+003,1.599269e+001
1.628498e+003,1.655489e+001
1.629462e+003,1.710391e+001
1.630426e+003,1.631123e+001
1.631390e+003,1.496434e+001
1.632354e+003,1.510869e+001
1.633319e+003,1.707347e+001
1.634283e+003,1.896364e+001
1.635247e+003,1.935707e+001
1.636211e+003,1.887119e+001
1.637176e+003,1.871722e+001
1.638140e+003,1.889552e+001
1.639104e+003,1.835483e+001
1.640068e+003,1.652328e+001
1.641033e+003,1.592101e+001
1.641997e+003,1.860521e+001
1.642961e+003,2.070418e+001
1.643925e+003,1.933282e+001
1.644890e+003,1.726595e+001
1.645854e+003,1.764449e+001
1.646818e+003,1.961386e+001
1.647782e+003,2.013777e+001
1.648747e+003,1.838698e+001
1.649711e+003,1.688365e+001
1.650675e+003,1.798065e+001
1.651639e+003,2.028506e+001
1.652604e+003,2.074326e+001
1.653568e+003,1.935521e+001
1.654532e+003,1.766785e+001
1.655496e+003,1.541759e+001
1.656460e+003,1.413832e+001
1.657425e+003,1.507446e+001
1.658389e+003,1.610376e+001
1.659353e+003,1.616907e+001
1.660317e+003,1.565631e+001
1.661281e+003,1.442636e+001
1.662246e+003,1.301189e+001
1.663210e+003,1.312929e+001
1.664174e+003,1.528925e+001
1.665138e+003,1.714711e+001
1.666103e+003,1.652713e+001
1.667067e+003,1.450639e+001
1.668031e+003,1.312059e+001
1.668995e+003,1.240591e+001
1.669960e+003,1.255063e+001
1.670924e+003,1.384932e+001
1.671888e+003,1.499149e+001
1.672852e+003,1.573209e+001
1.673817e+003,1.585255e+001
1.674781e+003,1.514267e+001
1.675745e+003,1.384155e+001
1.676709e+003,1.141145e+001
1.677674e+003,8.652313e+000
1.678638e+003,8.289108e+000
1.679602e+003,1.113678e+001
1.680566e+003,1.354280e+001
1.681531e+003,1.238164e+001
1.682495e+003,9.671478e+000
1.683459e+003,8.885178e+000
1.684423e+003,9.582169e+000
1.685387e+003,9.051758e+000
1.686352e+003,6.805435e+000
1.687316e+003,5.863846e+000
1.688280e+003,7.872314e+000
1.689244e+003,1.010263e+001
1.690208e+003,1.067741e+001
1.691173e+003,1.023434e+001
1.692137e+003,8.948212e+000
1.693101e+003,7.349838e+000
1.694065e+003,6.876450e+000
1.695030e+003,7.824234e+000
1.695994e+003,8.691971e+000
1.696958e+003,8.663528e+000
1.697922e+003,8.071411e+000
1.698887e+003,7.240936e+000
1.699851e+003,6.228867e+000
1.700815e+003,4.844437e+000
1.701779e+003,3.066895e+000
1.702744e+003,2.325317e+000
1.703708e+003,3.283646e+000
1.704672e+003,5.056183e+000
1.705636e+003,7.564789e+000
1.706601e+003,9.637100e+000
1.707565e+003,9.295990e+000
1.708529e+003,7.345459e+000
1.709493e+003,6.123611e+000
1.710458e+003,5.985489e+000
1.711422e+003,5.546661e+000
1.712386e+003,3.792587e+000
1.713350e+003,2.248550e+000
1.714314e+003,2.135056e+000
1.715279e+003,2.819321e+000
1.716243e+003,3.479172e+000
1.717207e+003,4.024445e+000
1.718171e+003,4.605286e+000
1.719135e+003,5.287308e+000
1.720100e+003,5.021576e+000
1.721064e+003,2.691971e+000
1.722028e+003,1.619110e-001
1.722992e+003,6.946106e-001
1.723957e+003,3.561539e+000
1.724921e+003,3.558640e+000
1.725885e+003,-1.925049e-001
1.726849e+003,-2.211594e+000
1.727814e+003,-2.595673e-001
1.728778e+003,2.059006e+000
1.729742e+003,3.436050e+000
1.730706e+003,4.207733e+000
1.731671e+003,4.624405e+000
1.732635e+003,4.544510e+000
1.733599e+003,3.751144e+000
1.734563e+003,2.404251e+000
1.735528e+003,8.977509e-001
1.736492e+003,-6.118469e-001
1.737456e+003,-1.797318e+000
1.738420e+003,-2.267227e+000
1.739385e+003,-2.173813e+000
1.740349e+003,-1.746567e+000
1.741313e+003,-8.484955e-001
1.742277e+003,8.360291e-002
1.743241e+003,1.652267e+000
1.744206e+003,2.495682e+000
1.745170e+003,1.718491e+000
1.746134e+003,8.975983e-001
1.747098e+003,9.060822e-001
1.748063e+003,1.316910e+000
1.749027e+003,1.882263e+000
1.749991e+003,2.303955e+000
1.750955e+003,1.708572e+000
1.751919e+003,7.987976e-002
1.752884e+003,-6.731110e-001
1.753848e+003,1.071884e+000
1.754812e+003,3.625366e+000
1.755776e+003,3.512207e+000
1.756741e+003,9.324951e-001
1.757705e+003,-5.220795e-001
1.758669e+003,-5.509186e-001
1.759633e+003,-5.906982e-001
1.760598e+003,-1.242264e+000
1.761562e+003,-1.381210e+000
1.762526e+003,1.273346e-001
1.763490e+003,1.620804e+000
1.764455e+003,1.829315e+000
1.765419e+003,1.318604e+000
1.766383e+003,9.347382e-001
1.767347e+003,7.881622e-001
1.768312e+003,7.966309e-001
1.769276e+003,9.052887e-001
1.770240e+003,5.285492e-001
1.771204e+003,-1.006348e+000
1.772168e+003,-3.082397e+000
1.773133e+003,-4.790161e+000
1.774097e+003,-6.057297e+000
1.775061e+003,-5.765121e+000
1.776025e+003,-3.611023e+000
1.776990e+003,-2.191040e+000
1.777954e+003,-2.578400e+000
1.778918e+003,-3.042679e+000
1.779882e+003,-2.058105e+000
1.780846e+003,-8.761444e-001
1.781811e+003,-1.661621e+000
1.782775e+003,-3.532715e+000
1.783739e+003,-3.156784e+000
1.784703e+003,2.694244e-001
1.785668e+003,2.328857e+000
1.786632e+003,2.858887e-001
1.787596e+003,-2.689255e+000
1.788560e+003,-4.637009e+000
1.789525e+003,-5.599442e+000
1.790489e+003,-5.614136e+000
1.791453e+003,-4.892822e+000
1.792417e+003,-3.634140e+000
1.793382e+003,-1.991287e+000
1.794346e+003,-7.300415e-001
1.795310e+003,-2.573395e-001
1.796274e+003,-5.131226e-001
1.797239e+003,-1.546234e+000
1.798203e+003,-2.754807e+000
1.799167e+003,-2.454849e+000
1.800131e+003,-4.398804e-001
1.801095e+003,2.169495e-001
1.802060e+003,-1.275116e+000
1.803024e+003,-2.323761e+000
1.803988e+003,-2.595200e+000
1.804952e+003,-2.631256e+000
1.805917e+003,-2.888870e+000
1.806881e+003,-2.871658e+000
1.807845e+003,-1.745758e+000
1.808809e+003,1.286316e-002
1.809773e+003,1.577469e+000
1.810738e+003,2.570511e+000
1.811702e+003,2.502380e+000
1.812666e+003,1.102112e+000
1.813630e+003,-3.385620e-001
1.814595e+003,1.136475e-001
1.815559e+003,1.698868e+000
1.816523e+003,1.079025e+000
1.817487e+003,-2.043732e+000
1.818452e+003,-3.568420e+000
1.819416e+003,-2.627045e+000
1.820380e+003,-1.782623e+000
1.821344e+003,-1.989227e+000
1.822309e+003,-2.282257e+000
1.823273e+003,-2.424469e+000
1.824237e+003,-1.975189e+000
1.825201e+003,2.814484e-001
1.826166e+003,3.283188e+000
1.827130e+003,4.290634e+000
1.828094e+003,2.817810e+000
1.829058e+003,3.155365e-001
1.830022e+003,-3.309494e+000
1.830987e+003,-5.918396e+000
1.831951e+003,-4.835098e+000
1.832915e+003,-2.314850e+000
1.833879e+003,-1.907654e+000
1.834844e+003,-2.910431e+000
1.835808e+003,-2.385666e+000
1.836772e+003,-9.832764e-002
1.837736e+003,1.100723e+000
1.838700e+003,-1.277771e-001
1.839665e+003,-1.389969e+000
1.840629e+003,-3.067627e-001
1.841593e+003,1.812531e+000
1.842557e+003,2.074234e+000
1.843522e+003,5.004120e-001
1.844486e+003,-8.101959e-001
1.845450e+003,-2.138016e+000
1.846414e+003,-2.345932e+000
1.847379e+003,-1.153564e-002
1.848343e+003,1.137421e+000
1.849307e+003,-1.566132e+000
1.850271e+003,-4.056488e+000
1.851236e+003,-2.278183e+000
1.852200e+003,9.489288e-001
1.853164e+003,9.331360e-001
1.854128e+003,-1.921310e+000
1.855093e+003,-3.721207e+000
1.856057e+003,-2.973679e+000
1.857021e+003,-1.658478e+000
1.857985e+003,-1.431335e+000
1.858949e+003,-1.888290e+000
1.859914e+003,-2.589447e+000
1.860878e+003,-3.331757e+000
1.861842e+003,-2.895248e+000
1.862806e+003,-1.271500e+000
1.863771e+003,-2.666016e-001
1.864735e+003,-3.032684e-001
1.865699e+003,-6.351166e-001
1.866663e+003,-1.148529e+000
1.867627e+003,-1.241852e+000
1.868592e+003,2.141724e-001
1.869556e+003,1.864365e+000
1.870520e+003,9.268494e-001
1.871484e+003,-2.143051e+000
1.872449e+003,-4.374847e+000
1.873413e+003,-5.439453e+000
1.874377e+003,-4.787399e+000
1.875341e+003,-6.452484e-001
1.876306e+003,2.693405e+000
1.877270e+003,1.926010e+000
1.878234e+003,1.261749e-001
1.879198e+003,7.415314e-001
1.880163e+003,2.603455e+000
1.881127e+003,3.058258e+000
1.882091e+003,1.988403e+000
1.883055e+003,9.537811e-001
1.884020e+003,6.265869e-001
1.884984e+003,5.406494e-001
1.885948e+003,2.750244e-001
1.886912e+003,-6.347656e-003
1.887876e+003,6.924438e-002
1.888841e+003,4.712219e-001
1.889805e+003,6.070557e-001
1.890769e+003,3.273773e-001
1.891733e+003,7.183533e-001
1.892698e+003,2.455841e+000
1.893662e+003,3.208633e+000
1.894626e+003,1.102936e+000
1.895590e+003,-7.129364e-001
1.896554e+003,7.307892e-001
1.897519e+003,3.176147e+000
1.898483e+003,3.772232e+000
1.899447e+003,2.844421e+000
1.900411e+003,2.124466e+000
1.901376e+003,1.919815e+000
1.902340e+003,2.029221e+000
1.903304e+003,2.803268e+000
1.904268e+003,3.159973e+000
1.905233e+003,1.864853e+000
1.906197e+003,4.541016e-001
1.907161e+003,5.455475e-001
1.908125e+003,1.714096e+000
1.909090e+003,3.416550e+000
1.910054e+003,5.108017e+000
1.911018e+003,5.559128e+000
1.911982e+003,4.552902e+000
1.912947e+003,3.405289e+000
1.913911e+003,3.050552e+000
1.914875e+003,3.204651e+000
1.915839e+003,3.393646e+000
1.916803e+003,3.608429e+000
1.917768e+003,4.378494e+000
1.918732e+003,6.052826e+000
1.919696e+003,6.300522e+000
1.920660e+003,4.352158e+000
1.921625e+003,3.296005e+000
1.922589e+003,4.235367e+000
1.923553e+003,5.316269e+000
1.924517e+003,5.847153e+000
1.925481e+003,5.874084e+000
1.926446e+003,4.869812e+000
1.927410e+003,3.615067e+000
1.928374e+003,3.961502e+000
1.929338e+003,5.777084e+000
1.930303e+003,6.404266e+000
1.931267e+003,4.825455e+000
1.932231e+003,3.675079e+000
1.933195e+003,4.409927e+000
1.934160e+003,5.429123e+000
1.935124e+003,5.823990e+000
1.936088e+003,5.583755e+000
1.937052e+003,4.486771e+000
1.938017e+003,3.044022e+000
1.938981e+003,2.083588e+000
1.939945e+003,1.772095e+000
1.940909e+003,2.072723e+000
1.941874e+003,2.867035e+000
1.942838e+003,3.554306e+000
1.943802e+003,3.651031e+000
1.944766e+003,3.490997e+000
1.945730e+003,3.402908e+000
1.946695e+003,3.430176e+000
1.947659e+003,4.757767e+000
1.948623e+003,7.561981e+000
1.949587e+003,9.461578e+000
1.950552e+003,1.032059e+001
1.951516e+003,9.910278e+000
1.952480e+003,7.472809e+000
1.953444e+003,5.163452e+000
1.954408e+003,4.309586e+000
1.955373e+003,4.462372e+000
1.956337e+003,5.861572e+000
1.957301e+003,7.904984e+000
1.958265e+003,7.709717e+000
1.959230e+003,4.823975e+000
1.960194e+003,3.202377e+000
1.961158e+003,3.729156e+000
1.962122e+003,4.705093e+000
1.963087e+003,6.448669e+000
1.964051e+003,7.675034e+000
1.965015e+003,7.577072e+000
1.965979e+003,6.855621e+000
1.966944e+003,5.594162e+000
1.967908e+003,4.404144e+000
1.968872e+003,4.472610e+000
1.969836e+003,5.686066e+000
1.970801e+003,6.847870e+000
1.971765e+003,7.411758e+000
1.972729e+003,7.266052e+000
1.973693e+003,6.082947e+000
1.974657e+003,4.809799e+000
1.975622e+003,5.145920e+000
1.976586e+003,6.342712e+000
1.977550e+003,6.352066e+000
1.978514e+003,5.395874e+000
1.979479e+003,4.689133e+000
1.980443e+003,4.421997e+000
1.981407e+003,4.887131e+000
1.982371e+003,6.281326e+000
1.983335e+003,7.580826e+000
1.984300e+003,7.995148e+000
1.985264e+003,7.601013e+000
1.986228e+003,6.415695e+000
1.987192e+003,4.763214e+000
1.988157e+003,4.426971e+000
1.989121e+003,5.835556e+000
1.990085e+003,6.523056e+000
1.991049e+003,5.965012e+000
1.992014e+003,5.858749e+000
1.992978e+003,6.426208e+000
1.993942e+003,7.337585e+000
1.994906e+003,9.274796e+000
1.995871e+003,1.071297e+001
1.996835e+003,9.876205e+000
1.997799e+003,8.282578e+000
1.998763e+003,8.300110e+000
1.999728e+003,9.629395e+000
