5.003444e+002,4.786952e+001
5.013087e+002,4.725969e+001
5.022729e+002,4.605051e+001
5.032371e+002,4.466013e+001
5.042014e+002,4.402852e+001
5.051656e+002,4.405809e+001
5.061298e+002,4.410234e+001
5.070941e+002,4.354248e+001
5.080583e+002,4.219157e+001
5.090225e+002,4.079202e+001
5.099868e+002,3.870700e+001
5.109510e+002,3.718832e+001
5.119152e+002,3.730298e+001
5.128795e+002,3.923117e+001
5.138437e+002,4.041968e+001
5.148079e+002,3.880881e+001
5.157722e+002,3.743069e+001
5.167364e+002,3.818034e+001
5.177006e+002,4.077530e+001
5.186649e+002,4.276112e+001
5.196291e+002,4.017369e+001
5.205933e+002,3.619543e+001
5.215576e+002,3.440257e+001
5.225218e+002,3.495471e+001
5.234860e+002,3.637366e+001
5.244503e+002,3.612103e+001
5.254145e+002,3.369373e+001
5.263787e+002,3.209320e+001
5.273430e+002,3.168129e+001
5.283072e+002,3.183833e+001
5.292714e+002,3.167058e+001
5.302357e+002,3.075586e+001
5.311999e+002,3.000360e+001
5.321641e+002,2.979889e+001
5.331284e+002,2.985210e+001
5.340926e+002,2.997708e+001
5.350568e+002,3.006305e+001
5.360211e+002,2.976099e+001
5.369853e+002,2.904070e+001
5.379495e+002,2.795187e+001
5.389138e+002,2.587468e+001
5.398780e+002,2.283170e+001
5.408422e+002,1.991197e+001
5.418065e+002,2.093973e+001
5.427707e+002,2.525745e+001
5.437349e+002,2.835251e+001
5.446992e+002,2.890097e+001
5.456634e+002,2.749341e+001
5.466276e+002,2.624449e+001
5.475919e+002,2.473801e+001
5.485561e+002,2.418330e+001
5.495203e+002,2.556053e+001
5.504846e+002,2.749248e+001
5.514488e+002,2.785080e+001
5.524130e+002,2.510118e+001
5.533773e+002,2.275380e+001
5.543415e+002,2.342879e+001
5.553057e+002,2.497083e+001
5.562700e+002,2.488377e+001
5.572342e+002,2.164281e+001
5.581984e+002,1.700162e+001
5.591627e+002,1.512622e+001
5.601269e+002,1.528033e+001
5.610911e+002,1.634393e+001
5.620554e+002,1.778798e+001
5.630196e+002,1.946165e+001
5.639838e+002,2.040971e+001
5.649481e+002,2.052689e+001
5.659123e+002,2.011621e+001
5.668765e+002,1.905162e+001
5.678408e+002,1.764023e+001
5.688050e+002,1.653020e+001
5.697692e+002,1.560587e+001
5.707335e+002,1.507182e+001
5.716977e+002,1.552177e+001
5.726619e+002,1.629117e+001
5.736262e+002,1.646762e+001
5.745904e+002,1.537364e+001
5.755546e+002,1.381920e+001
5.765189e+002,1.286168e+001
5.774831e+002,1.228381e+001
5.784473e+002,1.185846e+001
5.794116e+002,1.148756e+001
5.803758e+002,1.129083e+001
5.813400e+002,1.189099e+001
5.823043e+002,1.340845e+001
5.832685e+002,1.466849e+001
5.842327e+002,1.563051e+001
5.851970e+002,1.628247e+001
5.861612e+002,1.599768e+001
5.871254e+002,1.296120e+001
5.880897e+002,1.066595e+001
5.890539e+002,9.862289e+000
5.900181e+002,1.016064e+001
5.909824e+002,1.098347e+001
5.919466e+002,1.232236e+001
5.929108e+002,1.340024e+001
5.938751e+002,1.345218e+001
5.948393e+002,1.279761e+001
5.958035e+002,1.187541e+001
5.967678e+002,1.102754e+001
5.977320e+002,1.029842e+001
5.986962e+002,9.545227e+000
5.996605e+002,8.564972e+000
6.006247e+002,7.907639e+000
6.015889e+002,8.255035e+000
6.025532e+002,9.480286e+000
6.035174e+002,9.506439e+000
6.044816e+002,6.291809e+000
6.054459e+002,4.095230e+000
6.064101e+002,3.896286e+000
6.073743e+002,5.062622e+000
6.083386e+002,6.510269e+000
6.093028e+002,8.065689e+000
6.102670e+002,9.035065e+000
6.112313e+002,8.194946e+000
6.121955e+002,6.794144e+000
6.131597e+002,6.727707e+000
6.141240e+002,9.241135e+000
6.150882e+002,1.333789e+001
6.160524e+002,1.480658e+001
6.170167e+002,1.417726e+001
6.179809e+002,1.273271e+001
6.189451e+002,1.067175e+001
6.199094e+002,8.105087e+000
6.208736e+002,6.336624e+000
6.218378e+002,6.304184e+000
6.228021e+002,6.319061e+000
6.237663e+002,6.215134e+000
6.247305e+002,6.119125e+000
6.256948e+002,6.245483e+000
6.266590e+002,6.686523e+000
6.276232e+002,7.048996e+000
6.285875e+002,7.162842e+000
6.295517e+002,7.218857e+000
6.305159e+002,7.390015e+000
6.314802e+002,7.733337e+000
6.324444e+002,8.095657e+000
6.334086e+002,8.232925e+000
6.343729e+002,8.271652e+000
6.353371e+002,8.184769e+000
6.363013e+002,7.892670e+000
6.372656e+002,7.461578e+000
6.382298e+002,7.246033e+000
6.391940e+002,8.003983e+000
6.401583e+002,7.789398e+000
6.411225e+002,6.001724e+000
6.420867e+002,3.775009e+000
6.430510e+002,2.291321e+000
6.440152e+002,1.774872e+000
6.449794e+002,1.920181e+000
6.459437e+002,3.499298e+000
6.469079e+002,4.915878e+000
6.478721e+002,4.481140e+000
6.488364e+002,1.891418e+000
6.498006e+002,-1.084427e+000
6.507648e+002,-9.857483e-001
6.517291e+002,1.055756e+000
6.526933e+002,2.339371e+000
6.536575e+002,2.321060e+000
6.546218e+002,1.770203e+000
6.555860e+002,2.248154e+000
6.565502e+002,4.831268e+000
6.575145e+002,5.983307e+000
6.584787e+002,4.769012e+000
6.594429e+002,3.094849e+000
6.604072e+002,2.614487e+000
6.613714e+002,3.701447e+000
6.623356e+002,4.396896e+000
6.632999e+002,3.178741e+000
6.642641e+002,1.699234e+000
6.652283e+002,7.745972e-001
6.661926e+002,5.797882e-001
6.671568e+002,8.619080e-001
6.681210e+002,1.394897e+000
6.690853e+002,2.001282e+000
6.700495e+002,2.382736e+000
6.710137e+002,2.540558e+000
6.719780e+002,2.546646e+000
6.729422e+002,2.463837e+000
6.739064e+002,2.265778e+000
6.748707e+002,1.853683e+000
6.758349e+002,5.238495e-001
6.767991e+002,-2.308655e-001
6.777634e+002,8.252716e-001
6.787276e+002,3.438385e+000
6.796918e+002,5.277039e+000
6.806561e+002,4.721420e+000
6.816203e+002,3.772629e+000
6.825845e+002,2.818390e+000
6.835488e+002,2.104324e+000
6.845130e+002,1.959930e+000
6.854772e+002,2.705963e+000
6.864415e+002,3.959366e+000
6.874057e+002,4.704483e+000
6.883699e+002,4.959045e+000
6.893342e+002,5.018967e+000
6.902984e+002,5.085846e+000
6.912626e+002,5.141068e+000
6.922269e+002,4.812393e+000
6.931911e+002,3.823471e+000
6.941553e+002,3.142197e+000
6.951196e+002,2.727707e+000
6.960838e+002,2.499985e+000
6.970480e+002,2.610229e+000
6.980123e+002,3.635864e+000
6.989765e+002,3.656006e+000
6.999407e+002,1.105682e+000
7.009050e+002,-1.992783e+000
7.018692e+002,-4.388809e+000
7.028334e+002,-5.496521e+000
7.037977e+002,-5.171097e+000
7.047619e+002,-1.966873e+000
7.057261e+002,2.591873e+000
7.066904e+002,5.052826e+000
7.076546e+002,4.843140e+000
7.086188e+002,3.231613e+000
7.095831e+002,2.161774e+000
7.105473e+002,1.734589e+000
7.115115e+002,1.440964e+000
7.124758e+002,1.379623e+000
7.134400e+002,1.257690e+000
7.144042e+002,8.916321e-001
7.153685e+002,3.247833e-001
7.163327e+002,-1.168823e-001
7.172969e+002,-5.523682e-002
7.182612e+002,-2.688599e-002
7.192254e+002,-4.142609e-001
7.201896e+002,-1.060364e+000
7.211539e+002,-1.752975e+000
7.221181e+002,-2.416718e+000
7.230823e+002,-2.497925e+000
7.240466e+002,4.962158e-002
7.250108e+002,4.581314e+000
7.259750e+002,8.053772e+000
7.269393e+002,8.515976e+000
7.279035e+002,6.204666e+000
7.288677e+002,4.113297e+000
7.298320e+002,2.126007e+000
7.307962e+002,1.031021e+000
7.317604e+002,1.173340e+000
7.327247e+002,2.153534e+000
7.336889e+002,3.575012e+000
7.346531e+002,5.518677e+000
7.356174e+002,6.534592e+000
7.365816e+002,5.539139e+000
7.375458e+002,4.077026e+000
7.385101e+002,3.222229e+000
7.394743e+002,3.280579e+000
7.404385e+002,3.819687e+000
7.414028e+002,4.178040e+000
7.423670e+002,4.231323e+000
7.433312e+002,4.485367e+000
7.442955e+002,5.164108e+000
7.452597e+002,6.024719e+000
7.462239e+002,6.785477e+000
7.471882e+002,7.493866e+000
7.481524e+002,7.569656e+000
7.491166e+002,6.581970e+000
7.500809e+002,5.274124e+000
7.510451e+002,3.619949e+000
7.520093e+002,1.843231e+000
7.529736e+002,5.736084e-001
7.539378e+002,3.937683e-001
7.549020e+002,7.084808e-001
7.558663e+002,1.377411e+000
7.568306e+002,2.089294e+000
7.577948e+002,2.201233e+000
7.587590e+002,1.363861e+000
7.597233e+002,1.717682e-001
7.606875e+002,1.151337e+000
7.616517e+002,4.041046e+000
7.626160e+002,5.650452e+000
7.635802e+002,4.842056e+000
7.645444e+002,2.710541e+000
7.655087e+002,1.516708e+000
7.664729e+002,1.760452e+000
7.674371e+002,1.839050e+000
7.684014e+002,1.049271e+000
7.693656e+002,5.759888e-001
7.703298e+002,1.637589e+000
7.712941e+002,4.164658e+000
7.722583e+002,6.170578e+000
7.732225e+002,5.574951e+000
7.741868e+002,4.425461e+000
7.751510e+002,4.337570e+000
7.761152e+002,5.121368e+000
7.770795e+002,6.004257e+000
7.780437e+002,6.292007e+000
7.790079e+002,6.015854e+000
7.799722e+002,5.648849e+000
7.809364e+002,5.205872e+000
7.819006e+002,4.677139e+000
7.828649e+002,3.709976e+000
7.838291e+002,2.741867e+000
7.847933e+002,3.239380e+000
7.857576e+002,6.576385e+000
7.867218e+002,8.761627e+000
7.876860e+002,8.955612e+000
7.886503e+002,8.234207e+000
7.896145e+002,7.277359e+000
7.905787e+002,6.340759e+000
7.915430e+002,5.539597e+000
7.925072e+002,4.634338e+000
7.934714e+002,4.041565e+000
7.944357e+002,4.868805e+000
7.953999e+002,6.918167e+000
7.963641e+002,8.725800e+000
7.973284e+002,8.561142e+000
7.982926e+002,6.264603e+000
7.992568e+002,5.006302e+000
8.002211e+002,4.877563e+000
8.011853e+002,4.793579e+000
8.021495e+002,4.575607e+000
8.031138e+002,4.397766e+000
8.040780e+002,4.417847e+000
8.050422e+002,4.745285e+000
8.060065e+002,4.769119e+000
8.069707e+002,3.861465e+000
8.079349e+002,2.727173e+000
8.088992e+002,2.056213e+000
8.098634e+002,2.148956e+000
8.108276e+002,2.852890e+000
8.117919e+002,4.331787e+000
8.127561e+002,5.826218e+000
8.137203e+002,5.924362e+000
8.146846e+002,4.612213e+000
8.156488e+002,3.091629e+000
8.166130e+002,2.782455e+000
8.175773e+002,3.899704e+000
8.185415e+002,4.764114e+000
8.195057e+002,4.784271e+000
8.204700e+002,5.107147e+000
8.214342e+002,7.083939e+000
8.223984e+002,9.649399e+000
8.233627e+002,9.607285e+000
8.243269e+002,4.113632e+000
8.252911e+002,-4.417114e-001
8.262554e+002,1.333771e-001
8.272196e+002,2.936050e+000
8.281838e+002,5.161438e+000
8.291481e+002,5.691818e+000
8.301123e+002,5.384918e+000
8.310765e+002,5.783157e+000
8.320408e+002,6.699814e+000
8.330050e+002,6.418045e+000
8.339692e+002,4.490784e+000
8.349335e+002,2.564850e+000
8.358977e+002,2.703918e+000
8.368619e+002,5.425690e+000
8.378262e+002,6.808289e+000
8.387904e+002,5.413300e+000
8.397546e+002,4.019135e+000
8.407189e+002,3.034164e+000
8.416831e+002,2.592896e+000
8.426473e+002,2.980026e+000
8.436116e+002,4.570404e+000
8.445758e+002,6.020752e+000
8.455400e+002,5.067825e+000
8.465043e+002,3.352921e+000
8.474685e+002,3.196823e+000
8.484327e+002,5.134125e+000
8.493970e+002,7.620178e+000
8.503612e+002,7.847122e+000
8.513254e+002,5.173737e+000
8.522897e+002,4.747635e+000
8.532539e+002,8.107407e+000
8.542181e+002,1.128430e+001
8.551824e+002,1.167992e+001
8.561466e+002,9.779251e+000
8.571108e+002,8.785889e+000
8.580751e+002,9.522308e+000
8.590393e+002,1.055263e+001
8.600035e+002,1.218871e+001
8.609678e+002,1.365796e+001
8.619320e+002,1.381889e+001
8.628962e+002,1.231194e+001
8.638605e+002,1.047815e+001
8.648247e+002,1.058870e+001
8.657889e+002,1.183415e+001
8.667532e+002,1.258412e+001
8.677174e+002,1.262553e+001
8.686816e+002,1.226283e+001
8.696459e+002,1.169067e+001
8.706101e+002,1.074345e+001
8.715743e+002,1.140695e+001
8.725386e+002,1.549165e+001
8.735028e+002,1.876045e+001
8.744670e+002,1.993550e+001
8.754313e+002,1.947650e+001
8.763955e+002,1.810034e+001
8.773597e+002,1.554933e+001
8.783240e+002,1.404919e+001
8.792882e+002,1.577730e+001
8.802524e+002,1.865129e+001
8.812167e+002,2.121530e+001
8.821809e+002,2.298575e+001
8.831451e+002,2.414447e+001
8.841094e+002,2.495853e+001
8.850736e+002,2.542813e+001
8.860378e+002,2.470306e+001
8.870021e+002,2.219444e+001
8.879663e+002,2.038405e+001
8.889305e+002,2.115189e+001
8.898948e+002,2.386069e+001
8.908590e+002,2.529019e+001
8.918232e+002,2.408263e+001
8.927875e+002,2.371698e+001
8.937517e+002,2.574055e+001
8.947159e+002,2.821785e+001
8.956802e+002,2.938519e+001
8.966444e+002,2.887250e+001
8.976086e+002,2.779347e+001
8.985729e+002,2.719771e+001
8.995371e+002,2.705087e+001
9.005013e+002,2.714021e+001
9.014656e+002,2.747531e+001
9.024298e+002,2.792549e+001
9.033940e+002,2.832404e+001
9.043583e+002,2.860518e+001
9.053225e+002,2.895271e+001
9.062867e+002,2.993246e+001
9.072510e+002,2.999173e+001
9.082152e+002,2.853261e+001
9.091794e+002,2.676199e+001
9.101437e+002,2.557240e+001
9.111079e+002,2.508405e+001
9.120721e+002,2.572104e+001
9.130364e+002,2.984451e+001
9.140006e+002,3.311499e+001
9.149648e+002,3.205176e+001
9.159291e+002,2.829929e+001
9.168933e+002,2.539198e+001
9.178575e+002,2.575252e+001
9.188218e+002,2.841751e+001
9.197860e+002,3.055583e+001
9.207502e+002,3.216293e+001
9.217145e+002,3.286328e+001
9.226787e+002,3.239319e+001
9.236429e+002,3.141968e+001
9.246072e+002,3.062653e+001
9.255714e+002,2.989015e+001
9.265356e+002,2.953107e+001
9.274999e+002,3.052449e+001
9.284641e+002,3.080206e+001
9.294283e+002,2.902837e+001
9.303926e+002,2.624095e+001
9.313568e+002,2.431050e+001
9.323210e+002,2.421742e+001
9.332853e+002,2.491176e+001
9.342495e+002,2.506752e+001
9.352137e+002,2.476151e+001
9.361780e+002,2.403746e+001
9.371422e+002,2.299358e+001
9.381064e+002,2.174139e+001
9.390707e+002,2.018451e+001
9.400349e+002,1.791914e+001
9.409991e+002,1.737486e+001
9.419634e+002,2.033078e+001
9.429276e+002,2.243626e+001
9.438918e+002,2.228563e+001
9.448561e+002,2.070668e+001
9.458203e+002,1.892336e+001
9.467845e+002,1.711372e+001
9.477488e+002,1.605341e+001
9.487130e+002,1.672694e+001
9.496772e+002,1.803816e+001
9.506415e+002,1.937419e+001
9.516057e+002,2.054594e+001
9.525699e+002,2.152681e+001
9.535342e+002,2.229408e+001
9.544984e+002,2.276433e+001
9.554626e+002,2.249200e+001
9.564269e+002,2.163647e+001
9.573911e+002,2.046681e+001
9.583553e+002,1.859552e+001
9.593196e+002,1.657739e+001
9.602838e+002,1.539508e+001
9.612480e+002,1.520175e+001
9.622123e+002,1.520415e+001
9.631765e+002,1.543904e+001
9.641407e+002,1.562088e+001
9.651050e+002,1.563683e+001
9.660692e+002,1.541298e+001
9.670334e+002,1.484436e+001
9.679977e+002,1.391055e+001
9.689619e+002,1.298837e+001
9.699261e+002,1.247990e+001
9.708904e+002,1.238258e+001
9.718546e+002,1.326306e+001
9.728188e+002,1.527368e+001
9.737831e+002,1.802330e+001
9.747473e+002,2.142697e+001
9.757115e+002,2.595407e+001
9.766758e+002,2.870358e+001
9.776400e+002,2.890034e+001
9.786042e+002,2.843987e+001
9.795685e+002,2.742253e+001
9.805327e+002,2.596579e+001
9.814969e+002,2.414825e+001
9.824612e+002,2.206636e+001
9.834254e+002,2.004332e+001
9.843896e+002,1.805051e+001
9.853539e+002,1.631949e+001
9.863181e+002,1.534972e+001
9.872823e+002,1.496010e+001
9.882466e+002,1.452390e+001
9.892108e+002,1.361963e+001
9.901750e+002,1.243753e+001
9.911393e+002,1.136151e+001
9.921035e+002,9.740738e+000
9.930677e+002,8.786850e+000
9.940320e+002,9.413254e+000
9.949962e+002,1.026851e+001
9.959604e+002,9.761230e+000
9.969247e+002,7.899918e+000
9.978889e+002,6.994232e+000
9.988531e+002,9.105438e+000
9.998174e+002,1.092339e+001
1.000782e+003,9.710190e+000
1.001746e+003,7.331055e+000
1.002710e+003,6.934250e+000
1.003674e+003,9.635269e+000
1.004639e+003,1.316252e+001
1.005603e+003,1.337823e+001
1.006567e+003,9.853683e+000
1.007531e+003,8.012436e+000
1.008495e+003,8.378662e+000
1.009460e+003,9.269699e+000
1.010424e+003,1.012230e+001
1.011388e+003,1.079388e+001
1.012352e+003,1.048076e+001
1.013317e+003,8.449448e+000
1.014281e+003,6.574875e+000
1.015245e+003,5.193649e+000
1.016209e+003,4.247910e+000
1.017174e+003,3.716812e+000
1.018138e+003,3.616577e+000
1.019102e+003,4.227097e+000
1.020066e+003,6.001099e+000
1.021031e+003,8.030212e+000
1.021995e+003,6.675339e+000
1.022959e+003,2.649170e+000
1.023923e+003,1.433716e-001
1.024887e+003,8.901062e-001
1.025852e+003,3.083908e+000
1.026816e+003,3.925125e+000
1.027780e+003,3.211746e+000
1.028744e+003,2.454758e+000
1.029709e+003,1.443771e+000
1.030673e+003,7.324829e-001
1.031637e+003,5.700226e-001
1.032601e+003,7.158966e-001
1.033566e+003,8.699799e-001
1.034530e+003,9.551086e-001
1.035494e+003,1.162155e+000
1.036458e+003,1.933273e+000
1.037422e+003,2.712158e+000
1.038387e+003,2.426025e+000
1.039351e+003,1.139420e+000
1.040315e+003,-1.149292e-001
1.041279e+003,-5.251617e-001
1.042244e+003,-2.261963e-001
1.043208e+003,-8.883667e-002
1.044172e+003,-5.672607e-001
1.045136e+003,-5.825043e-001
1.046101e+003,5.877991e-001
1.047065e+003,1.603912e+000
1.048029e+003,1.161896e+000
1.048993e+003,-3.090363e-001
1.049958e+003,-8.968201e-001
1.050922e+003,6.138000e-001
1.051886e+003,2.593460e+000
1.052850e+003,3.189117e+000
1.053814e+003,3.243744e+000
1.054779e+003,4.152435e+000
1.055743e+003,6.021393e+000
1.056707e+003,7.390182e+000
1.057671e+003,6.438065e+000
1.058636e+003,3.125214e+000
1.059600e+003,6.780701e-001
1.060564e+003,-6.643829e-001
1.061528e+003,-1.324753e+000
1.062493e+003,-1.442307e+000
1.063457e+003,-1.005737e+000
1.064421e+003,6.660004e-001
1.065385e+003,3.593918e+000
1.066349e+003,5.069458e+000
1.067314e+003,2.604828e+000
1.068278e+003,-4.595947e-001
1.069242e+003,-2.209702e+000
1.070206e+003,-2.715424e+000
1.071171e+003,-2.067963e+000
1.072135e+003,-4.595032e-001
1.073099e+003,1.643692e+000
1.074063e+003,3.593781e+000
1.075028e+003,5.489548e+000
1.075992e+003,5.900620e+000
1.076956e+003,3.911774e+000
1.077920e+003,2.098846e+000
1.078885e+003,1.693863e+000
1.079849e+003,2.102249e+000
1.080813e+003,2.120422e+000
1.081777e+003,1.510132e+000
1.082741e+003,1.053879e+000
1.083706e+003,1.142181e+000
1.084670e+003,1.307556e+000
1.085634e+003,1.477097e+000
1.086598e+003,1.497345e+000
1.087563e+003,9.494171e-001
1.088527e+003,-2.637939e-001
1.089491e+003,-1.238617e+000
1.090455e+003,-6.269836e-002
1.091420e+003,3.495407e+000
1.092384e+003,4.245789e+000
1.093348e+003,6.042786e-001
1.094312e+003,-3.027786e+000
1.095276e+003,-3.894653e+000
1.096241e+003,-2.690689e+000
1.097205e+003,-1.540024e+000
1.098169e+003,-5.372162e-001
1.099133e+003,-2.439575e-001
1.100098e+003,-1.360703e+000
1.101062e+003,-2.642334e+000
1.102026e+003,-3.665833e+000
1.102990e+003,-4.143539e+000
1.103955e+003,-3.522964e+000
1.104919e+003,-1.524338e+000
1.105883e+003,8.303680e-001
1.106847e+003,1.256592e+000
1.107812e+003,-3.055573e-001
1.108776e+003,-1.072144e+000
1.109740e+003,-5.356140e-001
1.110704e+003,-1.330566e-002
1.111668e+003,-5.841827e-001
1.112633e+003,-1.878799e+000
1.113597e+003,-2.562088e+000
1.114561e+003,-2.599426e+000
1.115525e+003,-1.948837e+000
1.116490e+003,1.341400e-001
1.117454e+003,2.081970e+000
1.118418e+003,2.905472e+000
1.119382e+003,2.805496e+000
1.120347e+003,2.490311e+000
1.121311e+003,2.318832e+000
1.122275e+003,1.963333e+000
1.123239e+003,8.493347e-001
1.124203e+003,-7.993622e-001
1.125168e+003,-1.771423e+000
1.126132e+003,-1.907776e+000
1.127096e+003,-1.467148e+000
1.128060e+003,-3.412476e-001
1.129025e+003,1.200089e+000
1.129989e+003,1.976929e+000
1.130953e+003,1.654053e+000
1.131917e+003,1.013824e+000
1.132882e+003,-4.020691e-002
1.133846e+003,-9.136353e-001
1.134810e+003,-9.705505e-001
1.135774e+003,-5.621338e-001
1.136739e+003,-7.421112e-001
1.137703e+003,-2.083771e+000
1.138667e+003,-3.502167e+000
1.139631e+003,-2.851639e+000
1.140595e+003,-3.922882e-001
1.141560e+003,1.308319e+000
1.142524e+003,2.063583e+000
1.143488e+003,2.592850e+000
1.144452e+003,3.101151e+000
1.145417e+003,3.722748e+000
1.146381e+003,5.038681e+000
1.147345e+003,7.252365e+000
1.148309e+003,9.555450e+000
1.149274e+003,1.179652e+001
1.150238e+003,1.409825e+001
1.151202e+003,1.679257e+001
1.152166e+003,1.960213e+001
1.153130e+003,2.184769e+001
1.154095e+003,2.319827e+001
1.155059e+003,2.432152e+001
1.156023e+003,2.669801e+001
1.156987e+003,2.980080e+001
1.157952e+003,2.968449e+001
1.158916e+003,2.600510e+001
1.159880e+003,2.202264e+001
1.160844e+003,1.915428e+001
1.161809e+003,1.695477e+001
1.162773e+003,1.473730e+001
1.163737e+003,1.254227e+001
1.164701e+003,1.017288e+001
1.165666e+003,6.456940e+000
1.166630e+003,3.883759e+000
1.167594e+003,4.458984e+000
1.168558e+003,6.264404e+000
1.169522e+003,6.574280e+000
1.170487e+003,4.676620e+000
1.171451e+003,2.284714e+000
1.172415e+003,1.290390e+000
1.173379e+003,1.410065e+000
1.174344e+003,1.187134e+000
1.175308e+003,6.161652e-001
1.176272e+003,2.794495e-001
1.177236e+003,6.772461e-001
1.178201e+003,1.217133e+000
1.179165e+003,1.090408e+000
1.180129e+003,2.316895e-001
1.181093e+003,-9.816284e-001
1.182057e+003,-3.086838e+000
1.183022e+003,-4.494431e+000
1.183986e+003,-4.470551e+000
1.184950e+003,-3.671219e+000
1.185914e+003,-2.319229e+000
1.186879e+003,-7.662048e-001
1.187843e+003,2.766418e-001
1.188807e+003,1.979828e-001
1.189771e+003,-7.266388e-001
1.190736e+003,-1.649063e+000
1.191700e+003,-2.587189e+000
1.192664e+003,-3.391724e+000
1.193628e+003,-4.248032e+000
1.194593e+003,-4.607101e+000
1.195557e+003,-3.534485e+000
1.196521e+003,-1.643845e+000
1.197485e+003,-1.273895e+000
1.198449e+003,-3.305710e+000
1.199414e+003,-5.114532e+000
1.200378e+003,-4.978989e+000
1.201342e+003,-4.701828e+000
1.202306e+003,-5.672089e+000
1.203271e+003,-7.419907e+000
1.204235e+003,-8.837433e+000
1.205199e+003,-9.315506e+000
1.206163e+003,-8.918655e+000
1.207128e+003,-7.676453e+000
1.208092e+003,-5.513596e+000
1.209056e+003,-4.153412e+000
1.210020e+003,-3.319504e+000
1.210984e+003,-3.572922e+000
1.211949e+003,-5.890640e+000
1.212913e+003,-8.916550e+000
1.213877e+003,-1.086729e+001
1.214841e+003,-1.161394e+001
1.215806e+003,-1.214087e+001
1.216770e+003,-1.272382e+001
1.217734e+003,-1.337912e+001
1.218698e+003,-1.421965e+001
1.219663e+003,-1.513112e+001
1.220627e+003,-1.605966e+001
1.221591e+003,-1.691214e+001
1.222555e+003,-1.749086e+001
1.223520e+003,-1.760255e+001
1.224484e+003,-1.719417e+001
1.225448e+003,-1.614186e+001
1.226412e+003,-1.372484e+001
1.227376e+003,-1.241431e+001
1.228341e+003,-1.293269e+001
1.229305e+003,-1.375523e+001
1.230269e+003,-1.412079e+001
1.231233e+003,-1.419679e+001
1.232198e+003,-1.455226e+001
1.233162e+003,-1.534642e+001
1.234126e+003,-1.542384e+001
1.235090e+003,-1.305779e+001
1.236055e+003,-1.055478e+001
1.237019e+003,-1.093526e+001
1.237983e+003,-1.319440e+001
1.238947e+003,-1.424585e+001
1.239911e+003,-1.278481e+001
1.240876e+003,-1.079793e+001
1.241840e+003,-1.145918e+001
1.242804e+003,-1.498296e+001
1.243768e+003,-1.707289e+001
1.244733e+003,-1.634518e+001
1.245697e+003,-1.591771e+001
1.246661e+003,-1.676282e+001
1.247625e+003,-1.746075e+001
1.248590e+003,-1.655737e+001
1.249554e+003,-1.445595e+001
1.250518e+003,-1.268060e+001
1.251482e+003,-1.193410e+001
1.252447e+003,-1.196466e+001
1.253411e+003,-1.287720e+001
1.254375e+003,-1.404413e+001
1.255339e+003,-1.409132e+001
1.256303e+003,-1.297075e+001
1.257268e+003,-1.174828e+001
1.258232e+003,-1.105611e+001
1.259196e+003,-1.076588e+001
1.260160e+003,-1.052650e+001
1.261125e+003,-1.028467e+001
1.262089e+003,-9.977890e+000
1.263053e+003,-9.378174e+000
1.264017e+003,-9.173828e+000
1.264982e+003,-1.000734e+001
1.265946e+003,-1.089163e+001
1.266910e+003,-1.079327e+001
1.267874e+003,-9.794098e+000
1.268839e+003,-8.605499e+000
1.269803e+003,-7.679016e+000
1.270767e+003,-7.277161e+000
1.271731e+003,-8.152054e+000
1.272695e+003,-1.019879e+001
1.273660e+003,-1.125888e+001
1.274624e+003,-1.102390e+001
1.275588e+003,-1.082224e+001
1.276552e+003,-1.146321e+001
1.277517e+003,-1.242558e+001
1.278481e+003,-1.292784e+001
1.279445e+003,-1.297252e+001
1.280409e+003,-1.225850e+001
1.281374e+003,-9.644577e+000
1.282338e+003,-7.664490e+000
1.283302e+003,-7.842255e+000
1.284266e+003,-9.179916e+000
1.285230e+003,-1.107445e+001
1.286195e+003,-1.297774e+001
1.287159e+003,-1.378067e+001
1.288123e+003,-1.252351e+001
1.289087e+003,-1.004756e+001
1.290052e+003,-9.113770e+000
1.291016e+003,-1.040363e+001
1.291980e+003,-1.105777e+001
1.292944e+003,-1.058330e+001
1.293909e+003,-1.030766e+001
1.294873e+003,-1.083192e+001
1.295837e+003,-1.167197e+001
1.296801e+003,-1.220621e+001
1.297766e+003,-1.234761e+001
1.298730e+003,-1.236597e+001
1.299694e+003,-1.247301e+001
1.300658e+003,-1.248245e+001
1.301622e+003,-1.192302e+001
1.302587e+003,-1.116872e+001
1.303551e+003,-1.103888e+001
1.304515e+003,-1.156468e+001
1.305479e+003,-1.170129e+001
1.306444e+003,-1.047717e+001
1.307408e+003,-8.546921e+000
1.308372e+003,-8.067459e+000
1.309336e+003,-9.419159e+000
1.310301e+003,-1.110696e+001
1.311265e+003,-1.389101e+001
1.312229e+003,-1.587140e+001
1.313193e+003,-1.628911e+001
1.314157e+003,-1.577502e+001
1.315122e+003,-1.468469e+001
1.316086e+003,-1.336836e+001
1.317050e+003,-1.254399e+001
1.318014e+003,-1.270750e+001
1.318979e+003,-1.302785e+001
1.319943e+003,-1.171088e+001
1.320907e+003,-9.066315e+000
1.321871e+003,-8.187775e+000
1.322836e+003,-9.698685e+000
1.323800e+003,-1.153200e+001
1.324764e+003,-1.318861e+001
1.325728e+003,-1.415962e+001
1.326693e+003,-1.304414e+001
1.327657e+003,-9.800125e+000
1.328621e+003,-8.018021e+000
1.329585e+003,-9.629990e+000
1.330549e+003,-1.072076e+001
1.331514e+003,-8.231430e+000
1.332478e+003,-5.433685e+000
1.333442e+003,-5.968369e+000
1.334406e+003,-9.223480e+000
1.335371e+003,-1.190648e+001
1.336335e+003,-1.202420e+001
1.337299e+003,-1.069243e+001
1.338263e+003,-1.003125e+001
1.339228e+003,-1.010854e+001
1.340192e+003,-1.019359e+001
1.341156e+003,-1.073859e+001
1.342120e+003,-1.064429e+001
1.343084e+003,-8.744598e+000
1.344049e+003,-7.184036e+000
1.345013e+003,-8.156799e+000
1.345977e+003,-1.089066e+001
1.346941e+003,-1.304512e+001
1.347906e+003,-1.383443e+001
1.348870e+003,-1.327475e+001
1.349834e+003,-1.063470e+001
1.350798e+003,-7.265442e+000
1.351763e+003,-5.401031e+000
1.352727e+003,-4.983841e+000
1.353691e+003,-5.949463e+000
1.354655e+003,-8.698685e+000
1.355620e+003,-1.129755e+001
1.356584e+003,-1.074483e+001
1.357548e+003,-7.563248e+000
1.358512e+003,-7.112534e+000
1.359476e+003,-1.133478e+001
1.360441e+003,-1.389908e+001
1.361405e+003,-1.174118e+001
1.362369e+003,-9.113815e+000
1.363333e+003,-7.828857e+000
1.364298e+003,-7.495193e+000
1.365262e+003,-7.417862e+000
1.366226e+003,-7.329590e+000
1.367190e+003,-7.199356e+000
1.368155e+003,-6.988388e+000
1.369119e+003,-6.868759e+000
1.370083e+003,-7.429428e+000
1.371047e+003,-8.982437e+000
1.372011e+003,-9.641525e+000
1.372976e+003,-9.212570e+000
1.373940e+003,-8.368500e+000
1.374904e+003,-6.851852e+000
1.375868e+003,-5.310898e+000
1.376833e+003,-4.640472e+000
1.377797e+003,-4.866135e+000
1.378761e+003,-5.384094e+000
1.379725e+003,-5.996429e+000
1.380690e+003,-6.577026e+000
1.381654e+003,-6.807098e+000
1.382618e+003,-6.990677e+000
1.383582e+003,-7.867416e+000
1.384547e+003,-9.282578e+000
1.385511e+003,-9.905685e+000
1.386475e+003,-8.938293e+000
1.387439e+003,-7.440964e+000
1.388403e+003,-7.153625e+000
1.389368e+003,-8.078781e+000
1.390332e+003,-8.286362e+000
1.391296e+003,-7.170837e+000
1.392260e+003,-6.354477e+000
1.393225e+003,-5.985687e+000
1.394189e+003,-6.222900e+000
1.395153e+003,-8.106323e+000
1.396117e+003,-1.024361e+001
1.397082e+003,-1.016563e+001
1.398046e+003,-7.585037e+000
1.399010e+003,-4.834137e+000
1.399974e+003,-4.088364e+000
1.400938e+003,-5.001419e+000
1.401903e+003,-6.344482e+000
1.402867e+003,-8.199539e+000
1.403831e+003,-9.031235e+000
1.404795e+003,-8.688660e+000
1.405760e+003,-7.788300e+000
1.406724e+003,-6.046448e+000
1.407688e+003,-4.448242e+000
1.408652e+003,-4.045212e+000
1.409617e+003,-4.713837e+000
1.410581e+003,-5.852875e+000
1.411545e+003,-7.413528e+000
1.412509e+003,-8.395782e+000
1.413474e+003,-7.323608e+000
1.414438e+003,-5.478897e+000
1.415402e+003,-4.808228e+000
1.416366e+003,-5.182297e+000
1.417330e+003,-5.954834e+000
1.418295e+003,-7.015106e+000
1.419259e+003,-7.861282e+000
1.420223e+003,-7.801285e+000
1.421187e+003,-7.038101e+000
1.422152e+003,-6.698105e+000
1.423116e+003,-7.113663e+000
1.424080e+003,-6.626114e+000
1.425044e+003,-3.211273e+000
1.426009e+003,-6.832733e-001
1.426973e+003,-1.245621e+000
1.427937e+003,-3.221207e+000
1.428901e+003,-4.882141e+000
1.429865e+003,-5.726089e+000
1.430830e+003,-5.678284e+000
1.431794e+003,-4.764145e+000
1.432758e+003,-3.739471e+000
1.433722e+003,-4.104706e+000
1.434687e+003,-5.965775e+000
1.435651e+003,-6.349472e+000
1.436615e+003,-3.994675e+000
1.437579e+003,-2.571915e+000
1.438544e+003,-2.868073e+000
1.439508e+003,-3.635559e+000
1.440472e+003,-4.222534e+000
1.441436e+003,-4.503387e+000
1.442401e+003,-4.413696e+000
1.443365e+003,-3.998123e+000
1.444329e+003,-3.484543e+000
1.445293e+003,-2.959290e+000
1.446257e+003,-2.553772e+000
1.447222e+003,-2.479858e+000
1.448186e+003,-2.792679e+000
1.449150e+003,-3.973923e+000
1.450114e+003,-6.423172e+000
1.451079e+003,-8.386719e+000
1.452043e+003,-9.158524e+000
1.453007e+003,-8.719070e+000
1.453971e+003,-6.283905e+000
1.454936e+003,-2.349182e+000
1.455900e+003,-5.729675e-001
1.456864e+003,-2.346008e+000
1.457828e+003,-3.926071e+000
1.458792e+003,-2.385544e+000
1.459757e+003,-5.839691e-001
1.460721e+003,-1.304245e+000
1.461685e+003,-3.440887e+000
1.462649e+003,-4.509216e+000
1.463614e+003,-3.869843e+000
1.464578e+003,-2.797226e+000
1.465542e+003,-2.426529e+000
1.466506e+003,-2.527344e+000
1.467471e+003,-2.286102e+000
1.468435e+003,-1.483566e+000
1.469399e+003,-9.895172e-001
1.470363e+003,-1.178650e+000
1.471328e+003,-1.415970e+000
1.472292e+003,-1.623108e+000
1.473256e+003,-1.918045e+000
1.474220e+003,-2.367508e+000
1.475184e+003,-2.809875e+000
1.476149e+003,-3.126282e+000
1.477113e+003,-3.269440e+000
1.478077e+003,-2.981400e+000
1.479041e+003,-1.905731e+000
1.480006e+003,-5.142517e-001
1.480970e+003,-6.701355e-001
1.481934e+003,-3.255844e+000
1.482898e+003,-3.887222e+000
1.483863e+003,-8.813934e-001
1.484827e+003,1.447128e+000
1.485791e+003,1.850769e+000
1.486755e+003,1.343002e+000
1.487719e+003,4.569550e-001
1.488684e+003,-5.509491e-001
1.489648e+003,-1.201950e+000
1.490612e+003,-1.321396e+000
1.491576e+003,-1.326584e+000
1.492541e+003,-1.678879e+000
1.493505e+003,-2.043655e+000
1.494469e+003,-1.538971e+000
1.495433e+003,-3.880615e-001
1.496398e+003,5.933228e-001
1.497362e+003,1.385208e+000
1.498326e+003,2.178162e+000
1.499290e+003,3.094650e+000
1.500255e+003,4.021255e+000
1.501219e+003,4.747223e+000
1.502183e+003,5.287277e+000
1.503147e+003,5.887848e+000
1.504111e+003,6.623596e+000
1.505076e+003,7.289474e+000
1.506040e+003,7.456161e+000
1.507004e+003,7.878464e+000
1.507968e+003,9.681442e+000
1.508933e+003,1.214742e+001
1.509897e+003,1.340945e+001
1.510861e+003,1.334952e+001
1.511825e+003,1.456148e+001
1.512790e+003,1.913431e+001
1.513754e+003,2.529947e+001
1.514718e+003,2.999986e+001
1.515682e+003,3.317780e+001
1.516646e+003,3.513307e+001
1.517611e+003,3.537732e+001
1.518575e+003,3.584203e+001
1.519539e+003,3.753130e+001
1.520503e+003,3.930298e+001
1.521468e+003,4.069504e+001
1.522432e+003,4.164395e+001
1.523396e+003,4.237892e+001
1.524360e+003,4.270900e+001
1.525325e+003,4.171120e+001
1.526289e+003,3.879698e+001
1.527253e+003,3.519554e+001
1.528217e+003,3.313127e+001
1.529182e+003,3.267949e+001
1.530146e+003,3.176968e+001
1.531110e+003,3.051277e+001
1.532074e+003,2.844920e+001
1.533039e+003,2.523495e+001
1.534003e+003,2.137120e+001
1.534967e+003,1.604173e+001
1.535931e+003,1.115648e+001
1.536896e+003,9.352478e+000
1.537860e+003,1.008118e+001
1.538824e+003,1.049806e+001
1.539788e+003,9.104630e+000
1.540752e+003,6.930511e+000
1.541717e+003,5.325684e+000
1.542681e+003,4.301880e+000
1.543645e+003,3.667496e+000
1.544609e+003,3.617828e+000
1.545573e+003,3.706146e+000
1.546538e+003,3.879288e+000
1.547502e+003,4.032883e+000
1.548466e+003,3.708649e+000
1.549430e+003,3.879288e+000
1.550395e+003,6.383469e+000
1.551359e+003,1.007658e+001
1.552323e+003,1.135199e+001
1.553287e+003,9.115646e+000
1.554252e+003,6.556305e+000
1.555216e+003,6.567429e+000
1.556180e+003,7.805313e+000
1.557144e+003,6.928543e+000
1.558109e+003,3.885315e+000
1.559073e+003,2.262863e+000
1.560037e+003,2.960892e+000
1.561001e+003,3.074677e+000
1.561966e+003,7.796326e-001
1.562930e+003,-1.476105e+000
1.563894e+003,-1.253418e+000
1.564858e+003,6.681671e-001
1.565823e+003,2.429108e+000
1.566787e+003,3.602936e+000
1.567751e+003,4.197250e+000
1.568715e+003,4.184265e+000
1.569679e+003,3.731201e+000
1.570644e+003,2.314621e+000
1.571608e+003,7.772980e-001
1.572572e+003,2.308136e+000
1.573536e+003,7.151199e+000
1.574500e+003,9.985596e+000
1.575465e+003,8.069901e+000
1.576429e+003,5.173828e+000
1.577393e+003,3.790024e+000
1.578357e+003,3.719177e+000
1.579322e+003,5.406815e+000
1.580286e+003,8.586899e+000
1.581250e+003,9.401703e+000
1.582214e+003,5.861115e+000
1.583179e+003,2.869446e+000
1.584143e+003,4.804123e+000
1.585107e+003,8.487183e+000
1.586071e+003,9.828766e+000
1.587036e+003,9.422058e+000
1.588000e+003,8.620865e+000
1.588964e+003,7.584427e+000
1.589928e+003,7.230286e+000
1.590893e+003,8.645569e+000
1.591857e+003,1.064941e+001
1.592821e+003,1.135667e+001
1.593785e+003,1.101915e+001
1.594750e+003,1.105397e+001
1.595714e+003,1.164757e+001
1.596678e+003,1.229999e+001
1.597642e+003,1.313748e+001
1.598606e+003,1.349727e+001
1.599571e+003,1.264154e+001
1.600535e+003,1.121596e+001
1.601499e+003,9.654007e+000
1.602463e+003,8.211487e+000
1.603427e+003,7.864685e+000
1.604392e+003,9.100174e+000
1.605356e+003,1.080530e+001
1.606320e+003,1.196448e+001
1.607284e+003,1.269531e+001
1.608249e+003,1.330658e+001
1.609213e+003,1.379323e+001
1.610177e+003,1.429453e+001
1.611141e+003,1.495447e+001
1.612106e+003,1.533295e+001
1.613070e+003,1.494444e+001
1.614034e+003,1.442041e+001
1.614998e+003,1.400854e+001
1.615963e+003,1.386916e+001
1.616927e+003,1.441112e+001
1.617891e+003,1.554178e+001
1.618855e+003,1.641176e+001
1.619820e+003,1.649049e+001
1.620784e+003,1.597386e+001
1.621748e+003,1.497412e+001
1.622712e+003,1.378258e+001
1.623677e+003,1.367120e+001
1.624641e+003,1.483766e+001
1.625605e+003,1.606715e+001
1.626569e+003,1.725099e+001
1.627533e+003,1.779344e+001
1.628498e+003,1.739566e+001
1.629462e+003,1.648680e+001
1.630426e+003,1.477573e+001
1.631390e+003,1.296802e+001
1.632354e+003,1.263614e+001
1.633319e+003,1.403558e+001
1.634283e+003,1.581030e+001
1.635247e+003,1.703334e+001
1.636211e+003,1.777605e+001
1.637176e+003,1.807294e+001
1.638140e+003,1.800449e+001
1.639104e+003,1.846399e+001
1.640068e+003,1.985150e+001
1.641033e+003,2.006183e+001
1.641997e+003,1.686819e+001
1.642961e+003,1.494504e+001
1.643925e+003,1.830240e+001
1.644890e+003,2.254028e+001
1.645854e+003,2.299454e+001
1.646818e+003,2.057269e+001
1.647782e+003,1.860579e+001
1.648747e+003,1.813484e+001
1.649711e+003,1.796536e+001
1.650675e+003,1.711032e+001
1.651639e+003,1.605899e+001
1.652604e+003,1.579712e+001
1.653568e+003,1.624904e+001
1.654532e+003,1.655730e+001
1.655496e+003,1.673083e+001
1.656460e+003,1.656351e+001
1.657425e+003,1.563835e+001
1.658389e+003,1.490869e+001
1.659353e+003,1.508629e+001
1.660317e+003,1.553970e+001
1.661281e+003,1.596220e+001
1.662246e+003,1.598599e+001
1.663210e+003,1.434970e+001
1.664174e+003,1.080321e+001
1.665138e+003,8.432190e+000
1.666103e+003,1.026543e+001
1.667067e+003,1.413353e+001
1.668031e+003,1.578575e+001
1.668995e+003,1.535378e+001
1.669960e+003,1.440892e+001
1.670924e+003,1.278160e+001
1.671888e+003,1.196564e+001
1.672852e+003,1.307878e+001
1.673817e+003,1.406964e+001
1.674781e+003,1.346420e+001
1.675745e+003,1.219264e+001
1.676709e+003,1.112259e+001
1.677674e+003,1.030728e+001
1.678638e+003,9.578110e+000
1.679602e+003,8.892303e+000
1.680566e+003,8.371521e+000
1.681531e+003,8.140045e+000
1.682495e+003,8.187698e+000
1.683459e+003,8.590195e+000
1.684423e+003,9.193115e+000
1.685387e+003,9.152557e+000
1.686352e+003,8.302841e+000
1.687316e+003,7.803375e+000
1.688280e+003,8.217941e+000
1.689244e+003,8.688492e+000
1.690208e+003,8.305908e+000
1.691173e+003,7.798111e+000
1.692137e+003,8.248810e+000
1.693101e+003,9.349503e+000
1.694065e+003,9.831818e+000
1.695030e+003,9.313553e+000
1.695994e+003,8.435013e+000
1.696958e+003,7.433167e+000
1.697922e+003,6.547302e+000
1.698887e+003,6.154678e+000
1.699851e+003,6.120895e+000
1.700815e+003,6.070679e+000
1.701779e+003,5.924423e+000
1.702744e+003,5.214478e+000
1.703708e+003,3.650040e+000
1.704672e+003,2.435776e+000
1.705636e+003,2.646072e+000
1.706601e+003,3.294159e+000
1.707565e+003,2.685577e+000
1.708529e+003,1.430252e+000
1.709493e+003,1.659103e+000
1.710458e+003,3.856308e+000
1.711422e+003,5.109604e+000
1.712386e+003,3.233871e+000
1.713350e+003,1.304260e+000
1.714314e+003,2.151398e+000
1.715279e+003,4.206146e+000
1.716243e+003,4.808609e+000
1.717207e+003,4.085709e+000
1.718171e+003,3.825470e+000
1.719135e+003,4.537323e+000
1.720100e+003,5.094101e+000
1.721064e+003,4.730026e+000
1.722028e+003,3.755402e+000
1.722992e+003,2.371338e+000
1.723957e+003,9.044647e-001
1.724921e+003,9.915619e-001
1.725885e+003,2.860428e+000
1.726849e+003,3.942657e+000
1.727814e+003,3.397186e+000
1.728778e+003,2.862488e+000
1.729742e+003,3.210358e+000
1.730706e+003,3.678360e+000
1.731671e+003,3.255249e+000
1.732635e+003,2.324692e+000
1.733599e+003,1.966354e+000
1.734563e+003,2.382660e+000
1.735528e+003,3.100723e+000
1.736492e+003,3.833771e+000
1.737456e+003,4.015015e+000
1.738420e+003,2.832138e+000
1.739385e+003,8.361969e-001
1.740349e+003,3.160248e-001
1.741313e+003,1.682144e+000
1.742277e+003,2.709167e+000
1.743241e+003,4.029846e+000
1.744206e+003,4.188477e+000
1.745170e+003,1.499054e+000
1.746134e+003,-7.376099e-001
1.747098e+003,-2.304382e-001
1.748063e+003,1.340515e+000
1.749027e+003,1.958679e+000
1.749991e+003,1.754761e+000
1.750955e+003,2.091019e+000
1.751919e+003,3.270538e+000
1.752884e+003,3.996506e+000
1.753848e+003,3.184769e+000
1.754812e+003,1.485748e+000
1.755776e+003,1.674805e-001
1.756741e+003,-7.018890e-001
1.757705e+003,-7.335663e-001
1.758669e+003,2.964630e-001
1.759633e+003,1.370087e+000
1.760598e+003,3.063339e+000
1.761562e+003,3.668839e+000
1.762526e+003,1.893753e+000
1.763490e+003,-1.647949e-001
1.764455e+003,-1.251205e+000
1.765419e+003,-1.505096e+000
1.766383e+003,-1.348785e+000
1.767347e+003,-8.790588e-001
1.768312e+003,2.268524e-001
1.769276e+003,2.129593e+000
1.770240e+003,3.610703e+000
1.771204e+003,3.060333e+000
1.772168e+003,1.733994e+000
1.773133e+003,3.110718e+000
1.774097e+003,6.696899e+000
1.775061e+003,7.016205e+000
1.776025e+003,2.944183e+000
1.776990e+003,-5.182648e-001
1.777954e+003,-1.802673e+000
1.778918e+003,-1.685699e+000
1.779882e+003,1.235809e-001
1.780846e+003,2.226532e+000
1.781811e+003,2.717834e+000
1.782775e+003,2.003281e+000
1.783739e+003,1.286728e+000
1.784703e+003,7.282867e-001
1.785668e+003,5.147858e-001
1.786632e+003,1.006058e+000
1.787596e+003,1.321884e+000
1.788560e+003,6.221313e-001
1.789525e+003,-3.248444e-001
1.790489e+003,-7.080383e-001
1.791453e+003,-4.673157e-001
1.792417e+003,8.476563e-001
1.793382e+003,3.095612e+000
1.794346e+003,4.184845e+000
1.795310e+003,2.927902e+000
1.796274e+003,9.847565e-001
1.797239e+003,2.920685e-001
1.798203e+003,4.849548e-001
1.799167e+003,7.009888e-002
1.800131e+003,-1.332794e+000
1.801095e+003,-1.711899e+000
1.802060e+003,7.113647e-002
1.803024e+003,1.214233e+000
1.803988e+003,6.316986e-001
1.804952e+003,2.728729e-001
1.805917e+003,1.550262e+000
1.806881e+003,3.073090e+000
1.807845e+003,3.448059e+000
1.808809e+003,2.936905e+000
1.809773e+003,2.302643e+000
1.810738e+003,1.791336e+000
1.811702e+003,1.278366e+000
1.812666e+003,6.849060e-001
1.813630e+003,2.200928e-001
1.814595e+003,2.123718e-001
1.815559e+003,4.911804e-001
1.816523e+003,2.876892e-001
1.817487e+003,-5.029755e-001
1.818452e+003,-2.310333e-001
1.819416e+003,1.935120e+000
1.820380e+003,3.099792e+000
1.821344e+003,1.595123e+000
1.822309e+003,3.820801e-002
1.823273e+003,8.036804e-002
1.824237e+003,8.194885e-001
1.825201e+003,1.384842e+000
1.826166e+003,1.816162e+000
1.827130e+003,2.536453e+000
1.828094e+003,3.570450e+000
1.829058e+003,4.081787e+000
1.830022e+003,3.560562e+000
1.830987e+003,2.760040e+000
1.831951e+003,2.236343e+000
1.832915e+003,1.863342e+000
1.833879e+003,1.578598e+000
1.834844e+003,1.255280e+000
1.835808e+003,1.841888e-001
1.836772e+003,-1.518082e+000
1.837736e+003,-1.857635e+000
1.838700e+003,5.737305e-002
1.839665e+003,2.128296e+000
1.840629e+003,2.435791e+000
1.841593e+003,1.780945e+000
1.842557e+003,1.846924e+000
1.843522e+003,2.613617e+000
1.844486e+003,2.768311e+000
1.845450e+003,1.814056e+000
1.846414e+003,1.373260e+000
1.847379e+003,1.419724e+000
1.848343e+003,1.799316e+000
1.849307e+003,3.519379e+000
1.850271e+003,4.540344e+000
1.851236e+003,2.364609e+000
1.852200e+003,-6.965179e-001
1.853164e+003,-1.238312e+000
1.854128e+003,4.403839e-001
1.855093e+003,1.884903e+000
1.856057e+003,2.178955e+000
1.857021e+003,2.056824e+000
1.857985e+003,2.049026e+000
1.858949e+003,2.158524e+000
1.859914e+003,2.524292e+000
1.860878e+003,3.068924e+000
1.861842e+003,3.094849e+000
1.862806e+003,2.552048e+000
1.863771e+003,2.786514e+000
1.864735e+003,4.283005e+000
1.865699e+003,5.202545e+000
1.866663e+003,4.660217e+000
1.867627e+003,3.560059e+000
1.868592e+003,2.092331e+000
1.869556e+003,8.570404e-001
1.870520e+003,1.338242e+000
1.871484e+003,3.252579e+000
1.872449e+003,4.890335e+000
1.873413e+003,6.479889e+000
1.874377e+003,7.077881e+000
1.875341e+003,5.479324e+000
1.876306e+003,3.699600e+000
1.877270e+003,2.523560e+000
1.878234e+003,1.894745e+000
1.879198e+003,2.105515e+000
1.880163e+003,2.683899e+000
1.881127e+003,2.680542e+000
1.882091e+003,2.189026e+000
1.883055e+003,2.313858e+000
1.884020e+003,3.412338e+000
1.884984e+003,4.260895e+000
1.885948e+003,3.722000e+000
1.886912e+003,2.648849e+000
1.887876e+003,2.901093e+000
1.888841e+003,4.294815e+000
1.889805e+003,4.220306e+000
1.890769e+003,2.184021e+000
1.891733e+003,1.428406e+000
1.892698e+003,2.731766e+000
1.893662e+003,4.054169e+000
1.894626e+003,4.944229e+000
1.895590e+003,5.391418e+000
1.896554e+003,5.379944e+000
1.897519e+003,5.010178e+000
1.898483e+003,3.918762e+000
1.899447e+003,2.474701e+000
1.900411e+003,2.258682e+000
1.901376e+003,3.641632e+000
1.902340e+003,4.592194e+000
1.903304e+003,4.101990e+000
1.904268e+003,3.362747e+000
1.905233e+003,2.951248e+000
1.906197e+003,2.828720e+000
1.907161e+003,2.925186e+000
1.908125e+003,3.321487e+000
1.909090e+003,4.243790e+000
1.910054e+003,5.530273e+000
1.911018e+003,6.893524e+000
1.911982e+003,8.139572e+000
1.912947e+003,8.512695e+000
1.913911e+003,7.439957e+000
1.914875e+003,5.825226e+000
1.915839e+003,5.046997e+000
1.916803e+003,4.917099e+000
1.917768e+003,4.773392e+000
1.918732e+003,4.681732e+000
1.919696e+003,4.435822e+000
1.920660e+003,4.045044e+000
1.921625e+003,3.506851e+000
1.922589e+003,2.055222e+000
1.923553e+003,1.603378e+000
1.924517e+003,4.021118e+000
1.925481e+003,7.138489e+000
1.926446e+003,9.769760e+000
1.927410e+003,1.146060e+001
1.928374e+003,1.084853e+001
1.929338e+003,8.081345e+000
1.930303e+003,6.278168e+000
1.931267e+003,6.426178e+000
1.932231e+003,7.200684e+000
1.933195e+003,8.733429e+000
1.934160e+003,9.701233e+000
1.935124e+003,8.453049e+000
1.936088e+003,6.613220e+000
1.937052e+003,6.438873e+000
1.938017e+003,7.333633e+000
1.938981e+003,7.431046e+000
1.939945e+003,6.582092e+000
1.940909e+003,6.059677e+000
1.941874e+003,6.418930e+000
1.942838e+003,7.081711e+000
1.943802e+003,7.584625e+000
1.944766e+003,7.965240e+000
1.945730e+003,8.229782e+000
1.946695e+003,8.283417e+000
1.947659e+003,7.472885e+000
1.948623e+003,5.612030e+000
1.949587e+003,4.965271e+000
1.950552e+003,6.198196e+000
1.951516e+003,6.971024e+000
1.952480e+003,6.178879e+000
1.953444e+003,5.476074e+000
1.954408e+003,6.261368e+000
1.955373e+003,7.442337e+000
1.956337e+003,7.365234e+000
1.957301e+003,6.527802e+000
1.958265e+003,6.717056e+000
1.959230e+003,8.239517e+000
1.960194e+003,8.515076e+000
1.961158e+003,5.438278e+000
1.962122e+003,3.556564e+000
1.963087e+003,4.863373e+000
1.964051e+003,6.686508e+000
1.965015e+003,7.866043e+000
1.965979e+003,8.613602e+000
1.966944e+003,9.049957e+000
1.967908e+003,9.262512e+000
1.968872e+003,9.610260e+000
1.969836e+003,9.922913e+000
1.970801e+003,9.006760e+000
1.971765e+003,6.522476e+000
1.972729e+003,4.941986e+000
1.973693e+003,6.635895e+000
1.974657e+003,9.481186e+000
1.975622e+003,1.038100e+001
1.976586e+003,9.857559e+000
1.977550e+003,9.117233e+000
1.978514e+003,8.355164e+000
1.979479e+003,8.503799e+000
1.980443e+003,9.592667e+000
1.981407e+003,9.938660e+000
1.982371e+003,8.911362e+000
1.983335e+003,7.527710e+000
1.984300e+003,6.392181e+000
1.985264e+003,5.926468e+000
1.986228e+003,7.045761e+000
1.987192e+003,9.214432e+000
1.988157e+003,9.561623e+000
1.989121e+003,7.617020e+000
1.990085e+003,6.379745e+000
1.991049e+003,5.824455e+000
1.992014e+003,6.105171e+000
1.992978e+003,7.926331e+000
1.993942e+003,9.586296e+000
1.994906e+003,1.059553e+001
1.995871e+003,1.115842e+001
1.996835e+003,1.126060e+001
1.997799e+003,1.114548e+001
1.998763e+003,1.101941e+001
1.999728e+003,1.092804e+001
