5.003444e+002,3.939748e+001
5.013087e+002,3.952061e+001
5.022729e+002,3.735738e+001
5.032371e+002,3.418413e+001
5.042014e+002,3.400333e+001
5.051656e+002,3.635208e+001
5.061298e+002,3.879517e+001
5.070941e+002,3.903323e+001
5.080583e+002,3.639886e+001
5.090225e+002,3.481613e+001
5.099868e+002,3.455081e+001
5.109510e+002,3.465155e+001
5.119152e+002,3.489923e+001
5.128795e+002,3.532753e+001
5.138437e+002,3.514793e+001
5.148079e+002,3.311018e+001
5.157722e+002,3.137617e+001
5.167364e+002,3.122043e+001
5.177006e+002,3.246764e+001
5.186649e+002,3.355255e+001
5.196291e+002,3.238026e+001
5.205933e+002,3.035858e+001
5.215576e+002,2.862334e+001
5.225218e+002,2.730560e+001
5.234860e+002,2.644034e+001
5.244503e+002,2.626639e+001
5.254145e+002,2.727661e+001
5.263787e+002,2.770016e+001
5.273430e+002,2.688281e+001
5.283072e+002,2.591779e+001
5.292714e+002,2.655864e+001
5.302357e+002,3.023932e+001
5.311999e+002,3.178632e+001
5.321641e+002,2.975626e+001
5.331284e+002,2.677632e+001
5.340926e+002,2.485693e+001
5.350568e+002,2.472028e+001
5.360211e+002,2.457454e+001
5.369853e+002,2.221323e+001
5.379495e+002,1.963342e+001
5.389138e+002,1.873970e+001
5.398780e+002,2.009216e+001
5.408422e+002,2.253616e+001
5.418065e+002,2.273511e+001
5.427707e+002,2.105626e+001
5.437349e+002,2.016200e+001
5.446992e+002,2.098355e+001
5.456634e+002,2.285304e+001
5.466276e+002,2.345886e+001
5.475919e+002,2.162370e+001
5.485561e+002,1.989020e+001
5.495203e+002,1.789563e+001
5.504846e+002,1.609621e+001
5.514488e+002,1.536934e+001
5.524130e+002,1.675784e+001
5.533773e+002,1.779770e+001
5.543415e+002,1.691060e+001
5.553057e+002,1.526868e+001
5.562700e+002,1.403722e+001
5.572342e+002,1.390932e+001
5.581984e+002,1.435378e+001
5.591627e+002,1.426851e+001
5.601269e+002,1.388303e+001
5.610911e+002,1.335524e+001
5.620554e+002,1.268977e+001
5.630196e+002,1.191135e+001
5.639838e+002,1.176109e+001
5.649481e+002,1.287537e+001
5.659123e+002,1.370337e+001
5.668765e+002,1.396893e+001
5.678408e+002,1.394870e+001
5.688050e+002,1.429520e+001
5.697692e+002,1.581117e+001
5.707335e+002,1.625394e+001
5.716977e+002,1.439973e+001
5.726619e+002,1.144878e+001
5.736262e+002,8.833618e+000
5.745904e+002,7.453369e+000
5.755546e+002,7.255478e+000
5.765189e+002,8.169617e+000
5.774831e+002,9.659561e+000
5.784473e+002,1.109534e+001
5.794116e+002,1.209503e+001
5.803758e+002,1.272467e+001
5.813400e+002,1.246939e+001
5.823043e+002,1.091803e+001
5.832685e+002,9.337753e+000
5.842327e+002,8.197693e+000
5.851970e+002,7.555634e+000
5.861612e+002,7.223297e+000
5.871254e+002,6.956787e+000
5.880897e+002,7.145386e+000
5.890539e+002,8.102066e+000
5.900181e+002,9.445023e+000
5.909824e+002,1.064124e+001
5.919466e+002,1.144873e+001
5.929108e+002,1.190242e+001
5.938751e+002,1.245503e+001
5.948393e+002,1.274001e+001
5.958035e+002,1.204503e+001
5.967678e+002,9.886490e+000
5.977320e+002,6.611893e+000
5.986962e+002,4.375702e+000
5.996605e+002,2.908112e+000
6.006247e+002,1.924591e+000
6.015889e+002,1.274872e+000
6.025532e+002,9.975739e-001
6.035174e+002,1.370895e+000
6.044816e+002,3.425644e+000
6.054459e+002,5.101715e+000
6.064101e+002,6.007034e+000
6.073743e+002,6.334793e+000
6.083386e+002,6.394287e+000
6.093028e+002,6.054016e+000
6.102670e+002,6.204681e+000
6.112313e+002,8.196609e+000
6.121955e+002,1.070880e+001
6.131597e+002,1.178430e+001
6.141240e+002,1.012201e+001
6.150882e+002,6.659195e+000
6.160524e+002,5.865768e+000
6.170167e+002,7.317764e+000
6.179809e+002,8.229660e+000
6.189451e+002,6.988327e+000
6.199094e+002,3.934067e+000
6.208736e+002,2.193176e+000
6.218378e+002,4.051819e+000
6.228021e+002,4.891403e+000
6.237663e+002,3.467880e+000
6.247305e+002,1.042007e+000
6.256948e+002,-3.526306e-001
6.266590e+002,1.937714e-001
6.276232e+002,1.319275e+000
6.285875e+002,2.446457e+000
6.295517e+002,3.544952e+000
6.305159e+002,4.573151e+000
6.314802e+002,5.463821e+000
6.324444e+002,6.105591e+000
6.334086e+002,6.478256e+000
6.343729e+002,6.643219e+000
6.353371e+002,6.001755e+000
6.363013e+002,4.115601e+000
6.372656e+002,1.472458e+000
6.382298e+002,-6.651306e-002
6.391940e+002,4.597015e-001
6.401583e+002,9.024811e-001
6.411225e+002,1.339325e+000
6.420867e+002,1.883835e+000
6.430510e+002,2.599548e+000
6.440152e+002,3.433792e+000
6.449794e+002,4.206146e+000
6.459437e+002,5.251373e+000
6.469079e+002,5.962372e+000
6.478721e+002,5.797073e+000
6.488364e+002,4.644684e+000
6.498006e+002,2.965271e+000
6.507648e+002,1.176056e+000
6.517291e+002,-5.586395e-001
6.526933e+002,-1.702240e+000
6.536575e+002,-2.161514e+000
6.546218e+002,-1.992661e+000
6.555860e+002,-1.258499e+000
6.565502e+002,4.562531e-001
6.575145e+002,1.839905e+000
6.584787e+002,3.459778e+000
6.594429e+002,4.398087e+000
6.604072e+002,3.431320e+000
6.613714e+002,1.271667e-001
6.623356e+002,-2.322281e+000
6.632999e+002,-1.949005e+000
6.642641e+002,-9.143829e-001
6.652283e+002,1.327820e-001
6.661926e+002,9.438934e-001
6.671568e+002,1.436035e+000
6.681210e+002,1.316422e+000
6.690853e+002,7.648773e-001
6.700495e+002,3.486023e-001
6.710137e+002,1.113281e-001
6.719780e+002,3.153687e-001
6.729422e+002,1.355179e+000
6.739064e+002,3.581894e+000
6.748707e+002,4.055206e+000
6.758349e+002,1.895981e+000
6.767991e+002,-4.799347e-001
6.777634e+002,-2.118835e+000
6.787276e+002,-2.954346e+000
6.796918e+002,-3.410019e+000
6.806561e+002,-4.084396e+000
6.816203e+002,-4.004837e+000
6.825845e+002,-2.003784e+000
6.835488e+002,8.486938e-001
6.845130e+002,2.803604e+000
6.854772e+002,2.519119e+000
6.864415e+002,1.080246e+000
6.874057e+002,7.393799e-001
6.883699e+002,1.070129e+000
6.893342e+002,1.430069e+000
6.902984e+002,1.525024e+000
6.912626e+002,1.381775e+000
6.922269e+002,9.216003e-001
6.931911e+002,-7.289276e-001
6.941553e+002,-1.087997e+000
6.951196e+002,1.392334e+000
6.960838e+002,4.614853e+000
6.970480e+002,4.909576e+000
6.980123e+002,9.170532e-003
6.989765e+002,-3.746567e+000
6.999407e+002,-3.169891e+000
7.009050e+002,-1.134689e+000
7.018692e+002,6.072998e-002
7.028334e+002,-3.391571e-001
7.037977e+002,-1.039185e+000
7.047619e+002,8.353424e-001
7.057261e+002,3.741348e+000
7.066904e+002,3.662170e+000
7.076546e+002,-4.476929e-002
7.086188e+002,-4.626114e+000
7.095831e+002,-5.587967e+000
7.105473e+002,-1.256226e+000
7.115115e+002,1.356094e+000
7.124758e+002,1.777710e+000
7.134400e+002,1.297791e+000
7.144042e+002,2.236176e-001
7.153685e+002,-1.283783e+000
7.163327e+002,-1.848419e+000
7.172969e+002,6.625977e-001
7.182612e+002,2.914490e+000
7.192254e+002,3.447479e+000
7.201896e+002,2.545700e+000
7.211539e+002,1.024353e+000
7.221181e+002,-5.214996e-001
7.230823e+002,-1.887497e+000
7.240466e+002,-2.678635e+000
7.250108e+002,-2.864838e+000
7.259750e+002,-2.452484e+000
7.269393e+002,-1.450439e+000
7.279035e+002,-1.113586e-001
7.288677e+002,5.193787e-001
7.298320e+002,4.209747e-001
7.307962e+002,6.974792e-002
7.317604e+002,-1.092972e+000
7.327247e+002,-2.234634e+000
7.336889e+002,-1.996216e+000
7.346531e+002,3.734589e-001
7.356174e+002,1.892670e+000
7.365816e+002,7.995453e-001
7.375458e+002,-1.102753e+000
7.385101e+002,-2.961517e+000
7.394743e+002,-4.261139e+000
7.404385e+002,-4.491074e+000
7.414028e+002,-2.363342e+000
7.423670e+002,1.124390e+000
7.433312e+002,2.365356e+000
7.442955e+002,1.163010e+000
7.452597e+002,-7.351074e-001
7.462239e+002,-1.462021e+000
7.471882e+002,-7.613983e-001
7.481524e+002,-1.832886e-001
7.491166e+002,-4.689484e-001
7.500809e+002,-3.898163e-001
7.510451e+002,1.142563e+000
7.520093e+002,3.548019e+000
7.529736e+002,4.710938e+000
7.539378e+002,2.940796e+000
7.549020e+002,1.080887e+000
7.558663e+002,1.121887e+000
7.568306e+002,2.136047e+000
7.577948e+002,2.732513e+000
7.587590e+002,2.059113e+000
7.597233e+002,5.928650e-001
7.606875e+002,1.385498e-001
7.616517e+002,6.405640e-001
7.626160e+002,7.583160e-001
7.635802e+002,2.984619e-002
7.645444e+002,-1.070969e+000
7.655087e+002,-1.687820e+000
7.664729e+002,-2.128967e+000
7.674371e+002,-1.276871e+000
7.684014e+002,2.504974e+000
7.693656e+002,5.911423e+000
7.703298e+002,6.190933e+000
7.712941e+002,3.387222e+000
7.722583e+002,1.159668e+000
7.732225e+002,3.026978e+000
7.741868e+002,5.747787e+000
7.751510e+002,6.796967e+000
7.761152e+002,6.464828e+000
7.770795e+002,6.009476e+000
7.780437e+002,6.527802e+000
7.790079e+002,7.763992e+000
7.799722e+002,7.545715e+000
7.809364e+002,5.776672e+000
7.819006e+002,4.196289e+000
7.828649e+002,3.619949e+000
7.838291e+002,3.862350e+000
7.847933e+002,4.144241e+000
7.857576e+002,4.571442e+000
7.867218e+002,4.354202e+000
7.876860e+002,2.725052e+000
7.886503e+002,1.175613e+000
7.896145e+002,1.231003e+000
7.905787e+002,3.166428e+000
7.915430e+002,5.261826e+000
7.925072e+002,5.608658e+000
7.934714e+002,4.844986e+000
7.944357e+002,3.431015e+000
7.953999e+002,1.704727e+000
7.963641e+002,2.225342e-001
7.973284e+002,-4.623108e-001
7.982926e+002,-3.414307e-001
7.992568e+002,8.917999e-001
8.002211e+002,4.095840e+000
8.011853e+002,6.168060e+000
8.021495e+002,5.720398e+000
8.031138e+002,3.537918e+000
8.040780e+002,1.780441e+000
8.050422e+002,2.652130e-001
8.060065e+002,-6.872559e-002
8.069707e+002,1.934906e+000
8.079349e+002,4.405899e+000
8.088992e+002,5.409698e+000
8.098634e+002,4.410889e+000
8.108276e+002,2.915756e+000
8.117919e+002,3.110138e+000
8.127561e+002,4.044235e+000
8.137203e+002,4.087967e+000
8.146846e+002,3.205490e+000
8.156488e+002,2.330902e+000
8.166130e+002,2.612793e+000
8.175773e+002,4.384918e+000
8.185415e+002,5.043777e+000
8.195057e+002,3.708206e+000
8.204700e+002,2.344330e+000
8.214342e+002,1.409958e+000
8.223984e+002,9.574890e-001
8.233627e+002,1.050171e+000
8.243269e+002,1.879349e+000
8.252911e+002,3.099457e+000
8.262554e+002,5.085632e+000
8.272196e+002,6.910904e+000
8.281838e+002,7.498611e+000
8.291481e+002,6.527725e+000
8.301123e+002,4.602280e+000
8.310765e+002,2.568848e+000
8.320408e+002,5.384827e-001
8.330050e+002,-4.520721e-001
8.339692e+002,-1.543884e-001
8.349335e+002,7.127228e-001
8.358977e+002,1.498260e+000
8.368619e+002,2.239487e+000
8.378262e+002,3.191833e+000
8.387904e+002,4.665863e+000
8.397546e+002,5.792358e+000
8.407189e+002,6.622818e+000
8.416831e+002,6.916092e+000
8.426473e+002,5.943451e+000
8.436116e+002,2.985672e+000
8.445758e+002,5.120850e-001
8.455400e+002,1.414032e+000
8.465043e+002,3.804565e+000
8.474685e+002,6.091034e+000
8.484327e+002,7.779770e+000
8.493970e+002,9.061646e+000
8.503612e+002,1.012889e+001
8.513254e+002,1.099957e+001
8.522897e+002,1.031239e+001
8.532539e+002,6.302109e+000
8.542181e+002,3.012802e+000
8.551824e+002,3.678833e+000
8.561466e+002,7.862396e+000
8.571108e+002,1.079588e+001
8.580751e+002,1.021422e+001
8.590393e+002,9.250961e+000
8.600035e+002,8.624298e+000
8.609678e+002,8.538223e+000
8.619320e+002,9.270477e+000
8.628962e+002,1.084792e+001
8.638605e+002,1.264032e+001
8.648247e+002,1.349634e+001
8.657889e+002,1.391603e+001
8.667532e+002,1.537961e+001
8.677174e+002,1.806219e+001
8.686816e+002,2.038281e+001
8.696459e+002,2.041185e+001
8.706101e+002,1.782118e+001
8.715743e+002,1.590114e+001
8.725386e+002,1.402873e+001
8.735028e+002,1.351257e+001
8.744670e+002,1.576791e+001
8.754313e+002,1.918460e+001
8.763955e+002,2.066058e+001
8.773597e+002,1.868819e+001
8.783240e+002,1.672917e+001
8.792882e+002,1.727365e+001
8.802524e+002,1.885306e+001
8.812167e+002,2.063890e+001
8.821809e+002,2.220546e+001
8.831451e+002,2.322243e+001
8.841094e+002,2.323134e+001
8.850736e+002,2.236369e+001
8.860378e+002,2.195389e+001
8.870021e+002,2.192505e+001
8.879663e+002,2.220262e+001
8.889305e+002,2.295847e+001
8.898948e+002,2.398373e+001
8.908590e+002,2.444476e+001
8.918232e+002,2.458191e+001
8.927875e+002,2.371216e+001
8.937517e+002,2.003949e+001
8.947159e+002,1.661873e+001
8.956802e+002,1.660098e+001
8.966444e+002,2.014636e+001
8.976086e+002,2.369508e+001
8.985729e+002,2.331186e+001
8.995371e+002,2.130400e+001
9.005013e+002,2.176442e+001
9.014656e+002,2.440750e+001
9.024298e+002,2.700409e+001
9.033940e+002,2.773924e+001
9.043583e+002,2.683168e+001
9.053225e+002,2.688699e+001
9.062867e+002,2.963890e+001
9.072510e+002,3.085237e+001
9.082152e+002,2.968951e+001
9.091794e+002,2.772766e+001
9.101437e+002,2.636783e+001
9.111079e+002,2.581638e+001
9.120721e+002,2.555685e+001
9.130364e+002,2.494576e+001
9.140006e+002,2.467590e+001
9.149648e+002,2.557541e+001
9.159291e+002,2.729872e+001
9.168933e+002,2.904242e+001
9.178575e+002,3.017513e+001
9.188218e+002,3.070729e+001
9.197860e+002,3.079221e+001
9.207502e+002,3.038594e+001
9.217145e+002,2.961630e+001
9.226787e+002,2.856726e+001
9.236429e+002,2.740860e+001
9.246072e+002,2.599446e+001
9.255714e+002,2.393004e+001
9.265356e+002,2.320250e+001
9.274999e+002,2.625549e+001
9.284641e+002,2.826942e+001
9.294283e+002,2.680766e+001
9.303926e+002,2.337352e+001
9.313568e+002,2.074124e+001
9.323210e+002,2.033266e+001
9.332853e+002,2.102724e+001
9.342495e+002,2.158521e+001
9.352137e+002,2.187967e+001
9.361780e+002,2.169089e+001
9.371422e+002,2.107016e+001
9.381064e+002,2.017708e+001
9.390707e+002,1.900523e+001
9.400349e+002,1.722971e+001
9.409991e+002,1.650699e+001
9.419634e+002,1.730548e+001
9.429276e+002,1.832263e+001
9.438918e+002,1.953787e+001
9.448561e+002,2.071220e+001
9.458203e+002,2.152266e+001
9.467845e+002,2.193091e+001
9.477488e+002,2.194072e+001
9.487130e+002,2.079323e+001
9.496772e+002,1.973289e+001
9.506415e+002,2.009296e+001
9.516057e+002,2.166983e+001
9.525699e+002,2.328491e+001
9.535342e+002,2.380141e+001
9.544984e+002,2.313765e+001
9.554626e+002,2.047073e+001
9.564269e+002,1.524283e+001
9.573911e+002,1.170288e+001
9.583553e+002,1.201505e+001
9.593196e+002,1.414905e+001
9.602838e+002,1.450568e+001
9.612480e+002,1.215686e+001
9.622123e+002,1.126089e+001
9.631765e+002,1.498026e+001
9.641407e+002,1.851764e+001
9.651050e+002,1.939661e+001
9.660692e+002,1.822231e+001
9.670334e+002,1.686667e+001
9.679977e+002,1.655499e+001
9.689619e+002,1.683676e+001
9.699261e+002,1.609241e+001
9.708904e+002,1.481042e+001
9.718546e+002,1.514957e+001
9.728188e+002,1.778755e+001
9.737831e+002,2.109114e+001
9.747473e+002,2.297711e+001
9.757115e+002,2.325290e+001
9.766758e+002,2.334315e+001
9.776400e+002,2.313190e+001
9.786042e+002,2.308923e+001
9.795685e+002,2.381003e+001
9.805327e+002,2.438258e+001
9.814969e+002,2.346384e+001
9.824612e+002,2.067836e+001
9.834254e+002,1.770016e+001
9.843896e+002,1.613486e+001
9.853539e+002,1.505058e+001
9.863181e+002,1.322176e+001
9.872823e+002,1.075842e+001
9.882466e+002,8.846237e+000
9.892108e+002,8.622528e+000
9.901750e+002,1.004170e+001
9.911393e+002,1.158022e+001
9.921035e+002,1.331697e+001
9.930677e+002,1.429665e+001
9.940320e+002,1.470171e+001
9.949962e+002,1.441415e+001
9.959604e+002,1.239516e+001
9.969247e+002,8.835236e+000
9.978889e+002,7.668900e+000
9.988531e+002,1.272119e+001
9.998174e+002,1.792419e+001
1.000782e+003,1.976123e+001
1.001746e+003,1.945459e+001
1.002710e+003,1.870415e+001
1.003674e+003,1.836604e+001
1.004639e+003,1.841557e+001
1.005603e+003,1.891556e+001
1.006567e+003,1.986932e+001
1.007531e+003,1.963640e+001
1.008495e+003,1.748109e+001
1.009460e+003,1.568938e+001
1.010424e+003,1.622585e+001
1.011388e+003,1.838129e+001
1.012352e+003,1.901245e+001
1.013317e+003,1.678125e+001
1.014281e+003,1.481177e+001
1.015245e+003,1.400484e+001
1.016209e+003,1.368941e+001
1.017174e+003,1.382085e+001
1.018138e+003,1.406033e+001
1.019102e+003,1.373108e+001
1.020066e+003,1.231039e+001
1.021031e+003,1.001529e+001
1.021995e+003,6.259567e+000
1.022959e+003,1.426834e+000
1.023923e+003,-6.759033e-001
1.024887e+003,1.931702e+000
1.025852e+003,6.482697e+000
1.026816e+003,8.704773e+000
1.027780e+003,8.294418e+000
1.028744e+003,7.400558e+000
1.029709e+003,5.480331e+000
1.030673e+003,3.863144e+000
1.031637e+003,3.231720e+000
1.032601e+003,2.947647e+000
1.033566e+003,1.861191e+000
1.034530e+003,-3.466187e-001
1.035494e+003,-2.045013e+000
1.036458e+003,-8.471680e-001
1.037422e+003,1.586090e+000
1.038387e+003,2.267014e+000
1.039351e+003,1.244843e+000
1.040315e+003,4.285278e-001
1.041279e+003,1.399124e+000
1.042244e+003,3.654129e+000
1.043208e+003,4.414932e+000
1.044172e+003,2.419052e+000
1.045136e+003,7.423553e-001
1.046101e+003,-8.912048e-001
1.047065e+003,-1.776169e+000
1.048029e+003,-1.200134e+000
1.048993e+003,5.186615e-001
1.049958e+003,2.378448e+000
1.050922e+003,4.172592e+000
1.051886e+003,5.523270e+000
1.052850e+003,5.678741e+000
1.053814e+003,5.352676e+000
1.054779e+003,5.651138e+000
1.055743e+003,6.681076e+000
1.056707e+003,7.443573e+000
1.057671e+003,6.712463e+000
1.058636e+003,4.450851e+000
1.059600e+003,2.467102e+000
1.060564e+003,2.704773e-001
1.061528e+003,-6.894836e-001
1.062493e+003,1.756439e-001
1.063457e+003,1.908142e+000
1.064421e+003,4.275848e+000
1.065385e+003,7.186050e+000
1.066349e+003,7.847977e+000
1.067314e+003,2.395523e+000
1.068278e+003,-2.794235e+000
1.069242e+003,-2.343155e+000
1.070206e+003,1.147766e+000
1.071171e+003,3.177643e+000
1.072135e+003,1.923508e+000
1.073099e+003,-4.240570e-001
1.074063e+003,4.699707e-003
1.075028e+003,3.646561e+000
1.075992e+003,5.046707e+000
1.076956e+003,2.993637e+000
1.077920e+003,9.944153e-001
1.078885e+003,4.677429e-001
1.079849e+003,9.320984e-001
1.080813e+003,1.491638e+000
1.081777e+003,2.067291e+000
1.082741e+003,2.631302e+000
1.083706e+003,3.208481e+000
1.084670e+003,3.477188e+000
1.085634e+003,3.003464e+000
1.086598e+003,2.117569e+000
1.087563e+003,1.481827e+000
1.088527e+003,1.510910e+000
1.089491e+003,2.071640e+000
1.090455e+003,2.885681e+000
1.091420e+003,3.903351e+000
1.092384e+003,3.138428e+000
1.093348e+003,-7.641449e-001
1.094312e+003,-4.142181e+000
1.095276e+003,-4.241745e+000
1.096241e+003,-2.070160e+000
1.097205e+003,-1.017822e+000
1.098169e+003,-2.064026e+000
1.099133e+003,-2.755051e+000
1.100098e+003,-2.088303e+000
1.101062e+003,-7.943115e-001
1.102026e+003,1.241714e+000
1.102990e+003,3.488190e+000
1.103955e+003,4.919174e+000
1.104919e+003,4.909897e+000
1.105883e+003,4.050339e+000
1.106847e+003,3.644180e+000
1.107812e+003,3.685944e+000
1.108776e+003,3.566208e+000
1.109740e+003,3.286835e+000
1.110704e+003,2.791763e+000
1.111668e+003,1.816467e+000
1.112633e+003,6.773682e-001
1.113597e+003,5.983429e-001
1.114561e+003,2.208633e+000
1.115525e+003,3.436661e+000
1.116490e+003,3.501083e+000
1.117454e+003,3.147339e+000
1.118418e+003,2.628036e+000
1.119382e+003,2.259720e+000
1.120347e+003,2.476990e+000
1.121311e+003,3.451035e+000
1.122275e+003,4.583298e+000
1.123239e+003,4.933701e+000
1.124203e+003,4.693466e+000
1.125168e+003,4.623917e+000
1.126132e+003,4.935379e+000
1.127096e+003,5.103073e+000
1.128060e+003,4.344498e+000
1.129025e+003,2.945084e+000
1.129989e+003,2.548325e+000
1.130953e+003,3.633438e+000
1.131917e+003,4.791367e+000
1.132882e+003,5.538315e+000
1.133846e+003,6.409485e+000
1.134810e+003,8.084290e+000
1.135774e+003,1.013963e+001
1.136739e+003,1.145712e+001
1.137703e+003,1.141664e+001
1.138667e+003,1.081848e+001
1.139631e+003,1.083783e+001
1.140595e+003,1.162538e+001
1.141560e+003,1.417380e+001
1.142524e+003,1.922914e+001
1.143488e+003,2.389467e+001
1.144452e+003,2.562410e+001
1.145417e+003,2.533083e+001
1.146381e+003,2.636945e+001
1.147345e+003,2.900365e+001
1.148309e+003,3.244640e+001
1.149274e+003,3.673163e+001
1.150238e+003,4.155383e+001
1.151202e+003,4.740288e+001
1.152166e+003,5.363222e+001
1.153130e+003,5.914211e+001
1.154095e+003,6.331978e+001
1.155059e+003,6.645847e+001
1.156023e+003,6.949591e+001
1.156987e+003,7.193213e+001
1.157952e+003,7.063440e+001
1.158916e+003,6.526978e+001
1.159880e+003,5.941925e+001
1.160844e+003,5.446149e+001
1.161809e+003,5.005084e+001
1.162773e+003,4.584178e+001
1.163737e+003,4.190926e+001
1.164701e+003,3.787682e+001
1.165666e+003,3.314590e+001
1.166630e+003,2.899571e+001
1.167594e+003,2.578093e+001
1.168558e+003,2.347299e+001
1.169522e+003,2.229689e+001
1.170487e+003,2.212022e+001
1.171451e+003,2.206065e+001
1.172415e+003,2.106126e+001
1.173379e+003,1.933948e+001
1.174344e+003,1.825232e+001
1.175308e+003,1.783032e+001
1.176272e+003,1.760239e+001
1.177236e+003,1.785266e+001
1.178201e+003,1.796794e+001
1.179165e+003,1.678769e+001
1.180129e+003,1.420526e+001
1.181093e+003,1.234932e+001
1.182057e+003,1.227736e+001
1.183022e+003,1.218948e+001
1.183986e+003,1.101190e+001
1.184950e+003,9.790894e+000
1.185914e+003,9.541916e+000
1.186879e+003,1.037875e+001
1.187843e+003,1.197672e+001
1.188807e+003,1.408078e+001
1.189771e+003,1.610449e+001
1.190736e+003,1.620729e+001
1.191700e+003,1.413936e+001
1.192664e+003,1.254152e+001
1.193628e+003,1.220021e+001
1.194593e+003,1.177248e+001
1.195557e+003,9.649506e+000
1.196521e+003,6.587708e+000
1.197485e+003,5.676636e+000
1.198449e+003,8.267273e+000
1.199414e+003,1.023730e+001
1.200378e+003,9.291611e+000
1.201342e+003,7.532700e+000
1.202306e+003,5.669128e+000
1.203271e+003,4.064987e+000
1.204235e+003,3.378662e+000
1.205199e+003,3.815231e+000
1.206163e+003,4.317429e+000
1.207128e+003,3.000778e+000
1.208092e+003,-2.512817e-001
1.209056e+003,-2.607300e+000
1.210020e+003,-4.048065e+000
1.210984e+003,-4.849976e+000
1.211949e+003,-4.996292e+000
1.212913e+003,-4.650681e+000
1.213877e+003,-3.548843e+000
1.214841e+003,-1.733948e+000
1.215806e+003,-1.179153e+000
1.216770e+003,-3.431122e+000
1.217734e+003,-5.967728e+000
1.218698e+003,-7.164352e+000
1.219663e+003,-7.617599e+000
1.220627e+003,-7.884613e+000
1.221591e+003,-8.172821e+000
1.222555e+003,-8.653778e+000
1.223520e+003,-9.493073e+000
1.224484e+003,-1.041426e+001
1.225448e+003,-1.026135e+001
1.226412e+003,-7.704117e+000
1.227376e+003,-7.286545e+000
1.228341e+003,-1.131041e+001
1.229305e+003,-1.488693e+001
1.230269e+003,-1.490916e+001
1.231233e+003,-1.273921e+001
1.232198e+003,-1.111987e+001
1.233162e+003,-1.068730e+001
1.234126e+003,-1.098004e+001
1.235090e+003,-1.265253e+001
1.236055e+003,-1.407417e+001
1.237019e+003,-1.312221e+001
1.237983e+003,-1.054773e+001
1.238947e+003,-8.132263e+000
1.239911e+003,-6.586517e+000
1.240876e+003,-5.958145e+000
1.241840e+003,-6.485001e+000
1.242804e+003,-8.230927e+000
1.243768e+003,-9.785126e+000
1.244733e+003,-1.122067e+001
1.245697e+003,-1.231082e+001
1.246661e+003,-1.334430e+001
1.247625e+003,-1.394803e+001
1.248590e+003,-1.355379e+001
1.249554e+003,-1.236095e+001
1.250518e+003,-1.121043e+001
1.251482e+003,-1.055591e+001
1.252447e+003,-9.799347e+000
1.253411e+003,-7.581268e+000
1.254375e+003,-4.928574e+000
1.255339e+003,-4.382111e+000
1.256303e+003,-5.909393e+000
1.257268e+003,-7.287643e+000
1.258232e+003,-7.236145e+000
1.259196e+003,-6.572495e+000
1.260160e+003,-7.076614e+000
1.261125e+003,-9.076767e+000
1.262089e+003,-9.576736e+000
1.263053e+003,-6.666046e+000
1.264017e+003,-4.407806e+000
1.264982e+003,-4.475296e+000
1.265946e+003,-4.999329e+000
1.266910e+003,-3.583252e+000
1.267874e+003,-7.290344e-001
1.268839e+003,6.530914e-001
1.269803e+003,-1.387207e+000
1.270767e+003,-5.022339e+000
1.271731e+003,-6.716156e+000
1.272695e+003,-6.449783e+000
1.273660e+003,-6.659393e+000
1.274624e+003,-7.864975e+000
1.275588e+003,-8.742447e+000
1.276552e+003,-8.195663e+000
1.277517e+003,-6.845428e+000
1.278481e+003,-5.898743e+000
1.279445e+003,-5.454361e+000
1.280409e+003,-5.393982e+000
1.281374e+003,-6.060120e+000
1.282338e+003,-6.569855e+000
1.283302e+003,-6.139374e+000
1.284266e+003,-5.542053e+000
1.285230e+003,-5.901291e+000
1.286195e+003,-7.158829e+000
1.287159e+003,-8.089386e+000
1.288123e+003,-7.637711e+000
1.289087e+003,-6.327530e+000
1.290052e+003,-5.954941e+000
1.291016e+003,-6.824921e+000
1.291980e+003,-7.967117e+000
1.292944e+003,-1.005099e+001
1.293909e+003,-1.170502e+001
1.294873e+003,-1.217654e+001
1.295837e+003,-1.188773e+001
1.296801e+003,-1.128148e+001
1.297766e+003,-1.048766e+001
1.298730e+003,-9.974457e+000
1.299694e+003,-1.020189e+001
1.300658e+003,-1.055606e+001
1.301622e+003,-1.002887e+001
1.302587e+003,-9.195969e+000
1.303551e+003,-9.269272e+000
1.304515e+003,-1.031192e+001
1.305479e+003,-1.093497e+001
1.306444e+003,-9.937180e+000
1.307408e+003,-7.963577e+000
1.308372e+003,-7.143219e+000
1.309336e+003,-7.976074e+000
1.310301e+003,-8.453873e+000
1.311265e+003,-7.953720e+000
1.312229e+003,-7.628006e+000
1.313193e+003,-8.007629e+000
1.314157e+003,-8.638992e+000
1.315122e+003,-9.196609e+000
1.316086e+003,-9.531326e+000
1.317050e+003,-9.303833e+000
1.318014e+003,-8.181396e+000
1.318979e+003,-6.909760e+000
1.319943e+003,-7.045059e+000
1.320907e+003,-8.368256e+000
1.321871e+003,-9.160477e+000
1.322836e+003,-9.450058e+000
1.323800e+003,-9.351242e+000
1.324764e+003,-8.517136e+000
1.325728e+003,-7.499481e+000
1.326693e+003,-7.210251e+000
1.327657e+003,-7.729660e+000
1.328621e+003,-9.147827e+000
1.329585e+003,-1.249919e+001
1.330549e+003,-1.444882e+001
1.331514e+003,-1.227026e+001
1.332478e+003,-9.306778e+000
1.333442e+003,-9.107224e+000
1.334406e+003,-1.118138e+001
1.335371e+003,-1.245773e+001
1.336335e+003,-1.110400e+001
1.337299e+003,-8.519409e+000
1.338263e+003,-7.408005e+000
1.339228e+003,-7.959854e+000
1.340192e+003,-8.156921e+000
1.341156e+003,-7.398163e+000
1.342120e+003,-7.197861e+000
1.343084e+003,-8.276749e+000
1.344049e+003,-9.708679e+000
1.345013e+003,-1.115393e+001
1.345977e+003,-1.212469e+001
1.346941e+003,-1.130455e+001
1.347906e+003,-8.109055e+000
1.348870e+003,-4.944672e+000
1.349834e+003,-4.024887e+000
1.350798e+003,-4.732117e+000
1.351763e+003,-5.862808e+000
1.352727e+003,-7.251434e+000
1.353691e+003,-8.176376e+000
1.354655e+003,-8.365326e+000
1.355620e+003,-8.018646e+000
1.356584e+003,-7.199203e+000
1.357548e+003,-5.943436e+000
1.358512e+003,-4.754440e+000
1.359476e+003,-3.340530e+000
1.360441e+003,-3.171158e+000
1.361405e+003,-6.095627e+000
1.362369e+003,-8.613632e+000
1.363333e+003,-8.535248e+000
1.364298e+003,-7.188400e+000
1.365262e+003,-6.608536e+000
1.366226e+003,-7.240280e+000
1.367190e+003,-7.965973e+000
1.368155e+003,-7.778244e+000
1.369119e+003,-7.094635e+000
1.370083e+003,-7.261581e+000
1.371047e+003,-8.618683e+000
1.372011e+003,-9.105301e+000
1.372976e+003,-8.084290e+000
1.373940e+003,-7.292114e+000
1.374904e+003,-7.673355e+000
1.375868e+003,-8.345001e+000
1.376833e+003,-8.266663e+000
1.377797e+003,-7.393005e+000
1.378761e+003,-6.020676e+000
1.379725e+003,-3.979111e+000
1.380690e+003,-2.335190e+000
1.381654e+003,-2.817062e+000
1.382618e+003,-4.038895e+000
1.383582e+003,-3.738083e+000
1.384547e+003,-2.097122e+000
1.385511e+003,-1.588989e+000
1.386475e+003,-3.844833e+000
1.387439e+003,-6.617798e+000
1.388403e+003,-5.830246e+000
1.389368e+003,-1.510483e+000
1.390332e+003,4.353943e-001
1.391296e+003,-9.185028e-001
1.392260e+003,-3.047501e+000
1.393225e+003,-6.971024e+000
1.394189e+003,-9.798157e+000
1.395153e+003,-9.049088e+000
1.396117e+003,-6.452835e+000
1.397082e+003,-4.611679e+000
1.398046e+003,-4.292847e+000
1.399010e+003,-4.691345e+000
1.399974e+003,-5.164886e+000
1.400938e+003,-5.666626e+000
1.401903e+003,-5.689240e+000
1.402867e+003,-4.789413e+000
1.403831e+003,-4.128937e+000
1.404795e+003,-4.228806e+000
1.405760e+003,-4.108444e+000
1.406724e+003,-3.109421e+000
1.407688e+003,-2.273895e+000
1.408652e+003,-2.966675e+000
1.409617e+003,-4.830231e+000
1.410581e+003,-5.993515e+000
1.411545e+003,-5.641296e+000
1.412509e+003,-4.898865e+000
1.413474e+003,-5.097626e+000
1.414438e+003,-5.575577e+000
1.415402e+003,-4.670334e+000
1.416366e+003,-2.604782e+000
1.417330e+003,-1.523071e+000
1.418295e+003,-2.506500e+000
1.419259e+003,-3.792480e+000
1.420223e+003,-2.940720e+000
1.421187e+003,-5.376282e-001
1.422152e+003,-2.015839e-001
1.423116e+003,-2.830399e+000
1.424080e+003,-4.414383e+000
1.425044e+003,-2.905609e+000
1.426009e+003,-1.357895e+000
1.426973e+003,-1.348511e+000
1.427937e+003,-1.809052e+000
1.428901e+003,-9.932098e-001
1.429865e+003,9.268646e-001
1.430830e+003,1.956223e+000
1.431794e+003,7.597961e-001
1.432758e+003,-1.470978e+000
1.433722e+003,-2.239853e+000
1.434687e+003,-1.292130e+000
1.435651e+003,-3.068695e-001
1.436615e+003,3.187714e-001
1.437579e+003,8.889313e-001
1.438544e+003,1.387329e+000
1.439508e+003,1.966064e+000
1.440472e+003,3.444595e+000
1.441436e+003,4.956665e+000
1.442401e+003,4.282730e+000
1.443365e+003,1.156509e+000
1.444329e+003,-1.348923e+000
1.445293e+003,-8.034668e-001
1.446257e+003,1.329758e+000
1.447222e+003,2.400314e+000
1.448186e+003,2.551468e+000
1.449150e+003,2.532501e+000
1.450114e+003,2.378510e+000
1.451079e+003,2.017014e+000
1.452043e+003,1.153702e+000
1.453007e+003,3.786926e-001
1.453971e+003,6.456757e-001
1.454936e+003,1.749496e+000
1.455900e+003,2.413254e+000
1.456864e+003,2.399246e+000
1.457828e+003,2.021210e+000
1.458792e+003,7.468567e-001
1.459757e+003,-2.989197e-001
1.460721e+003,3.383789e-001
1.461685e+003,1.776367e+000
1.462649e+003,2.018173e+000
1.463614e+003,6.904755e-001
1.464578e+003,-5.062103e-001
1.465542e+003,5.030823e-002
1.466506e+003,1.455139e+000
1.467471e+003,8.891602e-001
1.468435e+003,-2.186813e+000
1.469399e+003,-3.937851e+000
1.470363e+003,-3.943619e+000
1.471328e+003,-3.069122e+000
1.472292e+003,-3.992615e-001
1.473256e+003,1.811020e+000
1.474220e+003,1.817078e+000
1.475184e+003,3.914795e-001
1.476149e+003,-1.139816e+000
1.477113e+003,-2.197708e+000
1.478077e+003,-2.482697e+000
1.479041e+003,-1.573135e+000
1.480006e+003,9.524536e-002
1.480970e+003,8.378143e-001
1.481934e+003,3.058014e-001
1.482898e+003,-1.951904e-001
1.483863e+003,-1.387787e+000
1.484827e+003,-1.594147e+000
1.485791e+003,7.946625e-001
1.486755e+003,3.514618e+000
1.487719e+003,4.268585e+000
1.488684e+003,3.481857e+000
1.489648e+003,2.843430e+000
1.490612e+003,2.958405e+000
1.491576e+003,3.443497e+000
1.492541e+003,3.910706e+000
1.493505e+003,4.533279e+000
1.494469e+003,5.815628e+000
1.495433e+003,7.557419e+000
1.496398e+003,9.391373e+000
1.497362e+003,1.167169e+001
1.498326e+003,1.333124e+001
1.499290e+003,1.319141e+001
1.500255e+003,1.252132e+001
1.501219e+003,1.291994e+001
1.502183e+003,1.430823e+001
1.503147e+003,1.611011e+001
1.504111e+003,1.821220e+001
1.505076e+003,2.067862e+001
1.506040e+003,2.379993e+001
1.507004e+003,2.708789e+001
1.507968e+003,2.995799e+001
1.508933e+003,3.264940e+001
1.509897e+003,3.551598e+001
1.510861e+003,3.881709e+001
1.511825e+003,4.313545e+001
1.512790e+003,4.884181e+001
1.513754e+003,5.551547e+001
1.514718e+003,6.293356e+001
1.515682e+003,7.098788e+001
1.516646e+003,7.745874e+001
1.517611e+003,8.203568e+001
1.518575e+003,8.566428e+001
1.519539e+003,8.814191e+001
1.520503e+003,9.046733e+001
1.521468e+003,9.384541e+001
1.522432e+003,9.691927e+001
1.523396e+003,9.789305e+001
1.524360e+003,9.650771e+001
1.525325e+003,9.326570e+001
1.526289e+003,8.854028e+001
1.527253e+003,8.372235e+001
1.528217e+003,8.156137e+001
1.529182e+003,8.220093e+001
1.530146e+003,7.986172e+001
1.531110e+003,7.260699e+001
1.532074e+003,6.575858e+001
1.533039e+003,6.008725e+001
1.534003e+003,5.398528e+001
1.534967e+003,4.616414e+001
1.535931e+003,3.833672e+001
1.536896e+003,3.254805e+001
1.537860e+003,2.870067e+001
1.538824e+003,2.532111e+001
1.539788e+003,2.157384e+001
1.540752e+003,1.771416e+001
1.541717e+003,1.407675e+001
1.542681e+003,1.082880e+001
1.543645e+003,8.623398e+000
1.544609e+003,8.032990e+000
1.545573e+003,7.378601e+000
1.546538e+003,5.487961e+000
1.547502e+003,4.767258e+000
1.548466e+003,7.591354e+000
1.549430e+003,1.104417e+001
1.550395e+003,1.181055e+001
1.551359e+003,1.040402e+001
1.552323e+003,9.464554e+000
1.553287e+003,9.891098e+000
1.554252e+003,1.006165e+001
1.555216e+003,8.412445e+000
1.556180e+003,5.899765e+000
1.557144e+003,4.835480e+000
1.558109e+003,5.326889e+000
1.559073e+003,5.546829e+000
1.560037e+003,5.331848e+000
1.561001e+003,4.769119e+000
1.561966e+003,3.685791e+000
1.562930e+003,2.738388e+000
1.563894e+003,2.518356e+000
1.564858e+003,2.785217e+000
1.565823e+003,2.811768e+000
1.566787e+003,2.501022e+000
1.567751e+003,3.064789e+000
1.568715e+003,5.603409e+000
1.569679e+003,8.151260e+000
1.570644e+003,7.880463e+000
1.571608e+003,5.623352e+000
1.572572e+003,3.922333e+000
1.573536e+003,2.910141e+000
1.574500e+003,2.625870e+000
1.575465e+003,3.170547e+000
1.576429e+003,4.231354e+000
1.577393e+003,6.148727e+000
1.578357e+003,8.082443e+000
1.579322e+003,8.197815e+000
1.580286e+003,6.546860e+000
1.581250e+003,4.971252e+000
1.582214e+003,3.882523e+000
1.583179e+003,3.503250e+000
1.584143e+003,4.251938e+000
1.585107e+003,5.495575e+000
1.586071e+003,6.831741e+000
1.587036e+003,8.120468e+000
1.588000e+003,8.352219e+000
1.588964e+003,7.158844e+000
1.589928e+003,6.122971e+000
1.590893e+003,6.388580e+000
1.591857e+003,7.340149e+000
1.592821e+003,8.213165e+000
1.593785e+003,8.994675e+000
1.594750e+003,9.488327e+000
1.595714e+003,9.600098e+000
1.596678e+003,9.513748e+000
1.597642e+003,9.002350e+000
1.598606e+003,8.796387e+000
1.599571e+003,1.005634e+001
1.600535e+003,1.166908e+001
1.601499e+003,1.183650e+001
1.602463e+003,1.076961e+001
1.603427e+003,1.039177e+001
1.604392e+003,1.156340e+001
1.605356e+003,1.302574e+001
1.606320e+003,1.351642e+001
1.607284e+003,1.332042e+001
1.608249e+003,1.318324e+001
1.609213e+003,1.310379e+001
1.610177e+003,1.324451e+001
1.611141e+003,1.390486e+001
1.612106e+003,1.411760e+001
1.613070e+003,1.324834e+001
1.614034e+003,1.185736e+001
1.614998e+003,9.715698e+000
1.615963e+003,7.595047e+000
1.616927e+003,6.933197e+000
1.617891e+003,7.758743e+000
1.618855e+003,8.592865e+000
1.619820e+003,8.454117e+000
1.620784e+003,8.144226e+000
1.621748e+003,9.261887e+000
1.622712e+003,1.159831e+001
1.623677e+003,1.287526e+001
1.624641e+003,1.293069e+001
1.625605e+003,1.285881e+001
1.626569e+003,1.259262e+001
1.627533e+003,1.218826e+001
1.628498e+003,1.155566e+001
1.629462e+003,1.113672e+001
1.630426e+003,1.177563e+001
1.631390e+003,1.275407e+001
1.632354e+003,1.213100e+001
1.633319e+003,9.676727e+000
1.634283e+003,7.915146e+000
1.635247e+003,8.816132e+000
1.636211e+003,1.107881e+001
1.637176e+003,1.259976e+001
1.638140e+003,1.343768e+001
1.639104e+003,1.378436e+001
1.640068e+003,1.344800e+001
1.641033e+003,1.319856e+001
1.641997e+003,1.351984e+001
1.642961e+003,1.364087e+001
1.643925e+003,1.285179e+001
1.644890e+003,1.193959e+001
1.645854e+003,1.142995e+001
1.646818e+003,1.148042e+001
1.647782e+003,1.263571e+001
1.648747e+003,1.490877e+001
1.649711e+003,1.656837e+001
1.650675e+003,1.611356e+001
1.651639e+003,1.452983e+001
1.652604e+003,1.380899e+001
1.653568e+003,1.384100e+001
1.654532e+003,1.294499e+001
1.655496e+003,1.052937e+001
1.656460e+003,9.049133e+000
1.657425e+003,9.877869e+000
1.658389e+003,1.098445e+001
1.659353e+003,1.152945e+001
1.660317e+003,1.156523e+001
1.661281e+003,1.067314e+001
1.662246e+003,9.341019e+000
1.663210e+003,9.074341e+000
1.664174e+003,1.035968e+001
1.665138e+003,1.190950e+001
1.666103e+003,1.287825e+001
1.667067e+003,1.289334e+001
1.668031e+003,1.070700e+001
1.668995e+003,6.583176e+000
1.669960e+003,3.818817e+000
1.670924e+003,2.632797e+000
1.671888e+003,3.146835e+000
1.672852e+003,6.769974e+000
1.673817e+003,1.002924e+001
1.674781e+003,1.040536e+001
1.675745e+003,9.527588e+000
1.676709e+003,9.057404e+000
1.677674e+003,8.939377e+000
1.678638e+003,8.220154e+000
1.679602e+003,6.631348e+000
1.680566e+003,5.905609e+000
1.681531e+003,8.124237e+000
1.682495e+003,1.113200e+001
1.683459e+003,1.085231e+001
1.684423e+003,7.754166e+000
1.685387e+003,4.991455e+000
1.686352e+003,2.766479e+000
1.687316e+003,1.768875e+000
1.688280e+003,2.499725e+000
1.689244e+003,3.965546e+000
1.690208e+003,6.346252e+000
1.691173e+003,8.389297e+000
1.692137e+003,8.158066e+000
1.693101e+003,6.477859e+000
1.694065e+003,6.107224e+000
1.695030e+003,7.681046e+000
1.695994e+003,8.916595e+000
1.696958e+003,8.603622e+000
1.697922e+003,7.101730e+000
1.698887e+003,3.859299e+000
1.699851e+003,-3.176880e-002
1.700815e+003,-8.193512e-001
1.701779e+003,1.689514e+000
1.702744e+003,3.531845e+000
1.703708e+003,3.406540e+000
1.704672e+003,3.123413e+000
1.705636e+003,4.196381e+000
1.706601e+003,5.323227e+000
1.707565e+003,4.229355e+000
1.708529e+003,1.799667e+000
1.709493e+003,8.398743e-001
1.710458e+003,1.854309e+000
1.711422e+003,2.409332e+000
1.712386e+003,9.499664e-001
1.713350e+003,-4.934540e-001
1.714314e+003,-3.131256e-001
1.715279e+003,7.723083e-001
1.716243e+003,1.806320e+000
1.717207e+003,2.683029e+000
1.718171e+003,3.619705e+000
1.719135e+003,4.697754e+000
1.720100e+003,4.599579e+000
1.721064e+003,2.088791e+000
1.722028e+003,-1.165253e+000
1.722992e+003,-2.795242e+000
1.723957e+003,-2.874741e+000
1.724921e+003,-2.345139e+000
1.725885e+003,-1.243484e+000
1.726849e+003,-3.808289e-001
1.727814e+003,-4.520416e-001
1.728778e+003,3.281097e-001
1.729742e+003,4.302628e+000
1.730706e+003,7.990067e+000
1.731671e+003,6.967773e+000
1.732635e+003,3.175934e+000
1.733599e+003,1.383636e+000
1.734563e+003,2.323105e+000
1.735528e+003,3.332520e+000
1.736492e+003,2.958847e+000
1.737456e+003,2.212738e+000
1.738420e+003,2.293182e+000
1.739385e+003,2.904251e+000
1.740349e+003,3.287460e+000
1.741313e+003,3.637604e+000
1.742277e+003,3.110657e+000
1.743241e+003,7.272797e-001
1.744206e+003,-7.873688e-001
1.745170e+003,-5.010834e-001
1.746134e+003,-5.340576e-002
1.747098e+003,-4.859467e-001
1.748063e+003,-1.160049e+000
1.749027e+003,-1.295700e+000
1.749991e+003,-8.979492e-001
1.750955e+003,-2.956696e-001
1.751919e+003,3.317719e-001
1.752884e+003,9.288788e-001
1.753848e+003,1.455063e+000
1.754812e+003,1.751587e+000
1.755776e+003,1.524246e+000
1.756741e+003,8.729858e-001
1.757705e+003,3.366394e-001
1.758669e+003,-2.052460e-001
1.759633e+003,-4.909973e-001
1.760598e+003,-2.144775e-001
1.761562e+003,-2.259674e-001
1.762526e+003,-1.203674e+000
1.763490e+003,-1.943741e+000
1.764455e+003,-1.072601e+000
1.765419e+003,3.608551e-001
1.766383e+003,4.366608e-001
1.767347e+003,-8.693085e-001
1.768312e+003,-2.047272e+000
1.769276e+003,-2.420807e+000
1.770240e+003,-2.194199e+000
1.771204e+003,-1.095154e+000
1.772168e+003,2.593384e-001
1.773133e+003,-2.234192e-001
1.774097e+003,-2.238205e+000
1.775061e+003,-2.284576e+000
1.776025e+003,2.647095e-001
1.776990e+003,1.838440e+000
1.777954e+003,1.134964e+000
1.778918e+003,-2.380219e-001
1.779882e+003,-1.845749e+000
1.780846e+003,-3.067322e+000
1.781811e+003,-2.889389e+000
1.782775e+003,-1.564545e+000
1.783739e+003,3.237915e-001
1.784703e+003,2.885941e+000
1.785668e+003,4.145142e+000
1.786632e+003,2.132141e+000
1.787596e+003,-1.124115e-001
1.788560e+003,1.181183e-001
1.789525e+003,1.359726e+000
1.790489e+003,1.413742e+000
1.791453e+003,4.736328e-001
1.792417e+003,-2.722626e-001
1.793382e+003,-5.498352e-001
1.794346e+003,-6.968689e-001
1.795310e+003,-9.125366e-001
1.796274e+003,-9.535217e-001
1.797239e+003,-3.665314e-001
1.798203e+003,5.420990e-001
1.799167e+003,3.264771e-001
1.800131e+003,-1.513275e+000
1.801095e+003,-2.430710e+000
1.802060e+003,-1.710617e+000
1.803024e+003,-9.443970e-001
1.803988e+003,-3.819427e-001
1.804952e+003,1.876678e-001
1.805917e+003,1.360123e+000
1.806881e+003,2.162720e+000
1.807845e+003,1.092865e+000
1.808809e+003,-8.623199e-001
1.809773e+003,-1.481110e+000
1.810738e+003,-4.715881e-001
1.811702e+003,4.558716e-001
1.812666e+003,2.290039e-001
1.813630e+003,-3.325653e-001
1.814595e+003,-1.071625e-001
1.815559e+003,6.568146e-001
1.816523e+003,1.080887e+000
1.817487e+003,1.177307e+000
1.818452e+003,1.026291e+000
1.819416e+003,6.661224e-001
1.820380e+003,1.636353e-001
1.821344e+003,-1.270035e+000
1.822309e+003,-1.870895e+000
1.823273e+003,8.888550e-001
1.824237e+003,3.912048e+000
1.825201e+003,3.234726e+000
1.826166e+003,2.248077e-001
1.827130e+003,-1.075119e+000
1.828094e+003,-1.515198e-002
1.829058e+003,1.413025e+000
1.830022e+003,2.682755e+000
1.830987e+003,3.329453e+000
1.831951e+003,2.318207e+000
1.832915e+003,9.242249e-001
1.833879e+003,1.732529e+000
1.834844e+003,3.661942e+000
1.835808e+003,2.410522e+000
1.836772e+003,-2.126526e+000
1.837736e+003,-4.359955e+000
1.838700e+003,-1.830475e+000
1.839665e+003,1.778458e+000
1.840629e+003,3.328751e+000
1.841593e+003,3.280167e+000
1.842557e+003,2.356659e+000
1.843522e+003,5.747070e-001
1.844486e+003,-4.885712e-001
1.845450e+003,-4.862823e-001
1.846414e+003,-1.620178e-001
1.847379e+003,7.987061e-001
1.848343e+003,1.337219e+000
1.849307e+003,8.598633e-001
1.850271e+003,2.609253e-001
1.851236e+003,9.474182e-002
1.852200e+003,3.624573e-001
1.853164e+003,1.038162e+000
1.854128e+003,1.870941e+000
1.855093e+003,2.583557e+000
1.856057e+003,3.090759e+000
1.857021e+003,3.041550e+000
1.857985e+003,1.991516e+000
1.858949e+003,6.487579e-001
1.859914e+003,3.171539e-001
1.860878e+003,8.524780e-001
1.861842e+003,1.483124e+000
1.862806e+003,2.191971e+000
1.863771e+003,1.746262e+000
1.864735e+003,-5.266724e-001
1.865699e+003,-1.930939e+000
1.866663e+003,-8.058167e-001
1.867627e+003,7.554169e-001
1.868592e+003,7.205353e-001
1.869556e+003,-1.507416e-001
1.870520e+003,-1.747131e-001
1.871484e+003,4.772339e-001
1.872449e+003,6.953735e-001
1.873413e+003,5.083618e-001
1.874377e+003,4.145966e-001
1.875341e+003,1.511536e-001
1.876306e+003,8.145142e-002
1.877270e+003,9.017029e-001
1.878234e+003,1.495117e+000
1.879198e+003,-3.201294e-002
1.880163e+003,-2.192520e+000
1.881127e+003,-1.606705e+000
1.882091e+003,1.350891e+000
1.883055e+003,2.844833e+000
1.884020e+003,1.443069e+000
1.884984e+003,4.768372e-002
1.885948e+003,1.346191e+000
1.886912e+003,3.803665e+000
1.887876e+003,4.312256e+000
1.888841e+003,3.052780e+000
1.889805e+003,2.004501e+000
1.890769e+003,1.069687e+000
1.891733e+003,9.901733e-001
1.892698e+003,2.348511e+000
1.893662e+003,3.126709e+000
1.894626e+003,2.433868e+000
1.895590e+003,1.305649e+000
1.896554e+003,-1.885986e-001
1.897519e+003,-1.179428e+000
1.898483e+003,-9.301758e-002
1.899447e+003,2.273254e+000
1.900411e+003,3.147842e+000
1.901376e+003,1.995651e+000
1.902340e+003,1.589722e+000
1.903304e+003,3.707153e+000
1.904268e+003,5.622894e+000
1.905233e+003,5.454285e+000
1.906197e+003,4.570114e+000
1.907161e+003,4.315079e+000
1.908125e+003,4.460022e+000
1.909090e+003,4.600067e+000
1.910054e+003,4.425201e+000
1.911018e+003,3.001862e+000
1.911982e+003,3.678284e-001
1.912947e+003,-1.231171e+000
1.913911e+003,-1.788177e-001
1.914875e+003,2.527969e+000
1.915839e+003,5.558777e+000
1.916803e+003,8.385406e+000
1.917768e+003,8.295883e+000
1.918732e+003,4.689468e+000
1.919696e+003,2.570908e+000
1.920660e+003,2.469757e+000
1.921625e+003,2.726990e+000
1.922589e+003,2.977982e+000
1.923553e+003,3.418976e+000
1.924517e+003,4.437073e+000
1.925481e+003,5.459534e+000
1.926446e+003,6.076431e+000
1.927410e+003,6.309540e+000
1.928374e+003,6.065552e+000
1.929338e+003,5.348557e+000
1.930303e+003,4.768631e+000
1.931267e+003,4.566696e+000
1.932231e+003,4.673065e+000
1.933195e+003,5.342880e+000
1.934160e+003,5.774307e+000
1.935124e+003,4.704926e+000
1.936088e+003,3.560135e+000
1.937052e+003,5.132568e+000
1.938017e+003,7.829727e+000
1.938981e+003,6.893295e+000
1.939945e+003,2.679840e+000
1.940909e+003,1.187088e+000
1.941874e+003,4.799561e+000
1.942838e+003,8.406509e+000
1.943802e+003,7.254730e+000
1.944766e+003,3.921570e+000
1.945730e+003,3.606964e+000
1.946695e+003,5.717606e+000
1.947659e+003,5.388092e+000
1.948623e+003,2.177032e+000
1.949587e+003,1.726242e+000
1.950552e+003,5.688721e+000
1.951516e+003,8.144073e+000
1.952480e+003,6.481613e+000
1.953444e+003,4.255554e+000
1.954408e+003,3.786087e+000
1.955373e+003,4.141739e+000
1.956337e+003,4.067871e+000
1.957301e+003,3.899414e+000
1.958265e+003,4.716614e+000
1.959230e+003,6.758987e+000
1.960194e+003,8.000824e+000
1.961158e+003,7.813736e+000
1.962122e+003,7.034912e+000
1.963087e+003,5.320724e+000
1.964051e+003,3.793213e+000
1.965015e+003,3.018692e+000
1.965979e+003,2.973297e+000
1.966944e+003,3.648880e+000
1.967908e+003,4.804352e+000
1.968872e+003,6.401367e+000
1.969836e+003,8.193893e+000
1.970801e+003,9.641632e+000
1.971765e+003,1.047687e+001
1.972729e+003,1.016124e+001
1.973693e+003,7.862411e+000
1.974657e+003,5.271683e+000
1.975622e+003,4.964645e+000
1.976586e+003,6.279724e+000
1.977550e+003,7.968124e+000
1.978514e+003,9.771164e+000
1.979479e+003,1.027737e+001
1.980443e+003,9.316559e+000
1.981407e+003,7.886169e+000
1.982371e+003,6.326172e+000
1.983335e+003,5.650131e+000
1.984300e+003,6.708221e+000
1.985264e+003,8.312256e+000
1.986228e+003,8.676529e+000
1.987192e+003,8.061035e+000
1.988157e+003,7.845871e+000
1.989121e+003,8.217545e+000
1.990085e+003,8.200195e+000
1.991049e+003,7.536179e+000
1.992014e+003,7.110992e+000
1.992978e+003,6.996567e+000
1.993942e+003,7.080170e+000
1.994906e+003,7.572067e+000
1.995871e+003,7.999710e+000
1.996835e+003,7.797119e+000
1.997799e+003,7.500153e+000
1.998763e+003,7.986572e+000
1.999728e+003,9.053833e+000
