5.003444e+002,4.173453e+001
5.013087e+002,4.013693e+001
5.022729e+002,3.742105e+001
5.032371e+002,3.431708e+001
5.042014e+002,3.230374e+001
5.051656e+002,3.131516e+001
5.061298e+002,3.111890e+001
5.070941e+002,3.157727e+001
5.080583e+002,3.286536e+001
5.090225e+002,3.307452e+001
5.099868e+002,3.137326e+001
5.109510e+002,2.980185e+001
5.119152e+002,2.958881e+001
5.128795e+002,3.089322e+001
5.138437e+002,3.197180e+001
5.148079e+002,3.291895e+001
5.157722e+002,3.301788e+001
5.167364e+002,3.107520e+001
5.177006e+002,2.742419e+001
5.186649e+002,2.401306e+001
5.196291e+002,2.374335e+001
5.205933e+002,2.521002e+001
5.215576e+002,2.684412e+001
5.225218e+002,2.819812e+001
5.234860e+002,2.911887e+001
5.244503e+002,2.955212e+001
5.254145e+002,2.959476e+001
5.263787e+002,2.945438e+001
5.273430e+002,2.883350e+001
5.283072e+002,2.822769e+001
5.292714e+002,2.843457e+001
5.302357e+002,3.010999e+001
5.311999e+002,3.041281e+001
5.321641e+002,2.881082e+001
5.331284e+002,2.662238e+001
5.340926e+002,2.457031e+001
5.350568e+002,2.278601e+001
5.360211e+002,2.135593e+001
5.369853e+002,2.089838e+001
5.379495e+002,2.085602e+001
5.389138e+002,2.064810e+001
5.398780e+002,2.005255e+001
5.408422e+002,1.935229e+001
5.418065e+002,1.962921e+001
5.427707e+002,2.069724e+001
5.437349e+002,2.111456e+001
5.446992e+002,2.022382e+001
5.456634e+002,1.854352e+001
5.466276e+002,1.798254e+001
5.475919e+002,1.973529e+001
5.485561e+002,2.146576e+001
5.495203e+002,2.405023e+001
5.504846e+002,2.609476e+001
5.514488e+002,2.527393e+001
5.524130e+002,1.933383e+001
5.533773e+002,1.399274e+001
5.543415e+002,1.223898e+001
5.553057e+002,1.240366e+001
5.562700e+002,1.293555e+001
5.572342e+002,1.284900e+001
5.581984e+002,1.237408e+001
5.591627e+002,1.217502e+001
5.601269e+002,1.226865e+001
5.610911e+002,1.254526e+001
5.620554e+002,1.291360e+001
5.630196e+002,1.325851e+001
5.639838e+002,1.318036e+001
5.649481e+002,1.215027e+001
5.659123e+002,1.148566e+001
5.668765e+002,1.216101e+001
5.678408e+002,1.365063e+001
5.688050e+002,1.409113e+001
5.697692e+002,1.188861e+001
5.707335e+002,9.485077e+000
5.716977e+002,7.115692e+000
5.726619e+002,5.315979e+000
5.736262e+002,4.889404e+000
5.745904e+002,6.614716e+000
5.755546e+002,9.148590e+000
5.765189e+002,1.044565e+001
5.774831e+002,1.063058e+001
5.784473e+002,1.005823e+001
5.794116e+002,9.047913e+000
5.803758e+002,7.688477e+000
5.813400e+002,5.359497e+000
5.823043e+002,9.724426e-001
5.832685e+002,-2.158630e+000
5.842327e+002,-2.271027e+000
5.851970e+002,3.267517e-001
5.861612e+002,2.869110e+000
5.871254e+002,5.452271e+000
5.880897e+002,7.144592e+000
5.890539e+002,7.272430e+000
5.900181e+002,6.373413e+000
5.909824e+002,5.307465e+000
5.919466e+002,4.537964e+000
5.929108e+002,4.139771e+000
5.938751e+002,4.063263e+000
5.948393e+002,4.264130e+000
5.958035e+002,4.871399e+000
5.967678e+002,5.985870e+000
5.977320e+002,7.464508e+000
5.986962e+002,7.310272e+000
5.996605e+002,5.340790e+000
6.006247e+002,3.384186e+000
6.015889e+002,2.497559e+000
6.025532e+002,2.587769e+000
6.035174e+002,1.898224e+000
6.044816e+002,-1.804474e+000
6.054459e+002,-3.705627e+000
6.064101e+002,-2.111572e+000
6.073743e+002,1.592896e+000
6.083386e+002,5.065338e+000
6.093028e+002,7.510529e+000
6.102670e+002,8.597565e+000
6.112313e+002,7.743958e+000
6.121955e+002,5.875946e+000
6.131597e+002,4.114899e+000
6.141240e+002,3.229370e+000
6.150882e+002,3.016724e+000
6.160524e+002,2.681610e+000
6.170167e+002,2.335968e+000
6.179809e+002,2.441650e+000
6.189451e+002,3.239532e+000
6.199094e+002,4.526825e+000
6.208736e+002,5.403687e+000
6.218378e+002,5.963501e+000
6.228021e+002,6.321411e+000
6.237663e+002,6.613403e+000
6.247305e+002,6.734985e+000
6.256948e+002,6.222748e+000
6.266590e+002,4.135559e+000
6.276232e+002,2.783295e+000
6.285875e+002,4.684906e+000
6.295517e+002,7.546417e+000
6.305159e+002,8.737488e+000
6.314802e+002,6.834229e+000
6.324444e+002,3.110413e+000
6.334086e+002,9.901733e-001
6.343729e+002,2.129822e-001
6.353371e+002,3.255310e-001
6.363013e+002,1.364685e+000
6.372656e+002,2.778534e+000
6.382298e+002,2.704498e+000
6.391940e+002,-1.001373e+000
6.401583e+002,-3.562469e+000
6.411225e+002,-3.920044e+000
6.420867e+002,-3.257904e+000
6.430510e+002,-3.226563e+000
6.440152e+002,-4.700195e+000
6.449794e+002,-5.849945e+000
6.459437e+002,-5.671875e+000
6.469079e+002,-4.905182e+000
6.478721e+002,-3.883087e+000
6.488364e+002,-2.772491e+000
6.498006e+002,-1.673035e+000
6.507648e+002,-8.675232e-001
6.517291e+002,-3.390503e-001
6.526933e+002,1.338196e-001
6.536575e+002,5.961304e-001
6.546218e+002,8.271179e-001
6.555860e+002,3.735352e-001
6.565502e+002,-1.352081e+000
6.575145e+002,-2.570374e+000
6.584787e+002,-2.723724e+000
6.594429e+002,-2.850403e+000
6.604072e+002,-4.213562e+000
6.613714e+002,-7.230225e+000
6.623356e+002,-8.865753e+000
6.632999e+002,-5.903687e+000
6.642641e+002,-2.961121e+000
6.652283e+002,-3.099274e+000
6.661926e+002,-5.830505e+000
6.671568e+002,-7.787415e+000
6.681210e+002,-4.217133e+000
6.690853e+002,2.083466e+000
6.700495e+002,3.505157e+000
6.710137e+002,1.736755e-001
6.719780e+002,-4.091736e+000
6.729422e+002,-5.238159e+000
6.739064e+002,-2.630859e+000
6.748707e+002,-8.642883e-001
6.758349e+002,1.199341e-002
6.767991e+002,3.257446e-001
6.777634e+002,1.777954e-001
6.787276e+002,-2.523499e-001
6.796918e+002,-5.449829e-001
6.806561e+002,-5.967407e-001
6.816203e+002,-7.882690e-001
6.825845e+002,-1.396393e+000
6.835488e+002,-2.203369e+000
6.845130e+002,-2.959869e+000
6.854772e+002,-3.515167e+000
6.864415e+002,-3.405029e+000
6.874057e+002,-1.390137e+000
6.883699e+002,1.620911e+000
6.893342e+002,3.644440e+000
6.902984e+002,3.556580e+000
6.912626e+002,1.754700e+000
6.922269e+002,6.292725e-001
6.931911e+002,1.072205e+000
6.941553e+002,1.499756e+000
6.951196e+002,1.493347e+000
6.960838e+002,1.199615e+000
6.970480e+002,9.702148e-001
6.980123e+002,9.342957e-001
6.989765e+002,1.089966e+000
6.999407e+002,1.795288e+000
7.009050e+002,2.346710e+000
7.018692e+002,1.879028e+000
7.028334e+002,2.418518e-001
7.037977e+002,-1.549011e+000
7.047619e+002,-1.478973e+000
7.057261e+002,-2.613220e-001
7.066904e+002,2.966614e-001
7.076546e+002,-1.014099e-001
7.086188e+002,-8.202209e-001
7.095831e+002,-8.528442e-001
7.105473e+002,-1.126099e-002
7.115115e+002,6.829224e-001
7.124758e+002,1.499329e+000
7.134400e+002,1.849426e+000
7.144042e+002,1.195099e+000
7.153685e+002,-3.666382e-001
7.163327e+002,-1.584381e+000
7.172969e+002,-1.672913e+000
7.182612e+002,-1.414551e+000
7.192254e+002,-7.695923e-001
7.201896e+002,-1.366577e-001
7.211539e+002,-3.132629e-001
7.221181e+002,-2.121765e+000
7.230823e+002,-4.435638e+000
7.240466e+002,-3.958191e+000
7.250108e+002,-1.190613e+000
7.259750e+002,1.584045e+000
7.269393e+002,2.939392e+000
7.279035e+002,2.806915e+000
7.288677e+002,2.174591e+000
7.298320e+002,7.650757e-001
7.307962e+002,-7.598877e-002
7.317604e+002,-1.401367e-001
7.327247e+002,4.084778e-001
7.336889e+002,1.336914e+000
7.346531e+002,2.524750e+000
7.356174e+002,3.162750e+000
7.365816e+002,2.979675e+000
7.375458e+002,2.666809e+000
7.385101e+002,2.621857e+000
7.394743e+002,2.996857e+000
7.404385e+002,3.835663e+000
7.414028e+002,5.553284e+000
7.423670e+002,7.194214e+000
7.433312e+002,6.142059e+000
7.442955e+002,2.232574e+000
7.452597e+002,-1.935822e+000
7.462239e+002,-3.551788e+000
7.471882e+002,-2.116455e+000
7.481524e+002,-4.274902e-001
7.491166e+002,1.849365e+000
7.500809e+002,3.464996e+000
7.510451e+002,3.589874e+000
7.520093e+002,2.608765e+000
7.529736e+002,1.975464e+000
7.539378e+002,2.881287e+000
7.549020e+002,3.951813e+000
7.558663e+002,4.216827e+000
7.568306e+002,4.042969e+000
7.577948e+002,3.992554e+000
7.587590e+002,4.317322e+000
7.597233e+002,4.556671e+000
7.606875e+002,3.371552e+000
7.616517e+002,1.105743e+000
7.626160e+002,-4.069519e-001
7.635802e+002,-5.195618e-001
7.645444e+002,2.648926e-001
7.655087e+002,8.611450e-001
7.664729e+002,1.021027e+000
7.674371e+002,1.424377e+000
7.684014e+002,2.561584e+000
7.693656e+002,3.483337e+000
7.703298e+002,3.427063e+000
7.712941e+002,2.423035e+000
7.722583e+002,1.456421e+000
7.732225e+002,9.441528e-001
7.741868e+002,1.095154e+000
7.751510e+002,2.589600e+000
7.761152e+002,4.895599e+000
7.770795e+002,6.752869e+000
7.780437e+002,7.014465e+000
7.790079e+002,5.887390e+000
7.799722e+002,5.732605e+000
7.809364e+002,6.659058e+000
7.819006e+002,7.218842e+000
7.828649e+002,6.484924e+000
7.838291e+002,5.127686e+000
7.847933e+002,5.351654e+000
7.857576e+002,9.065735e+000
7.867218e+002,1.050061e+001
7.876860e+002,7.365814e+000
7.886503e+002,3.179260e+000
7.896145e+002,7.785950e-001
7.905787e+002,9.160767e-001
7.915430e+002,2.029083e+000
7.925072e+002,2.658203e+000
7.934714e+002,2.946686e+000
7.944357e+002,3.275299e+000
7.953999e+002,3.762756e+000
7.963641e+002,4.258911e+000
7.973284e+002,4.504883e+000
7.982926e+002,4.454346e+000
7.992568e+002,5.238251e+000
8.002211e+002,7.411530e+000
8.011853e+002,8.526672e+000
8.021495e+002,7.326660e+000
8.031138e+002,4.773560e+000
8.040780e+002,3.600708e+000
8.050422e+002,4.953674e+000
8.060065e+002,6.137115e+000
8.069707e+002,5.725403e+000
8.079349e+002,4.847992e+000
8.088992e+002,5.163086e+000
8.098634e+002,7.115021e+000
8.108276e+002,8.776459e+000
8.117919e+002,6.097900e+000
8.127561e+002,1.152435e+000
8.137203e+002,-9.997864e-001
8.146846e+002,3.740540e-001
8.156488e+002,3.189301e+000
8.166130e+002,4.819977e+000
8.175773e+002,5.012482e+000
8.185415e+002,5.229828e+000
8.195057e+002,4.991943e+000
8.204700e+002,5.008942e+000
8.214342e+002,6.001221e+000
8.223984e+002,7.436188e+000
8.233627e+002,7.737549e+000
8.243269e+002,5.626709e+000
8.252911e+002,3.999115e+000
8.262554e+002,4.760437e+000
8.272196e+002,6.539398e+000
8.281838e+002,8.154755e+000
8.291481e+002,9.031250e+000
8.301123e+002,9.105896e+000
8.310765e+002,7.949341e+000
8.320408e+002,5.757111e+000
8.330050e+002,5.315186e+000
8.339692e+002,7.343384e+000
8.349335e+002,9.504425e+000
8.358977e+002,8.939056e+000
8.368619e+002,5.071381e+000
8.378262e+002,3.568176e+000
8.387904e+002,7.035583e+000
8.397546e+002,9.762115e+000
8.407189e+002,9.996826e+000
8.416831e+002,8.659668e+000
8.426473e+002,7.400452e+000
8.436116e+002,6.855652e+000
8.445758e+002,7.080475e+000
8.455400e+002,8.535095e+000
8.465043e+002,1.014191e+001
8.474685e+002,1.089404e+001
8.484327e+002,1.065903e+001
8.493970e+002,9.949066e+000
8.503612e+002,9.388275e+000
8.513254e+002,8.923981e+000
8.522897e+002,8.288696e+000
8.532539e+002,6.537598e+000
8.542181e+002,5.569244e+000
8.551824e+002,7.361053e+000
8.561466e+002,1.166098e+001
8.571108e+002,1.486923e+001
8.580751e+002,1.517212e+001
8.590393e+002,1.467935e+001
8.600035e+002,1.387616e+001
8.609678e+002,1.311203e+001
8.619320e+002,1.248694e+001
8.628962e+002,1.207153e+001
8.638605e+002,1.225858e+001
8.648247e+002,1.451251e+001
8.657889e+002,1.751535e+001
8.667532e+002,1.830362e+001
8.677174e+002,1.649100e+001
8.686816e+002,1.356195e+001
8.696459e+002,1.095886e+001
8.706101e+002,8.540497e+000
8.715743e+002,8.527008e+000
8.725386e+002,1.327274e+001
8.735028e+002,1.722760e+001
8.744670e+002,1.851367e+001
8.754313e+002,1.794385e+001
8.763955e+002,1.723322e+001
8.773597e+002,1.689667e+001
8.783240e+002,1.693912e+001
8.792882e+002,1.762265e+001
8.802524e+002,1.831277e+001
8.812167e+002,1.808658e+001
8.821809e+002,1.707407e+001
8.831451e+002,1.666666e+001
8.841094e+002,1.887366e+001
8.850736e+002,2.356726e+001
8.860378e+002,2.510965e+001
8.870021e+002,2.260666e+001
8.879663e+002,2.021640e+001
8.889305e+002,2.041971e+001
8.898948e+002,2.262195e+001
8.908590e+002,2.401471e+001
8.918232e+002,2.397125e+001
8.927875e+002,2.414453e+001
8.937517e+002,2.487625e+001
8.947159e+002,2.595203e+001
8.956802e+002,2.705203e+001
8.966444e+002,2.803558e+001
8.976086e+002,2.918912e+001
8.985729e+002,3.154718e+001
8.995371e+002,3.384219e+001
9.005013e+002,3.316913e+001
9.014656e+002,3.020706e+001
9.024298e+002,2.810843e+001
9.033940e+002,2.926425e+001
9.043583e+002,3.303503e+001
9.053225e+002,3.539059e+001
9.062867e+002,3.449982e+001
9.072510e+002,3.422278e+001
9.082152e+002,3.601495e+001
9.091794e+002,3.793845e+001
9.101437e+002,3.760263e+001
9.111079e+002,3.458316e+001
9.120721e+002,3.196048e+001
9.130364e+002,3.227838e+001
9.140006e+002,3.255710e+001
9.149648e+002,3.023456e+001
9.159291e+002,2.679865e+001
9.168933e+002,2.562146e+001
9.178575e+002,2.892245e+001
9.188218e+002,3.490851e+001
9.197860e+002,3.771561e+001
9.207502e+002,3.730237e+001
9.217145e+002,3.559998e+001
9.226787e+002,3.216693e+001
9.236429e+002,2.872113e+001
9.246072e+002,2.776898e+001
9.255714e+002,2.979480e+001
9.265356e+002,3.100534e+001
9.274999e+002,3.044141e+001
9.284641e+002,2.919095e+001
9.294283e+002,2.700366e+001
9.303926e+002,2.466202e+001
9.313568e+002,2.337164e+001
9.323210e+002,2.377707e+001
9.332853e+002,2.492471e+001
9.342495e+002,2.594199e+001
9.352137e+002,2.647781e+001
9.361780e+002,2.556625e+001
9.371422e+002,2.317786e+001
9.381064e+002,2.075177e+001
9.390707e+002,2.012561e+001
9.400349e+002,2.144745e+001
9.409991e+002,2.229782e+001
9.419634e+002,2.252032e+001
9.429276e+002,2.246234e+001
9.438918e+002,2.178629e+001
9.448561e+002,2.109131e+001
9.458203e+002,2.150180e+001
9.467845e+002,2.356931e+001
9.477488e+002,2.582715e+001
9.487130e+002,2.753546e+001
9.496772e+002,2.864032e+001
9.506415e+002,2.893436e+001
9.516057e+002,2.848615e+001
9.525699e+002,2.734839e+001
9.535342e+002,2.549551e+001
9.544984e+002,2.316397e+001
9.554626e+002,2.356799e+001
9.564269e+002,2.780835e+001
9.573911e+002,3.046600e+001
9.583553e+002,2.850888e+001
9.593196e+002,2.472009e+001
9.602838e+002,2.402264e+001
9.612480e+002,2.748380e+001
9.622123e+002,3.003256e+001
9.631765e+002,2.994418e+001
9.641407e+002,2.905658e+001
9.651050e+002,2.759250e+001
9.660692e+002,2.594958e+001
9.670334e+002,2.478833e+001
9.679977e+002,2.463016e+001
9.689619e+002,2.509454e+001
9.699261e+002,2.488849e+001
9.708904e+002,2.419492e+001
9.718546e+002,2.394913e+001
9.728188e+002,2.424423e+001
9.737831e+002,2.517581e+001
9.747473e+002,2.709677e+001
9.757115e+002,3.029575e+001
9.766758e+002,3.326398e+001
9.776400e+002,3.708911e+001
9.786042e+002,3.964658e+001
9.795685e+002,3.998111e+001
9.805327e+002,3.866428e+001
9.814969e+002,3.620712e+001
9.824612e+002,3.287817e+001
9.834254e+002,3.009940e+001
9.843896e+002,2.939850e+001
9.853539e+002,2.966092e+001
9.863181e+002,3.037949e+001
9.872823e+002,3.102420e+001
9.882466e+002,3.018002e+001
9.892108e+002,2.671530e+001
9.901750e+002,2.153394e+001
9.911393e+002,1.965155e+001
9.921035e+002,2.366095e+001
9.930677e+002,2.588947e+001
9.940320e+002,2.499115e+001
9.949962e+002,2.338867e+001
9.959604e+002,2.323065e+001
9.969247e+002,2.469296e+001
9.978889e+002,2.650070e+001
9.988531e+002,2.750214e+001
9.998174e+002,2.897147e+001
1.000782e+003,3.259613e+001
1.001746e+003,3.711044e+001
1.002710e+003,4.058807e+001
1.003674e+003,4.217700e+001
1.004639e+003,4.261334e+001
1.005603e+003,4.320639e+001
1.006567e+003,4.390524e+001
1.007531e+003,4.386600e+001
1.008495e+003,4.304489e+001
1.009460e+003,4.172076e+001
1.010424e+003,3.945932e+001
1.011388e+003,3.680206e+001
1.012352e+003,3.607581e+001
1.013317e+003,3.886453e+001
1.014281e+003,4.067639e+001
1.015245e+003,3.993811e+001
1.016209e+003,3.797617e+001
1.017174e+003,3.550418e+001
1.018138e+003,3.284164e+001
1.019102e+003,3.005682e+001
1.020066e+003,2.718237e+001
1.021031e+003,2.456470e+001
1.021995e+003,2.326956e+001
1.022959e+003,2.280405e+001
1.023923e+003,2.137695e+001
1.024887e+003,1.798349e+001
1.025852e+003,1.401984e+001
1.026816e+003,1.184552e+001
1.027780e+003,1.196472e+001
1.028744e+003,1.216428e+001
1.029709e+003,1.248175e+001
1.030673e+003,1.255072e+001
1.031637e+003,1.212875e+001
1.032601e+003,1.133578e+001
1.033566e+003,1.022885e+001
1.034530e+003,8.908295e+000
1.035494e+003,8.049255e+000
1.036458e+003,8.825500e+000
1.037422e+003,1.013214e+001
1.038387e+003,1.001465e+001
1.039351e+003,8.496857e+000
1.040315e+003,6.784943e+000
1.041279e+003,5.723389e+000
1.042244e+003,5.446503e+000
1.043208e+003,6.433563e+000
1.044172e+003,1.026328e+001
1.045136e+003,1.219290e+001
1.046101e+003,1.114331e+001
1.047065e+003,9.463898e+000
1.048029e+003,8.473206e+000
1.048993e+003,8.112640e+000
1.049958e+003,7.646057e+000
1.050922e+003,6.625549e+000
1.051886e+003,5.994965e+000
1.052850e+003,6.931732e+000
1.053814e+003,8.608185e+000
1.054779e+003,1.009891e+001
1.055743e+003,1.112131e+001
1.056707e+003,1.177673e+001
1.057671e+003,1.220844e+001
1.058636e+003,1.238077e+001
1.059600e+003,1.198303e+001
1.060564e+003,1.035349e+001
1.061528e+003,9.568085e+000
1.062493e+003,1.046994e+001
1.063457e+003,1.165039e+001
1.064421e+003,1.140738e+001
1.065385e+003,9.663727e+000
1.066349e+003,8.533417e+000
1.067314e+003,9.671661e+000
1.068278e+003,1.108145e+001
1.069242e+003,1.163223e+001
1.070206e+003,1.147403e+001
1.071171e+003,1.054422e+001
1.072135e+003,8.908020e+000
1.073099e+003,7.287567e+000
1.074063e+003,7.095703e+000
1.075028e+003,8.588165e+000
1.075992e+003,9.153198e+000
1.076956e+003,8.011749e+000
1.077920e+003,7.133331e+000
1.078885e+003,8.238556e+000
1.079849e+003,9.963928e+000
1.080813e+003,8.995056e+000
1.081777e+003,4.117401e+000
1.082741e+003,1.034210e+000
1.083706e+003,5.017365e+000
1.084670e+003,9.220215e+000
1.085634e+003,9.515076e+000
1.086598e+003,7.133331e+000
1.087563e+003,5.223816e+000
1.088527e+003,5.585480e+000
1.089491e+003,7.045685e+000
1.090455e+003,6.957458e+000
1.091420e+003,4.967316e+000
1.092384e+003,4.384644e+000
1.093348e+003,5.932861e+000
1.094312e+003,7.286255e+000
1.095276e+003,6.663879e+000
1.096241e+003,5.023315e+000
1.097205e+003,5.333527e+000
1.098169e+003,8.858154e+000
1.099133e+003,1.123624e+001
1.100098e+003,1.028500e+001
1.101062e+003,8.457886e+000
1.102026e+003,6.768433e+000
1.102990e+003,5.565704e+000
1.103955e+003,5.026276e+000
1.104919e+003,5.209137e+000
1.105883e+003,5.837341e+000
1.106847e+003,6.449127e+000
1.107812e+003,7.017700e+000
1.108776e+003,7.622650e+000
1.109740e+003,8.382996e+000
1.110704e+003,8.950500e+000
1.111668e+003,9.133362e+000
1.112633e+003,9.108887e+000
1.113597e+003,9.065399e+000
1.114561e+003,8.479553e+000
1.115525e+003,8.866119e+000
1.116490e+003,1.147873e+001
1.117454e+003,1.425769e+001
1.118418e+003,1.648563e+001
1.119382e+003,1.785812e+001
1.120347e+003,1.771515e+001
1.121311e+003,1.553113e+001
1.122275e+003,1.241556e+001
1.123239e+003,1.091968e+001
1.124203e+003,1.128680e+001
1.125168e+003,1.310880e+001
1.126132e+003,1.708203e+001
1.127096e+003,2.079565e+001
1.128060e+003,2.196368e+001
1.129025e+003,2.111298e+001
1.129989e+003,2.104520e+001
1.130953e+003,2.214365e+001
1.131917e+003,2.341254e+001
1.132882e+003,2.502490e+001
1.133846e+003,2.642102e+001
1.134810e+003,2.711890e+001
1.135774e+003,2.735013e+001
1.136739e+003,2.765945e+001
1.137703e+003,2.834012e+001
1.138667e+003,2.912891e+001
1.139631e+003,2.922629e+001
1.140595e+003,2.899094e+001
1.141560e+003,3.128500e+001
1.142524e+003,3.682632e+001
1.143488e+003,4.330170e+001
1.144452e+003,4.954486e+001
1.145417e+003,5.543054e+001
1.146381e+003,5.999173e+001
1.147345e+003,6.154575e+001
1.148309e+003,6.627618e+001
1.149274e+003,7.877924e+001
1.150238e+003,9.158035e+001
1.151202e+003,1.006611e+002
1.152166e+003,1.073776e+002
1.153130e+003,1.150124e+002
1.154095e+003,1.248606e+002
1.155059e+003,1.347921e+002
1.156023e+003,1.424814e+002
1.156987e+003,1.475165e+002
1.157952e+003,1.485701e+002
1.158916e+003,1.456364e+002
1.159880e+003,1.409953e+002
1.160844e+003,1.348943e+002
1.161809e+003,1.275435e+002
1.162773e+003,1.201287e+002
1.163737e+003,1.129279e+002
1.164701e+003,1.044982e+002
1.165666e+003,9.270081e+001
1.166630e+003,8.171213e+001
1.167594e+003,7.298367e+001
1.168558e+003,6.599078e+001
1.169522e+003,5.979904e+001
1.170487e+003,5.417380e+001
1.171451e+003,4.996646e+001
1.172415e+003,4.824130e+001
1.173379e+003,4.850568e+001
1.174344e+003,4.839575e+001
1.175308e+003,4.798141e+001
1.176272e+003,4.743292e+001
1.177236e+003,4.689618e+001
1.178201e+003,4.629611e+001
1.179165e+003,4.563284e+001
1.180129e+003,4.479178e+001
1.181093e+003,4.266971e+001
1.182057e+003,3.769714e+001
1.183022e+003,3.362054e+001
1.183986e+003,3.147906e+001
1.184950e+003,3.100092e+001
1.185914e+003,3.282986e+001
1.186879e+003,3.624866e+001
1.187843e+003,3.895377e+001
1.188807e+003,3.899576e+001
1.189771e+003,3.728162e+001
1.190736e+003,3.673340e+001
1.191700e+003,3.747556e+001
1.192664e+003,3.801877e+001
1.193628e+003,3.866928e+001
1.194593e+003,3.875314e+001
1.195557e+003,3.734705e+001
1.196521e+003,3.490164e+001
1.197485e+003,3.317264e+001
1.198449e+003,3.268427e+001
1.199414e+003,3.218127e+001
1.200378e+003,3.123944e+001
1.201342e+003,2.999640e+001
1.202306e+003,2.801025e+001
1.203271e+003,2.577017e+001
1.204235e+003,2.430551e+001
1.205199e+003,2.411615e+001
1.206163e+003,2.468881e+001
1.207128e+003,2.519644e+001
1.208092e+003,2.567197e+001
1.209056e+003,2.521951e+001
1.210020e+003,2.363254e+001
1.210984e+003,2.177460e+001
1.211949e+003,2.031235e+001
1.212913e+003,1.836942e+001
1.213877e+003,1.418185e+001
1.214841e+003,7.828339e+000
1.215806e+003,3.184357e+000
1.216770e+003,2.343842e+000
1.217734e+003,2.627533e+000
1.218698e+003,2.449158e+000
1.219663e+003,1.805450e+000
1.220627e+003,4.684143e-001
1.221591e+003,-1.384338e+000
1.222555e+003,-2.928650e+000
1.223520e+003,-3.344269e+000
1.224484e+003,-2.939301e+000
1.225448e+003,-3.523468e+000
1.226412e+003,-6.049225e+000
1.227376e+003,-7.465668e+000
1.228341e+003,-7.237549e+000
1.229305e+003,-6.657715e+000
1.230269e+003,-5.919128e+000
1.231233e+003,-5.479309e+000
1.232198e+003,-6.586975e+000
1.233162e+003,-9.631500e+000
1.234126e+003,-1.163599e+001
1.235090e+003,-9.549133e+000
1.236055e+003,-6.421509e+000
1.237019e+003,-5.546234e+000
1.237983e+003,-6.421631e+000
1.238947e+003,-7.357941e+000
1.239911e+003,-7.571808e+000
1.240876e+003,-7.538483e+000
1.241840e+003,-8.108307e+000
1.242804e+003,-9.339874e+000
1.243768e+003,-9.930725e+000
1.244733e+003,-9.357758e+000
1.245697e+003,-8.769562e+000
1.246661e+003,-8.067627e+000
1.247625e+003,-7.813995e+000
1.248590e+003,-8.743103e+000
1.249554e+003,-1.029581e+001
1.250518e+003,-1.110187e+001
1.251482e+003,-1.062390e+001
1.252447e+003,-9.408752e+000
1.253411e+003,-7.872131e+000
1.254375e+003,-5.911591e+000
1.255339e+003,-3.195282e+000
1.256303e+003,2.814941e-001
1.257268e+003,3.321930e+000
1.258232e+003,5.236908e+000
1.259196e+003,5.967163e+000
1.260160e+003,5.257202e+000
1.261125e+003,2.835693e+000
1.262089e+003,1.572052e+000
1.263053e+003,2.477722e+000
1.264017e+003,3.429169e+000
1.264982e+003,4.312103e+000
1.265946e+003,4.850342e+000
1.266910e+003,4.557770e+000
1.267874e+003,3.665619e+000
1.268839e+003,2.993835e+000
1.269803e+003,3.093353e+000
1.270767e+003,3.748505e+000
1.271731e+003,4.797760e+000
1.272695e+003,6.215332e+000
1.273660e+003,6.429810e+000
1.274624e+003,4.852997e+000
1.275588e+003,2.898438e+000
1.276552e+003,1.376190e+000
1.277517e+003,2.092590e-001
1.278481e+003,-1.021454e+000
1.279445e+003,-2.424805e+000
1.280409e+003,-3.379944e+000
1.281374e+003,-3.862366e+000
1.282338e+003,-3.477295e+000
1.283302e+003,-9.619141e-001
1.284266e+003,1.756409e+000
1.285230e+003,2.255432e+000
1.286195e+003,4.383545e-001
1.287159e+003,-1.887146e+000
1.288123e+003,-3.174927e+000
1.289087e+003,-3.678925e+000
1.290052e+003,-4.462982e+000
1.291016e+003,-5.795593e+000
1.291980e+003,-6.866272e+000
1.292944e+003,-8.177551e+000
1.293909e+003,-8.882446e+000
1.294873e+003,-7.838318e+000
1.295837e+003,-6.227325e+000
1.296801e+003,-5.873474e+000
1.297766e+003,-6.940216e+000
1.298730e+003,-8.010254e+000
1.299694e+003,-8.435730e+000
1.300658e+003,-8.645538e+000
1.301622e+003,-9.034760e+000
1.302587e+003,-9.452789e+000
1.303551e+003,-9.747986e+000
1.304515e+003,-9.836700e+000
1.305479e+003,-9.691101e+000
1.306444e+003,-9.387909e+000
1.307408e+003,-8.913361e+000
1.308372e+003,-7.822296e+000
1.309336e+003,-5.476563e+000
1.310301e+003,-4.569489e+000
1.311265e+003,-6.887054e+000
1.312229e+003,-8.406586e+000
1.313193e+003,-7.255280e+000
1.314157e+003,-5.260345e+000
1.315122e+003,-4.550079e+000
1.316086e+003,-5.225037e+000
1.317050e+003,-5.625092e+000
1.318014e+003,-4.535950e+000
1.318979e+003,-3.142700e+000
1.319943e+003,-4.114929e+000
1.320907e+003,-6.942078e+000
1.321871e+003,-7.460083e+000
1.322836e+003,-5.036835e+000
1.323800e+003,-2.686646e+000
1.324764e+003,-2.074799e+000
1.325728e+003,-2.431213e+000
1.326693e+003,-2.334778e+000
1.327657e+003,-1.804047e+000
1.328621e+003,-2.492920e+000
1.329585e+003,-5.595459e+000
1.330549e+003,-7.865845e+000
1.331514e+003,-8.209106e+000
1.332478e+003,-7.297058e+000
1.333442e+003,-4.590240e+000
1.334406e+003,-1.011780e+000
1.335371e+003,6.887512e-001
1.336335e+003,-1.070435e+000
1.337299e+003,-4.258057e+000
1.338263e+003,-5.000885e+000
1.339228e+003,-2.931488e+000
1.340192e+003,-1.817047e+000
1.341156e+003,-2.026093e+000
1.342120e+003,-2.575500e+000
1.343084e+003,-3.595154e+000
1.344049e+003,-4.926331e+000
1.345013e+003,-6.753998e+000
1.345977e+003,-8.562164e+000
1.346941e+003,-9.134399e+000
1.347906e+003,-8.019806e+000
1.348870e+003,-6.021881e+000
1.349834e+003,-2.991516e+000
1.350798e+003,-4.356995e-001
1.351763e+003,-1.642151e+000
1.352727e+003,-5.803070e+000
1.353691e+003,-8.255829e+000
1.354655e+003,-7.058868e+000
1.355620e+003,-4.484589e+000
1.356584e+003,-2.945740e+000
1.357548e+003,-2.325836e+000
1.358512e+003,-2.062561e+000
1.359476e+003,-2.414215e+000
1.360441e+003,-2.921570e+000
1.361405e+003,-3.552551e+000
1.362369e+003,-4.061310e+000
1.363333e+003,-4.253082e+000
1.364298e+003,-4.268890e+000
1.365262e+003,-4.380463e+000
1.366226e+003,-4.593231e+000
1.367190e+003,-4.549225e+000
1.368155e+003,-3.919525e+000
1.369119e+003,-2.925751e+000
1.370083e+003,-2.197235e+000
1.371047e+003,-1.554108e+000
1.372011e+003,-1.840210e+000
1.372976e+003,-4.788391e+000
1.373940e+003,-6.664215e+000
1.374904e+003,-4.963776e+000
1.375868e+003,-2.053497e+000
1.376833e+003,-1.206665e+000
1.377797e+003,-2.459839e+000
1.378761e+003,-3.267120e+000
1.379725e+003,-2.443268e+000
1.380690e+003,-1.105560e+000
1.381654e+003,1.371155e-001
1.382618e+003,9.552307e-001
1.383582e+003,5.078430e-001
1.384547e+003,-1.044678e+000
1.385511e+003,-2.422760e+000
1.386475e+003,-3.075928e+000
1.387439e+003,-3.178894e+000
1.388403e+003,-2.855347e+000
1.389368e+003,-2.121582e+000
1.390332e+003,-1.319031e+000
1.391296e+003,-1.409912e-002
1.392260e+003,6.340637e-001
1.393225e+003,2.504883e-001
1.394189e+003,-6.991882e-001
1.395153e+003,-3.101990e+000
1.396117e+003,-5.388947e+000
1.397082e+003,-4.587128e+000
1.398046e+003,-5.092468e-001
1.399010e+003,3.385986e+000
1.399974e+003,3.814148e+000
1.400938e+003,1.670013e+000
1.401903e+003,1.975403e-001
1.402867e+003,-5.343628e-002
1.403831e+003,-1.159668e-001
1.404795e+003,-7.414551e-001
1.405760e+003,-5.650940e-001
1.406724e+003,1.520996e+000
1.407688e+003,3.724152e+000
1.408652e+003,4.096710e+000
1.409617e+003,2.891602e+000
1.410581e+003,1.591125e+000
1.411545e+003,7.030029e-001
1.412509e+003,1.941528e-001
1.413474e+003,-8.383179e-002
1.414438e+003,-1.258240e-001
1.415402e+003,6.654663e-001
1.416366e+003,2.187042e+000
1.417330e+003,3.080109e+000
1.418295e+003,2.753265e+000
1.419259e+003,1.885895e+000
1.420223e+003,9.917908e-001
1.421187e+003,4.739380e-002
1.422152e+003,-4.606018e-001
1.423116e+003,-2.112732e-001
1.424080e+003,-1.553345e-002
1.425044e+003,-8.861084e-001
1.426009e+003,-1.256287e+000
1.426973e+003,1.428833e-001
1.427937e+003,2.024689e+000
1.428901e+003,2.999512e+000
1.429865e+003,2.920135e+000
1.430830e+003,2.170776e+000
1.431794e+003,9.738770e-001
1.432758e+003,-2.544556e-001
1.433722e+003,-5.281372e-001
1.434687e+003,3.615112e-001
1.435651e+003,2.290314e+000
1.436615e+003,6.455963e+000
1.437579e+003,8.870178e+000
1.438544e+003,8.494995e+000
1.439508e+003,7.098480e+000
1.440472e+003,5.187958e+000
1.441436e+003,3.552673e+000
1.442401e+003,3.431000e+000
1.443365e+003,4.962555e+000
1.444329e+003,6.993011e+000
1.445293e+003,8.903931e+000
1.446257e+003,1.037506e+001
1.447222e+003,1.061380e+001
1.448186e+003,9.719696e+000
1.449150e+003,8.070740e+000
1.450114e+003,5.329437e+000
1.451079e+003,3.119659e+000
1.452043e+003,2.322327e+000
1.453007e+003,2.677399e+000
1.453971e+003,4.367645e+000
1.454936e+003,6.984222e+000
1.455900e+003,7.891510e+000
1.456864e+003,6.175232e+000
1.457828e+003,4.288574e+000
1.458792e+003,3.176483e+000
1.459757e+003,2.722290e+000
1.460721e+003,3.274536e+000
1.461685e+003,4.301727e+000
1.462649e+003,4.776123e+000
1.463614e+003,4.513428e+000
1.464578e+003,4.193420e+000
1.465542e+003,4.425720e+000
1.466506e+003,4.811981e+000
1.467471e+003,4.194397e+000
1.468435e+003,2.393280e+000
1.469399e+003,1.339447e+000
1.470363e+003,1.043213e+000
1.471328e+003,1.333801e+000
1.472292e+003,2.340759e+000
1.473256e+003,3.448456e+000
1.474220e+003,4.521027e+000
1.475184e+003,5.588196e+000
1.476149e+003,6.846527e+000
1.477113e+003,8.106750e+000
1.478077e+003,8.329071e+000
1.479041e+003,6.525177e+000
1.480006e+003,3.948242e+000
1.480970e+003,4.669525e+000
1.481934e+003,9.963715e+000
1.482898e+003,1.238873e+001
1.483863e+003,9.735077e+000
1.484827e+003,7.582458e+000
1.485791e+003,8.163147e+000
1.486755e+003,9.424164e+000
1.487719e+003,8.551147e+000
1.488684e+003,6.669128e+000
1.489648e+003,8.071411e+000
1.490612e+003,1.403815e+001
1.491576e+003,1.929825e+001
1.492541e+003,1.905295e+001
1.493505e+003,1.602603e+001
1.494469e+003,1.629819e+001
1.495433e+003,1.915170e+001
1.496398e+003,2.141211e+001
1.497362e+003,2.287469e+001
1.498326e+003,2.405753e+001
1.499290e+003,2.452463e+001
1.500255e+003,2.530112e+001
1.501219e+003,2.803458e+001
1.502183e+003,3.237686e+001
1.503147e+003,3.627881e+001
1.504111e+003,3.911523e+001
1.505076e+003,4.239294e+001
1.506040e+003,4.686780e+001
1.507004e+003,5.243851e+001
1.507968e+003,5.939362e+001
1.508933e+003,6.711832e+001
1.509897e+003,7.426880e+001
1.510861e+003,8.086282e+001
1.511825e+003,8.790137e+001
1.512790e+003,9.547192e+001
1.513754e+003,1.044814e+002
1.514718e+003,1.180232e+002
1.515682e+003,1.358924e+002
1.516646e+003,1.500638e+002
1.517611e+003,1.584622e+002
1.518575e+003,1.671151e+002
1.519539e+003,1.798664e+002
1.520503e+003,1.916311e+002
1.521468e+003,2.002446e+002
1.522432e+003,2.057910e+002
1.523396e+003,2.083217e+002
1.524360e+003,2.081723e+002
1.525325e+003,2.063017e+002
1.526289e+003,2.033931e+002
1.527253e+003,1.993780e+002
1.528217e+003,1.940792e+002
1.529182e+003,1.876319e+002
1.530146e+003,1.796083e+002
1.531110e+003,1.698804e+002
1.532074e+003,1.583760e+002
1.533039e+003,1.444321e+002
1.534003e+003,1.290176e+002
1.534967e+003,1.116264e+002
1.535931e+003,9.430521e+001
1.536896e+003,7.853787e+001
1.537860e+003,6.502292e+001
1.538824e+003,5.456198e+001
1.539788e+003,4.735544e+001
1.540752e+003,4.183725e+001
1.541717e+003,3.606104e+001
1.542681e+003,3.028430e+001
1.543645e+003,2.548013e+001
1.544609e+003,2.196289e+001
1.545573e+003,1.920480e+001
1.546538e+003,1.706573e+001
1.547502e+003,1.539761e+001
1.548466e+003,1.427975e+001
1.549430e+003,1.387872e+001
1.550395e+003,1.452890e+001
1.551359e+003,1.582358e+001
1.552323e+003,1.700412e+001
1.553287e+003,1.777841e+001
1.554252e+003,1.789041e+001
1.555216e+003,1.703525e+001
1.556180e+003,1.548471e+001
1.557144e+003,1.364905e+001
1.558109e+003,1.159061e+001
1.559073e+003,1.084109e+001
1.560037e+003,1.202795e+001
1.561001e+003,1.276050e+001
1.561966e+003,1.247433e+001
1.562930e+003,1.162491e+001
1.563894e+003,9.862213e+000
1.564858e+003,7.861115e+000
1.565823e+003,7.462799e+000
1.566787e+003,8.921692e+000
1.567751e+003,1.059506e+001
1.568715e+003,1.175482e+001
1.569679e+003,1.237497e+001
1.570644e+003,1.206198e+001
1.571608e+003,1.109631e+001
1.572572e+003,1.056158e+001
1.573536e+003,1.058795e+001
1.574500e+003,1.096793e+001
1.575465e+003,1.170123e+001
1.576429e+003,1.254230e+001
1.577393e+003,1.323959e+001
1.578357e+003,1.382382e+001
1.579322e+003,1.461819e+001
1.580286e+003,1.562390e+001
1.581250e+003,1.608102e+001
1.582214e+003,1.571393e+001
1.583179e+003,1.486646e+001
1.584143e+003,1.329660e+001
1.585107e+003,1.167075e+001
1.586071e+003,1.092987e+001
1.587036e+003,1.114432e+001
1.588000e+003,1.229919e+001
1.588964e+003,1.437558e+001
1.589928e+003,1.588513e+001
1.590893e+003,1.540747e+001
1.591857e+003,1.428540e+001
1.592821e+003,1.479572e+001
1.593785e+003,1.660010e+001
1.594750e+003,1.733133e+001
1.595714e+003,1.636511e+001
1.596678e+003,1.612469e+001
1.597642e+003,1.807553e+001
1.598606e+003,2.035596e+001
1.599571e+003,2.149786e+001
1.600535e+003,2.215042e+001
1.601499e+003,2.338400e+001
1.602463e+003,2.494638e+001
1.603427e+003,2.526007e+001
1.604392e+003,2.357852e+001
1.605356e+003,2.147281e+001
1.606320e+003,2.048486e+001
1.607284e+003,2.032965e+001
1.608249e+003,2.019107e+001
1.609213e+003,2.006894e+001
1.610177e+003,2.015021e+001
1.611141e+003,2.092795e+001
1.612106e+003,2.076785e+001
1.613070e+003,1.773709e+001
1.614034e+003,1.447656e+001
1.614998e+003,1.221262e+001
1.615963e+003,1.134262e+001
1.616927e+003,1.332352e+001
1.617891e+003,1.766922e+001
1.618855e+003,2.026678e+001
1.619820e+003,1.839456e+001
1.620784e+003,1.467200e+001
1.621748e+003,1.260101e+001
1.622712e+003,1.233084e+001
1.623677e+003,1.416644e+001
1.624641e+003,1.879837e+001
1.625605e+003,2.143512e+001
1.626569e+003,1.940997e+001
1.627533e+003,1.723874e+001
1.628498e+003,1.769958e+001
1.629462e+003,1.877917e+001
1.630426e+003,1.845410e+001
1.631390e+003,1.738040e+001
1.632354e+003,1.749612e+001
1.633319e+003,1.912408e+001
1.634283e+003,2.051746e+001
1.635247e+003,2.031155e+001
1.636211e+003,1.927060e+001
1.637176e+003,1.886514e+001
1.638140e+003,1.910382e+001
1.639104e+003,1.896570e+001
1.640068e+003,1.808319e+001
1.641033e+003,1.790427e+001
1.641997e+003,1.964841e+001
1.642961e+003,2.108234e+001
1.643925e+003,2.067847e+001
1.644890e+003,1.977829e+001
1.645854e+003,1.964981e+001
1.646818e+003,2.014331e+001
1.647782e+003,2.062146e+001
1.648747e+003,2.085565e+001
1.649711e+003,2.094589e+001
1.650675e+003,2.109894e+001
1.651639e+003,2.118954e+001
1.652604e+003,2.061713e+001
1.653568e+003,1.934070e+001
1.654532e+003,1.848865e+001
1.655496e+003,1.811511e+001
1.656460e+003,1.825146e+001
1.657425e+003,1.997610e+001
1.658389e+003,2.086749e+001
1.659353e+003,1.872263e+001
1.660317e+003,1.580835e+001
1.661281e+003,1.455023e+001
1.662246e+003,1.467682e+001
1.663210e+003,1.482004e+001
1.664174e+003,1.456180e+001
1.665138e+003,1.417795e+001
1.666103e+003,1.375266e+001
1.667067e+003,1.340045e+001
1.668031e+003,1.376099e+001
1.668995e+003,1.474530e+001
1.669960e+003,1.422412e+001
1.670924e+003,1.149820e+001
1.671888e+003,9.819000e+000
1.672852e+003,1.065265e+001
1.673817e+003,1.194391e+001
1.674781e+003,1.268579e+001
1.675745e+003,1.293481e+001
1.676709e+003,1.252481e+001
1.677674e+003,1.167313e+001
1.678638e+003,1.103000e+001
1.679602e+003,1.080121e+001
1.680566e+003,1.048764e+001
1.681531e+003,9.630402e+000
1.682495e+003,8.746643e+000
1.683459e+003,8.621796e+000
1.684423e+003,9.079590e+000
1.685387e+003,9.619904e+000
1.686352e+003,1.031894e+001
1.687316e+003,1.049591e+001
1.688280e+003,9.768066e+000
1.689244e+003,8.768372e+000
1.690208e+003,7.524414e+000
1.691173e+003,6.489197e+000
1.692137e+003,6.330353e+000
1.693101e+003,6.980499e+000
1.694065e+003,8.063599e+000
1.695030e+003,9.411102e+000
1.695994e+003,9.918701e+000
1.696958e+003,8.501526e+000
1.697922e+003,6.545410e+000
1.698887e+003,5.923126e+000
1.699851e+003,6.186005e+000
1.700815e+003,5.627319e+000
1.701779e+003,4.076935e+000
1.702744e+003,3.355316e+000
1.703708e+003,4.358765e+000
1.704672e+003,5.608368e+000
1.705636e+003,5.767151e+000
1.706601e+003,5.466400e+000
1.707565e+003,6.109589e+000
1.708529e+003,7.371948e+000
1.709493e+003,7.816589e+000
1.710458e+003,7.180084e+000
1.711422e+003,6.471436e+000
1.712386e+003,6.246521e+000
1.713350e+003,6.140076e+000
1.714314e+003,5.537170e+000
1.715279e+003,4.788391e+000
1.716243e+003,5.150665e+000
1.717207e+003,6.181976e+000
1.718171e+003,4.912720e+000
1.719135e+003,5.616150e-001
1.720100e+003,-2.676422e+000
1.721064e+003,-1.818542e+000
1.722028e+003,8.119812e-001
1.722992e+003,2.297821e+000
1.723957e+003,2.844604e+000
1.724921e+003,2.673889e+000
1.725885e+003,1.317657e+000
1.726849e+003,7.207031e-001
1.727814e+003,2.231659e+000
1.728778e+003,3.631805e+000
1.729742e+003,3.658295e+000
1.730706e+003,3.334930e+000
1.731671e+003,3.888458e+000
1.732635e+003,4.552643e+000
1.733599e+003,3.623138e+000
1.734563e+003,1.222534e+000
1.735528e+003,-6.619263e-001
1.736492e+003,-1.054291e+000
1.737456e+003,-1.230042e+000
1.738420e+003,-2.808411e+000
1.739385e+003,-5.210571e+000
1.740349e+003,-5.851257e+000
1.741313e+003,-4.234039e+000
1.742277e+003,-2.861115e+000
1.743241e+003,-1.843994e+000
1.744206e+003,-6.667786e-001
1.745170e+003,9.367065e-001
1.746134e+003,2.336700e+000
1.747098e+003,3.671112e+000
1.748063e+003,4.239990e+000
1.749027e+003,2.613434e+000
1.749991e+003,-3.132935e-001
1.750955e+003,-2.218262e+000
1.751919e+003,-2.353180e+000
1.752884e+003,-1.684235e+000
1.753848e+003,-9.934692e-001
1.754812e+003,-4.538574e-001
1.755776e+003,-2.921753e-001
1.756741e+003,-3.989563e-001
1.757705e+003,-1.291229e+000
1.758669e+003,-3.987152e+000
1.759633e+003,-4.739716e+000
1.760598e+003,-1.207001e+000
1.761562e+003,1.260651e+000
1.762526e+003,3.034668e-001
1.763490e+003,-1.189819e+000
1.764455e+003,-9.498901e-001
1.765419e+003,5.477905e-002
1.766383e+003,-4.016724e-001
1.767347e+003,-2.177765e+000
1.768312e+003,-2.602997e+000
1.769276e+003,-4.212646e-001
1.770240e+003,1.895874e+000
1.771204e+003,1.925903e+000
1.772168e+003,5.427856e-001
1.773133e+003,-8.780823e-001
1.774097e+003,-2.250763e+000
1.775061e+003,-2.547668e+000
1.776025e+003,-1.715515e+000
1.776990e+003,-3.152771e-001
1.777954e+003,2.221832e+000
1.778918e+003,4.065430e+000
1.779882e+003,3.325928e+000
1.780846e+003,1.334961e+000
1.781811e+003,-4.182434e-001
1.782775e+003,-1.679962e+000
1.783739e+003,-1.343964e+000
1.784703e+003,1.011047e+000
1.785668e+003,2.337830e+000
1.786632e+003,4.423828e-001
1.787596e+003,-1.924194e+000
1.788560e+003,-2.600586e+000
1.789525e+003,-2.294342e+000
1.790489e+003,-2.087402e+000
1.791453e+003,-2.032043e+000
1.792417e+003,-1.731689e+000
1.793382e+003,-1.133575e+000
1.794346e+003,-7.517090e-001
1.795310e+003,-9.037781e-001
1.796274e+003,-9.629211e-001
1.797239e+003,2.441406e-002
1.798203e+003,1.602051e+000
1.799167e+003,1.708038e+000
1.800131e+003,-2.416382e-001
1.801095e+003,-1.646210e+000
1.802060e+003,-2.160614e+000
1.803024e+003,-2.215851e+000
1.803988e+003,-1.789459e+000
1.804952e+003,-1.178955e+000
1.805917e+003,-2.466736e-001
1.806881e+003,5.588074e-001
1.807845e+003,6.443176e-001
1.808809e+003,4.073486e-001
1.809773e+003,8.247375e-001
1.810738e+003,1.931732e+000
1.811702e+003,2.668335e+000
1.812666e+003,2.364349e+000
1.813630e+003,1.514740e+000
1.814595e+003,7.288208e-001
1.815559e+003,-5.249023e-003
1.816523e+003,-5.367432e-001
1.817487e+003,-8.092957e-001
1.818452e+003,-1.081512e+000
1.819416e+003,-1.123413e+000
1.820380e+003,-1.558624e+000
1.821344e+003,-3.330963e+000
1.822309e+003,-4.697174e+000
1.823273e+003,-4.271240e+000
1.824237e+003,-3.067535e+000
1.825201e+003,-1.715424e+000
1.826166e+003,-6.383362e-001
1.827130e+003,-1.076935e+000
1.828094e+003,-3.202881e+000
1.829058e+003,-4.294250e+000
1.830022e+003,-2.490387e+000
1.830987e+003,-2.875977e-001
1.831951e+003,1.496887e-001
1.832915e+003,-1.920776e-001
1.833879e+003,1.245117e-001
1.834844e+003,9.051819e-001
1.835808e+003,1.386963e+000
1.836772e+003,1.465302e+000
1.837736e+003,1.262726e+000
1.838700e+003,7.454529e-001
1.839665e+003,5.892944e-001
1.840629e+003,1.668854e+000
1.841593e+003,3.004120e+000
1.842557e+003,2.207153e+000
1.843522e+003,-6.824951e-001
1.844486e+003,-2.054657e+000
1.845450e+003,-1.181366e+000
1.846414e+003,2.161255e-001
1.847379e+003,3.309113e+000
1.848343e+003,4.854218e+000
1.849307e+003,2.375275e+000
1.850271e+003,-2.189331e-001
1.851236e+003,7.826233e-001
1.852200e+003,3.008423e+000
1.853164e+003,2.125031e+000
1.854128e+003,-1.261780e+000
1.855093e+003,-2.731049e+000
1.856057e+003,-7.075806e-001
1.857021e+003,1.657562e+000
1.857985e+003,1.673553e+000
1.858949e+003,4.118652e-001
1.859914e+003,-5.276794e-001
1.860878e+003,-1.049042e+000
1.861842e+003,-6.109314e-001
1.862806e+003,7.741394e-001
1.863771e+003,1.558594e+000
1.864735e+003,1.265259e+000
1.865699e+003,1.165131e+000
1.866663e+003,2.062469e+000
1.867627e+003,3.083038e+000
1.868592e+003,3.445068e+000
1.869556e+003,3.172943e+000
1.870520e+003,2.535522e+000
1.871484e+003,1.534943e+000
1.872449e+003,3.634644e-002
1.873413e+003,-2.155518e+000
1.874377e+003,-2.695129e+000
1.875341e+003,3.589478e-001
1.876306e+003,2.937408e+000
1.877270e+003,2.223877e+000
1.878234e+003,5.136414e-001
1.879198e+003,1.495667e-001
1.880163e+003,6.619263e-001
1.881127e+003,1.007172e+000
1.882091e+003,9.190063e-001
1.883055e+003,1.983032e-001
1.884020e+003,-1.126770e+000
1.884984e+003,-2.121185e+000
1.885948e+003,-1.920502e+000
1.886912e+003,-9.512329e-001
1.887876e+003,1.617432e-002
1.888841e+003,9.792480e-001
1.889805e+003,1.714478e+000
1.890769e+003,2.261139e+000
1.891733e+003,2.253143e+000
1.892698e+003,9.960632e-001
1.893662e+003,6.209717e-001
1.894626e+003,3.315155e+000
1.895590e+003,5.261963e+000
1.896554e+003,2.581512e+000
1.897519e+003,-1.247498e+000
1.898483e+003,-2.005676e+000
1.899447e+003,-4.613342e-001
1.900411e+003,5.240479e-001
1.901376e+003,4.982910e-001
1.902340e+003,7.150269e-001
1.903304e+003,1.926147e+000
1.904268e+003,2.999969e+000
1.905233e+003,3.427979e+000
1.906197e+003,3.320160e+000
1.907161e+003,2.134094e+000
1.908125e+003,8.842163e-001
1.909090e+003,1.675873e+000
1.910054e+003,4.016022e+000
1.911018e+003,5.482239e+000
1.911982e+003,5.329498e+000
1.912947e+003,4.519043e+000
1.913911e+003,3.718323e+000
1.914875e+003,2.961243e+000
1.915839e+003,2.192230e+000
1.916803e+003,1.496582e+000
1.917768e+003,2.063904e+000
1.918732e+003,4.377014e+000
1.919696e+003,5.213074e+000
1.920660e+003,3.700439e+000
1.921625e+003,3.391113e+000
1.922589e+003,6.059784e+000
1.923553e+003,8.224243e+000
1.924517e+003,7.845764e+000
1.925481e+003,6.376099e+000
1.926446e+003,4.072479e+000
1.927410e+003,1.996399e+000
1.928374e+003,2.714081e+000
1.929338e+003,6.003479e+000
1.930303e+003,7.877045e+000
1.931267e+003,7.198547e+000
1.932231e+003,6.195770e+000
1.933195e+003,5.631927e+000
1.934160e+003,5.067322e+000
1.935124e+003,4.027496e+000
1.936088e+003,2.857147e+000
1.937052e+003,1.899475e+000
1.938017e+003,1.411255e+000
1.938981e+003,2.209320e+000
1.939945e+003,3.842346e+000
1.940909e+003,3.810150e+000
1.941874e+003,1.185944e+000
1.942838e+003,-1.091370e+000
1.943802e+003,-1.335144e-001
1.944766e+003,2.631622e+000
1.945730e+003,4.203705e+000
1.946695e+003,4.584717e+000
1.947659e+003,4.247345e+000
1.948623e+003,2.999756e+000
1.949587e+003,3.074341e+000
1.950552e+003,5.304718e+000
1.951516e+003,6.609070e+000
1.952480e+003,5.511688e+000
1.953444e+003,4.204681e+000
1.954408e+003,3.995148e+000
1.955373e+003,4.468719e+000
1.956337e+003,5.569946e+000
1.957301e+003,7.108765e+000
1.958265e+003,7.878815e+000
1.959230e+003,7.771912e+000
1.960194e+003,7.743103e+000
1.961158e+003,7.448334e+000
1.962122e+003,7.528748e+000
1.963087e+003,8.601563e+000
1.964051e+003,9.609924e+000
1.965015e+003,1.018094e+001
1.965979e+003,1.043521e+001
1.966944e+003,1.040726e+001
1.967908e+003,9.989929e+000
1.968872e+003,8.804932e+000
1.969836e+003,7.148529e+000
1.970801e+003,6.108582e+000
1.971765e+003,6.137115e+000
1.972729e+003,6.659515e+000
1.973693e+003,7.310394e+000
1.974657e+003,7.780792e+000
1.975622e+003,7.137512e+000
1.976586e+003,6.026398e+000
1.977550e+003,6.601807e+000
1.978514e+003,8.611908e+000
1.979479e+003,1.015985e+001
1.980443e+003,1.093948e+001
1.981407e+003,1.162912e+001
1.982371e+003,1.256146e+001
1.983335e+003,1.284265e+001
1.984300e+003,1.160977e+001
1.985264e+003,9.823212e+000
1.986228e+003,9.059082e+000
1.987192e+003,9.120789e+000
1.988157e+003,9.026398e+000
1.989121e+003,8.836121e+000
1.990085e+003,8.428986e+000
1.991049e+003,7.635712e+000
1.992014e+003,7.119659e+000
1.992978e+003,6.922913e+000
1.993942e+003,6.922760e+000
1.994906e+003,6.905884e+000
1.995871e+003,7.248810e+000
1.996835e+003,8.652496e+000
1.997799e+003,1.042288e+001
1.998763e+003,1.178287e+001
1.999728e+003,1.243744e+001
