5.003444e+002,4.362906e+001
5.013087e+002,4.328885e+001
5.022729e+002,4.222769e+001
5.032371e+002,4.071939e+001
5.042014e+002,3.892667e+001
5.051656e+002,3.698154e+001
5.061298e+002,3.547006e+001
5.070941e+002,3.491370e+001
5.080583e+002,3.540149e+001
5.090225e+002,3.586932e+001
5.099868e+002,3.663794e+001
5.109510e+002,3.707608e+001
5.119152e+002,3.652219e+001
5.128795e+002,3.486905e+001
5.138437e+002,3.410190e+001
5.148079e+002,3.596582e+001
5.157722e+002,3.795914e+001
5.167364e+002,3.916592e+001
5.177006e+002,3.932037e+001
5.186649e+002,3.867654e+001
5.196291e+002,3.734515e+001
5.205933e+002,3.582089e+001
5.215576e+002,3.427750e+001
5.225218e+002,3.265552e+001
5.234860e+002,3.099805e+001
5.244503e+002,2.954456e+001
5.254145e+002,2.856613e+001
5.263787e+002,2.811578e+001
5.273430e+002,2.864362e+001
5.283072e+002,2.939777e+001
5.292714e+002,2.906827e+001
5.302357e+002,2.627451e+001
5.311999e+002,2.495453e+001
5.321641e+002,2.679871e+001
5.331284e+002,2.947659e+001
5.340926e+002,3.128677e+001
5.350568e+002,3.152682e+001
5.360211e+002,3.058267e+001
5.369853e+002,2.807327e+001
5.379495e+002,2.548053e+001
5.389138e+002,2.416278e+001
5.398780e+002,2.451523e+001
5.408422e+002,2.573212e+001
5.418065e+002,2.550833e+001
5.427707e+002,2.410248e+001
5.437349e+002,2.350699e+001
5.446992e+002,2.442920e+001
5.456634e+002,2.633603e+001
5.466276e+002,2.742487e+001
5.475919e+002,2.737415e+001
5.485561e+002,2.682339e+001
5.495203e+002,2.487540e+001
5.504846e+002,2.260623e+001
5.514488e+002,2.179636e+001
5.524130e+002,2.390524e+001
5.533773e+002,2.593182e+001
5.543415e+002,2.649075e+001
5.553057e+002,2.612323e+001
5.562700e+002,2.520193e+001
5.572342e+002,2.393921e+001
5.581984e+002,2.248505e+001
5.591627e+002,2.096933e+001
5.601269e+002,1.970706e+001
5.610911e+002,1.955719e+001
5.620554e+002,2.101517e+001
5.630196e+002,2.370609e+001
5.639838e+002,2.480786e+001
5.649481e+002,2.361185e+001
5.659123e+002,2.192581e+001
5.668765e+002,1.952951e+001
5.678408e+002,1.703799e+001
5.688050e+002,1.606668e+001
5.697692e+002,1.838229e+001
5.707335e+002,1.981543e+001
5.716977e+002,1.881528e+001
5.726619e+002,1.648099e+001
5.736262e+002,1.411636e+001
5.745904e+002,1.246881e+001
5.755546e+002,1.189691e+001
5.765189e+002,1.308078e+001
5.774831e+002,1.513925e+001
5.784473e+002,1.688025e+001
5.794116e+002,1.755759e+001
5.803758e+002,1.731586e+001
5.813400e+002,1.623447e+001
5.823043e+002,1.353998e+001
5.832685e+002,1.150610e+001
5.842327e+002,1.144147e+001
5.851970e+002,1.313058e+001
5.861612e+002,1.442621e+001
5.871254e+002,1.451099e+001
5.880897e+002,1.450183e+001
5.890539e+002,1.457806e+001
5.900181e+002,1.460672e+001
5.909824e+002,1.437192e+001
5.919466e+002,1.375623e+001
5.929108e+002,1.294998e+001
5.938751e+002,1.214511e+001
5.948393e+002,1.133508e+001
5.958035e+002,1.034045e+001
5.967678e+002,9.075104e+000
5.977320e+002,7.845062e+000
5.986962e+002,9.257965e+000
5.996605e+002,1.326321e+001
6.006247e+002,1.617010e+001
6.015889e+002,1.568243e+001
6.025532e+002,1.211853e+001
6.035174e+002,9.976410e+000
6.044816e+002,1.063251e+001
6.054459e+002,1.146222e+001
6.064101e+002,1.246289e+001
6.073743e+002,1.331946e+001
6.083386e+002,1.346667e+001
6.093028e+002,1.216830e+001
6.102670e+002,1.114285e+001
6.112313e+002,1.161411e+001
6.121955e+002,1.304846e+001
6.131597e+002,1.507852e+001
6.141240e+002,1.739432e+001
6.150882e+002,1.950470e+001
6.160524e+002,1.869147e+001
6.170167e+002,1.558170e+001
6.179809e+002,1.321497e+001
6.189451e+002,1.305984e+001
6.199094e+002,1.471219e+001
6.208736e+002,1.568414e+001
6.218378e+002,1.546307e+001
6.228021e+002,1.546774e+001
6.237663e+002,1.617099e+001
6.247305e+002,1.714166e+001
6.256948e+002,1.751520e+001
6.266590e+002,1.651538e+001
6.276232e+002,1.546054e+001
6.285875e+002,1.537048e+001
6.295517e+002,1.580524e+001
6.305159e+002,1.639835e+001
6.314802e+002,1.685696e+001
6.324444e+002,1.695496e+001
6.334086e+002,1.605627e+001
6.343729e+002,1.457639e+001
6.353371e+002,1.298672e+001
6.363013e+002,1.130676e+001
6.372656e+002,9.684021e+000
6.382298e+002,8.809937e+000
6.391940e+002,9.569855e+000
6.401583e+002,9.842194e+000
6.411225e+002,9.633453e+000
6.420867e+002,9.271210e+000
6.430510e+002,8.879974e+000
6.440152e+002,8.156250e+000
6.449794e+002,7.955322e+000
6.459437e+002,9.658600e+000
6.469079e+002,1.134537e+001
6.478721e+002,1.103082e+001
6.488364e+002,8.357971e+000
6.498006e+002,5.395721e+000
6.507648e+002,6.338287e+000
6.517291e+002,9.666443e+000
6.526933e+002,1.196024e+001
6.536575e+002,1.257788e+001
6.546218e+002,1.185703e+001
6.555860e+002,1.036212e+001
6.565502e+002,7.191193e+000
6.575145e+002,5.242676e+000
6.584787e+002,4.777618e+000
6.594429e+002,5.150635e+000
6.604072e+002,6.021362e+000
6.613714e+002,7.402893e+000
6.623356e+002,8.856201e+000
6.632999e+002,1.103214e+001
6.642641e+002,1.229202e+001
6.652283e+002,1.099631e+001
6.661926e+002,7.763702e+000
6.671568e+002,4.977386e+000
6.681210e+002,5.631531e+000
6.690853e+002,8.564423e+000
6.700495e+002,1.087640e+001
6.710137e+002,1.244916e+001
6.719780e+002,1.286957e+001
6.729422e+002,1.144205e+001
6.739064e+002,7.376312e+000
6.748707e+002,6.073761e+000
6.758349e+002,9.341583e+000
6.767991e+002,1.235385e+001
6.777634e+002,1.307422e+001
6.787276e+002,1.184573e+001
6.796918e+002,1.084863e+001
6.806561e+002,1.100299e+001
6.816203e+002,1.102542e+001
6.825845e+002,1.000720e+001
6.835488e+002,8.608307e+000
6.845130e+002,8.069550e+000
6.854772e+002,9.438354e+000
6.864415e+002,1.180273e+001
6.874057e+002,1.316876e+001
6.883699e+002,1.345734e+001
6.893342e+002,1.229373e+001
6.902984e+002,9.303925e+000
6.912626e+002,5.135254e+000
6.922269e+002,3.898773e+000
6.931911e+002,9.936340e+000
6.941553e+002,1.343619e+001
6.951196e+002,1.116943e+001
6.960838e+002,6.482666e+000
6.970480e+002,5.413208e+000
6.980123e+002,1.147488e+001
6.989765e+002,1.544260e+001
6.999407e+002,1.193045e+001
7.009050e+002,6.363983e+000
7.018692e+002,2.650238e+000
7.028334e+002,2.255341e+000
7.037977e+002,3.986023e+000
7.047619e+002,7.168701e+000
7.057261e+002,1.091711e+001
7.066904e+002,1.290543e+001
7.076546e+002,1.273633e+001
7.086188e+002,1.163620e+001
7.095831e+002,1.154416e+001
7.105473e+002,1.287659e+001
7.115115e+002,1.363022e+001
7.124758e+002,1.388449e+001
7.134400e+002,1.353497e+001
7.144042e+002,1.243085e+001
7.153685e+002,1.066238e+001
7.163327e+002,8.852325e+000
7.172969e+002,6.455505e+000
7.182612e+002,4.958801e+000
7.192254e+002,5.646637e+000
7.201896e+002,7.636169e+000
7.211539e+002,9.145386e+000
7.221181e+002,8.642151e+000
7.230823e+002,7.006470e+000
7.240466e+002,6.636810e+000
7.250108e+002,7.434052e+000
7.259750e+002,8.766449e+000
7.269393e+002,1.022195e+001
7.279035e+002,1.154965e+001
7.288677e+002,1.213843e+001
7.298320e+002,1.216864e+001
7.307962e+002,1.184937e+001
7.317604e+002,1.066669e+001
7.327247e+002,9.384766e+000
7.336889e+002,9.175201e+000
7.346531e+002,1.057138e+001
7.356174e+002,1.107980e+001
7.365816e+002,8.694122e+000
7.375458e+002,6.070679e+000
7.385101e+002,5.610443e+000
7.394743e+002,7.631226e+000
7.404385e+002,1.011914e+001
7.414028e+002,9.702545e+000
7.423670e+002,6.781433e+000
7.433312e+002,5.151581e+000
7.442955e+002,5.343994e+000
7.452597e+002,6.710754e+000
7.462239e+002,8.603485e+000
7.471882e+002,1.124915e+001
7.481524e+002,1.297516e+001
7.491166e+002,1.364883e+001
7.500809e+002,1.328543e+001
7.510451e+002,1.108035e+001
7.520093e+002,7.720642e+000
7.529736e+002,5.458252e+000
7.539378e+002,6.042938e+000
7.549020e+002,7.449341e+000
7.558663e+002,8.829376e+000
7.568306e+002,9.860413e+000
7.577948e+002,9.623718e+000
7.587590e+002,7.672607e+000
7.597233e+002,5.218689e+000
7.606875e+002,7.292145e+000
7.616517e+002,1.332458e+001
7.626160e+002,1.712720e+001
7.635802e+002,1.666263e+001
7.645444e+002,1.369757e+001
7.655087e+002,1.181500e+001
7.664729e+002,1.153857e+001
7.674371e+002,1.116861e+001
7.684014e+002,1.009290e+001
7.693656e+002,9.288391e+000
7.703298e+002,9.752014e+000
7.712941e+002,1.144562e+001
7.722583e+002,1.279996e+001
7.732225e+002,1.221741e+001
7.741868e+002,1.122003e+001
7.751510e+002,1.102859e+001
7.761152e+002,1.149185e+001
7.770795e+002,1.190179e+001
7.780437e+002,1.160391e+001
7.790079e+002,1.072705e+001
7.799722e+002,1.116324e+001
7.809364e+002,1.313718e+001
7.819006e+002,1.429697e+001
7.828649e+002,1.325174e+001
7.838291e+002,1.086810e+001
7.847933e+002,9.802399e+000
7.857576e+002,1.059915e+001
7.867218e+002,1.154901e+001
7.876860e+002,1.337482e+001
7.886503e+002,1.482474e+001
7.896145e+002,1.443875e+001
7.905787e+002,1.199640e+001
7.915430e+002,9.477692e+000
7.925072e+002,9.125946e+000
7.934714e+002,9.531647e+000
7.944357e+002,9.220459e+000
7.953999e+002,8.339569e+000
7.963641e+002,7.921661e+000
7.973284e+002,9.100952e+000
7.982926e+002,1.199609e+001
7.992568e+002,1.434042e+001
8.002211e+002,1.629269e+001
8.011853e+002,1.695746e+001
8.021495e+002,1.549518e+001
8.031138e+002,1.287109e+001
8.040780e+002,1.184579e+001
8.050422e+002,1.363153e+001
8.060065e+002,1.542258e+001
8.069707e+002,1.610754e+001
8.079349e+002,1.625739e+001
8.088992e+002,1.662500e+001
8.098634e+002,1.750433e+001
8.108276e+002,1.835910e+001
8.117919e+002,1.806348e+001
8.127561e+002,1.684229e+001
8.137203e+002,1.575375e+001
8.146846e+002,1.510522e+001
8.156488e+002,1.469522e+001
8.166130e+002,1.413257e+001
8.175773e+002,1.327856e+001
8.185415e+002,1.280554e+001
8.195057e+002,1.240640e+001
8.204700e+002,1.233154e+001
8.214342e+002,1.330893e+001
8.223984e+002,1.468179e+001
8.233627e+002,1.453967e+001
8.243269e+002,1.130286e+001
8.252911e+002,8.504181e+000
8.262554e+002,7.856506e+000
8.272196e+002,8.666138e+000
8.281838e+002,1.065494e+001
8.291481e+002,1.344394e+001
8.301123e+002,1.630429e+001
8.310765e+002,1.799988e+001
8.320408e+002,1.837875e+001
8.330050e+002,1.767264e+001
8.339692e+002,1.565616e+001
8.349335e+002,1.341510e+001
8.358977e+002,1.209760e+001
8.368619e+002,1.188925e+001
8.378262e+002,1.196017e+001
8.387904e+002,1.212970e+001
8.397546e+002,1.246832e+001
8.407189e+002,1.305148e+001
8.416831e+002,1.384277e+001
8.426473e+002,1.502621e+001
8.436116e+002,1.694974e+001
8.445758e+002,1.822662e+001
8.455400e+002,1.619119e+001
8.465043e+002,1.295685e+001
8.474685e+002,1.111346e+001
8.484327e+002,1.150818e+001
8.493970e+002,1.335297e+001
8.503612e+002,1.514322e+001
8.513254e+002,1.680463e+001
8.522897e+002,1.831979e+001
8.532539e+002,1.986526e+001
8.542181e+002,2.085474e+001
8.551824e+002,2.093845e+001
8.561466e+002,2.039752e+001
8.571108e+002,2.011163e+001
8.580751e+002,1.954553e+001
8.590393e+002,1.937888e+001
8.600035e+002,2.054910e+001
8.609678e+002,2.214969e+001
8.619320e+002,2.312030e+001
8.628962e+002,2.301724e+001
8.638605e+002,2.233582e+001
8.648247e+002,2.162061e+001
8.657889e+002,2.094400e+001
8.667532e+002,2.064798e+001
8.677174e+002,2.077606e+001
8.686816e+002,2.090952e+001
8.696459e+002,2.051642e+001
8.706101e+002,1.951050e+001
8.715743e+002,1.939777e+001
8.725386e+002,2.086707e+001
8.735028e+002,2.229276e+001
8.744670e+002,2.319919e+001
8.754313e+002,2.355975e+001
8.763955e+002,2.351199e+001
8.773597e+002,2.311606e+001
8.783240e+002,2.259445e+001
8.792882e+002,2.106409e+001
8.802524e+002,1.998325e+001
8.812167e+002,2.142044e+001
8.821809e+002,2.524982e+001
8.831451e+002,2.917896e+001
8.841094e+002,3.017438e+001
8.850736e+002,2.849756e+001
8.860378e+002,2.858121e+001
8.870021e+002,3.082736e+001
8.879663e+002,3.279025e+001
8.889305e+002,3.284805e+001
8.898948e+002,3.132095e+001
8.908590e+002,3.014795e+001
8.918232e+002,2.980096e+001
8.927875e+002,2.955649e+001
8.937517e+002,2.854282e+001
8.947159e+002,2.805444e+001
8.956802e+002,2.972552e+001
8.966444e+002,3.340588e+001
8.976086e+002,3.649332e+001
8.985729e+002,3.606851e+001
8.995371e+002,3.400073e+001
9.005013e+002,3.347925e+001
9.014656e+002,3.439325e+001
9.024298e+002,3.533118e+001
9.033940e+002,3.510150e+001
9.043583e+002,3.375433e+001
9.053225e+002,3.280078e+001
9.062867e+002,3.279575e+001
9.072510e+002,3.220898e+001
9.082152e+002,3.013284e+001
9.091794e+002,2.843469e+001
9.101437e+002,2.937067e+001
9.111079e+002,3.331015e+001
9.120721e+002,3.701172e+001
9.130364e+002,3.960986e+001
9.140006e+002,3.999194e+001
9.149648e+002,3.529776e+001
9.159291e+002,2.825177e+001
9.168933e+002,2.439673e+001
9.178575e+002,2.745251e+001
9.188218e+002,3.470032e+001
9.197860e+002,3.670621e+001
9.207502e+002,3.326984e+001
9.217145e+002,3.123099e+001
9.226787e+002,3.280093e+001
9.236429e+002,3.579510e+001
9.246072e+002,3.727325e+001
9.255714e+002,3.699091e+001
9.265356e+002,3.576279e+001
9.274999e+002,3.235690e+001
9.284641e+002,2.937131e+001
9.294283e+002,2.765729e+001
9.303926e+002,2.715680e+001
9.313568e+002,2.768887e+001
9.323210e+002,2.921024e+001
9.332853e+002,3.098611e+001
9.342495e+002,3.209988e+001
9.352137e+002,3.256522e+001
9.361780e+002,3.231732e+001
9.371422e+002,3.148160e+001
9.381064e+002,3.018262e+001
9.390707e+002,2.826718e+001
9.400349e+002,2.524164e+001
9.409991e+002,2.372681e+001
9.419634e+002,2.446970e+001
9.429276e+002,2.543716e+001
9.438918e+002,2.651892e+001
9.448561e+002,2.743414e+001
9.458203e+002,2.758301e+001
9.467845e+002,2.664050e+001
9.477488e+002,2.603967e+001
9.487130e+002,2.781357e+001
9.496772e+002,2.962537e+001
9.506415e+002,2.922949e+001
9.516057e+002,2.681824e+001
9.525699e+002,2.423441e+001
9.535342e+002,2.325745e+001
9.544984e+002,2.359415e+001
9.554626e+002,2.315680e+001
9.564269e+002,2.173218e+001
9.573911e+002,2.158722e+001
9.583553e+002,2.433990e+001
9.593196e+002,2.817535e+001
9.602838e+002,2.998801e+001
9.612480e+002,2.912427e+001
9.622123e+002,2.823572e+001
9.631765e+002,2.882825e+001
9.641407e+002,2.896893e+001
9.651050e+002,2.692056e+001
9.660692e+002,2.366095e+001
9.670334e+002,2.159192e+001
9.679977e+002,2.233374e+001
9.689619e+002,2.447632e+001
9.699261e+002,2.427393e+001
9.708904e+002,2.252985e+001
9.718546e+002,2.219113e+001
9.728188e+002,2.405557e+001
9.737831e+002,2.651266e+001
9.747473e+002,2.726572e+001
9.757115e+002,2.581403e+001
9.766758e+002,2.573526e+001
9.776400e+002,2.971945e+001
9.786042e+002,3.208179e+001
9.795685e+002,3.013824e+001
9.805327e+002,2.613293e+001
9.814969e+002,2.319086e+001
9.824612e+002,2.246057e+001
9.834254e+002,2.275229e+001
9.843896e+002,2.379031e+001
9.853539e+002,2.432977e+001
9.863181e+002,2.213010e+001
9.872823e+002,1.769125e+001
9.882466e+002,1.415720e+001
9.892108e+002,1.442230e+001
9.901750e+002,1.804868e+001
9.911393e+002,2.010355e+001
9.921035e+002,1.856924e+001
9.930677e+002,1.770847e+001
9.940320e+002,1.797699e+001
9.949962e+002,1.907278e+001
9.959604e+002,2.103012e+001
9.969247e+002,2.379788e+001
9.978889e+002,2.628101e+001
9.988531e+002,2.763861e+001
9.998174e+002,2.839984e+001
1.000782e+003,2.925742e+001
1.001746e+003,2.995947e+001
1.002710e+003,2.984515e+001
1.003674e+003,2.870218e+001
1.004639e+003,2.719675e+001
1.005603e+003,2.655066e+001
1.006567e+003,2.679947e+001
1.007531e+003,2.650360e+001
1.008495e+003,2.505313e+001
1.009460e+003,2.431116e+001
1.010424e+003,2.628711e+001
1.011388e+003,3.008871e+001
1.012352e+003,3.172437e+001
1.013317e+003,2.948398e+001
1.014281e+003,2.730817e+001
1.015245e+003,2.667239e+001
1.016209e+003,2.618939e+001
1.017174e+003,2.497742e+001
1.018138e+003,2.295996e+001
1.019102e+003,2.041797e+001
1.020066e+003,1.749591e+001
1.021031e+003,1.474533e+001
1.021995e+003,1.348456e+001
1.022959e+003,1.331030e+001
1.023923e+003,1.388510e+001
1.024887e+003,1.560837e+001
1.025852e+003,1.707483e+001
1.026816e+003,1.570071e+001
1.027780e+003,1.071289e+001
1.028744e+003,7.209259e+000
1.029709e+003,5.643188e+000
1.030673e+003,5.409546e+000
1.031637e+003,7.430237e+000
1.032601e+003,1.015128e+001
1.033566e+003,1.146201e+001
1.034530e+003,1.070587e+001
1.035494e+003,9.436249e+000
1.036458e+003,9.070648e+000
1.037422e+003,9.364380e+000
1.038387e+003,1.010233e+001
1.039351e+003,1.115396e+001
1.040315e+003,1.209143e+001
1.041279e+003,1.267487e+001
1.042244e+003,1.298801e+001
1.043208e+003,1.312799e+001
1.044172e+003,1.342148e+001
1.045136e+003,1.246725e+001
1.046101e+003,8.843903e+000
1.047065e+003,5.598328e+000
1.048029e+003,4.514923e+000
1.048993e+003,5.481903e+000
1.049958e+003,7.828033e+000
1.050922e+003,1.199551e+001
1.051886e+003,1.583606e+001
1.052850e+003,1.685352e+001
1.053814e+003,1.638617e+001
1.054779e+003,1.616312e+001
1.055743e+003,1.647702e+001
1.056707e+003,1.621951e+001
1.057671e+003,1.394357e+001
1.058636e+003,9.594391e+000
1.059600e+003,7.376434e+000
1.060564e+003,9.449127e+000
1.061528e+003,1.081808e+001
1.062493e+003,9.813812e+000
1.063457e+003,8.153961e+000
1.064421e+003,7.941833e+000
1.065385e+003,9.464203e+000
1.066349e+003,1.111880e+001
1.067314e+003,1.229810e+001
1.068278e+003,1.313770e+001
1.069242e+003,1.356604e+001
1.070206e+003,1.390485e+001
1.071171e+003,1.472491e+001
1.072135e+003,1.609888e+001
1.073099e+003,1.730301e+001
1.074063e+003,1.723718e+001
1.075028e+003,1.584525e+001
1.075992e+003,1.440143e+001
1.076956e+003,1.265128e+001
1.077920e+003,1.098282e+001
1.078885e+003,9.462830e+000
1.079849e+003,8.365936e+000
1.080813e+003,8.155792e+000
1.081777e+003,9.019653e+000
1.082741e+003,1.022006e+001
1.083706e+003,1.188339e+001
1.084670e+003,1.298911e+001
1.085634e+003,1.267560e+001
1.086598e+003,1.138885e+001
1.087563e+003,9.999573e+000
1.088527e+003,9.101990e+000
1.089491e+003,8.751434e+000
1.090455e+003,8.899323e+000
1.091420e+003,9.481812e+000
1.092384e+003,9.248077e+000
1.093348e+003,7.324005e+000
1.094312e+003,5.914368e+000
1.095276e+003,6.815826e+000
1.096241e+003,9.398041e+000
1.097205e+003,1.165341e+001
1.098169e+003,1.367249e+001
1.099133e+003,1.399670e+001
1.100098e+003,1.011588e+001
1.101062e+003,6.478516e+000
1.102026e+003,6.347168e+000
1.102990e+003,8.828918e+000
1.103955e+003,1.125275e+001
1.104919e+003,1.194290e+001
1.105883e+003,1.133868e+001
1.106847e+003,1.022601e+001
1.107812e+003,8.610870e+000
1.108776e+003,8.104126e+000
1.109740e+003,9.364685e+000
1.110704e+003,1.051248e+001
1.111668e+003,9.842163e+000
1.112633e+003,8.053986e+000
1.113597e+003,7.911896e+000
1.114561e+003,1.028470e+001
1.115525e+003,1.254636e+001
1.116490e+003,1.439499e+001
1.117454e+003,1.538269e+001
1.118418e+003,1.474857e+001
1.119382e+003,1.321869e+001
1.120347e+003,1.232785e+001
1.121311e+003,1.287628e+001
1.122275e+003,1.382410e+001
1.123239e+003,1.333862e+001
1.124203e+003,1.180222e+001
1.125168e+003,1.131787e+001
1.126132e+003,1.223398e+001
1.127096e+003,1.384033e+001
1.128060e+003,1.604538e+001
1.129025e+003,1.846759e+001
1.129989e+003,1.935626e+001
1.130953e+003,1.765704e+001
1.131917e+003,1.637869e+001
1.132882e+003,1.698444e+001
1.133846e+003,1.771722e+001
1.134810e+003,1.726431e+001
1.135774e+003,1.607376e+001
1.136739e+003,1.537146e+001
1.137703e+003,1.583548e+001
1.138667e+003,1.704065e+001
1.139631e+003,1.827328e+001
1.140595e+003,1.960730e+001
1.141560e+003,2.180933e+001
1.142524e+003,2.523840e+001
1.143488e+003,2.886569e+001
1.144452e+003,3.182968e+001
1.145417e+003,3.436456e+001
1.146381e+003,3.725674e+001
1.147345e+003,4.020508e+001
1.148309e+003,4.426337e+001
1.149274e+003,5.084085e+001
1.150238e+003,5.747485e+001
1.151202e+003,6.325397e+001
1.152166e+003,6.819333e+001
1.153130e+003,7.253561e+001
1.154095e+003,7.625232e+001
1.155059e+003,7.889767e+001
1.156023e+003,7.996777e+001
1.156987e+003,7.968854e+001
1.157952e+003,7.964294e+001
1.158916e+003,8.040265e+001
1.159880e+003,8.000040e+001
1.160844e+003,7.690454e+001
1.161809e+003,7.154962e+001
1.162773e+003,6.501279e+001
1.163737e+003,5.686658e+001
1.164701e+003,4.964240e+001
1.165666e+003,4.413162e+001
1.166630e+003,3.978183e+001
1.167594e+003,3.692557e+001
1.168558e+003,3.485895e+001
1.169522e+003,3.244147e+001
1.170487e+003,2.953033e+001
1.171451e+003,2.762509e+001
1.172415e+003,2.861877e+001
1.173379e+003,3.168887e+001
1.174344e+003,3.266071e+001
1.175308e+003,3.161069e+001
1.176272e+003,3.007150e+001
1.177236e+003,2.818060e+001
1.178201e+003,2.641556e+001
1.179165e+003,2.535385e+001
1.180129e+003,2.488400e+001
1.181093e+003,2.426468e+001
1.182057e+003,2.301895e+001
1.183022e+003,2.231866e+001
1.183986e+003,2.352441e+001
1.184950e+003,2.479639e+001
1.185914e+003,2.379184e+001
1.186879e+003,2.089975e+001
1.187843e+003,1.881131e+001
1.188807e+003,1.968658e+001
1.189771e+003,2.254770e+001
1.190736e+003,2.496259e+001
1.191700e+003,2.699796e+001
1.192664e+003,2.719177e+001
1.193628e+003,2.417468e+001
1.194593e+003,2.111752e+001
1.195557e+003,2.057303e+001
1.196521e+003,2.177280e+001
1.197485e+003,2.201059e+001
1.198449e+003,2.061749e+001
1.199414e+003,1.921732e+001
1.200378e+003,1.836282e+001
1.201342e+003,1.792706e+001
1.202306e+003,1.817245e+001
1.203271e+003,1.863040e+001
1.204235e+003,1.841144e+001
1.205199e+003,1.716522e+001
1.206163e+003,1.553625e+001
1.207128e+003,1.453381e+001
1.208092e+003,1.420178e+001
1.209056e+003,1.434622e+001
1.210020e+003,1.570370e+001
1.210984e+003,1.606702e+001
1.211949e+003,1.416678e+001
1.212913e+003,1.126199e+001
1.213877e+003,8.752533e+000
1.214841e+003,6.830048e+000
1.215806e+003,6.020996e+000
1.216770e+003,7.647217e+000
1.217734e+003,8.539093e+000
1.218698e+003,5.530762e+000
1.219663e+003,1.126587e+000
1.220627e+003,-1.624939e+000
1.221591e+003,-2.178284e+000
1.222555e+003,-1.814453e+000
1.223520e+003,-1.673859e+000
1.224484e+003,-1.578766e+000
1.225448e+003,-9.667969e-001
1.226412e+003,5.830994e-001
1.227376e+003,1.592865e+000
1.228341e+003,1.917786e+000
1.229305e+003,1.780762e+000
1.230269e+003,1.106140e+000
1.231233e+003,8.926392e-002
1.232198e+003,-9.532471e-001
1.233162e+003,-1.892731e+000
1.234126e+003,-2.354950e+000
1.235090e+003,-1.791748e+000
1.236055e+003,-1.095520e+000
1.237019e+003,-1.710449e+000
1.237983e+003,-2.982147e+000
1.238947e+003,-2.682892e+000
1.239911e+003,1.594238e-001
1.240876e+003,3.498322e+000
1.241840e+003,4.097107e+000
1.242804e+003,1.784180e+000
1.243768e+003,1.347046e-001
1.244733e+003,-8.829956e-001
1.245697e+003,-1.044983e+000
1.246661e+003,4.396057e-001
1.247625e+003,1.801239e+000
1.248590e+003,1.625763e+000
1.249554e+003,3.469849e-001
1.250518e+003,-6.343079e-001
1.251482e+003,-7.684937e-001
1.252447e+003,-6.786499e-001
1.253411e+003,-1.123474e+000
1.254375e+003,-1.605164e+000
1.255339e+003,-1.082092e+000
1.256303e+003,5.107422e-001
1.257268e+003,2.208771e+000
1.258232e+003,3.544006e+000
1.259196e+003,4.182007e+000
1.260160e+003,3.154053e+000
1.261125e+003,-2.194214e-002
1.262089e+003,-8.886414e-001
1.263053e+003,3.832184e+000
1.264017e+003,7.070129e+000
1.264982e+003,5.582977e+000
1.265946e+003,3.182281e+000
1.266910e+003,4.124725e+000
1.267874e+003,7.934387e+000
1.268839e+003,1.066187e+001
1.269803e+003,9.684937e+000
1.270767e+003,6.747742e+000
1.271731e+003,5.102020e+000
1.272695e+003,4.819855e+000
1.273660e+003,4.504059e+000
1.274624e+003,3.821747e+000
1.275588e+003,3.237823e+000
1.276552e+003,3.383087e+000
1.277517e+003,3.898254e+000
1.278481e+003,3.762024e+000
1.279445e+003,2.786774e+000
1.280409e+003,2.395233e+000
1.281374e+003,3.879456e+000
1.282338e+003,4.935852e+000
1.283302e+003,3.442566e+000
1.284266e+003,1.432800e+000
1.285230e+003,1.594788e+000
1.286195e+003,3.920441e+000
1.287159e+003,6.246277e+000
1.288123e+003,6.857605e+000
1.289087e+003,6.173462e+000
1.290052e+003,5.113861e+000
1.291016e+003,3.225891e+000
1.291980e+003,2.224670e+000
1.292944e+003,2.839142e+000
1.293909e+003,3.041870e+000
1.294873e+003,1.829742e+000
1.295837e+003,1.322021e-001
1.296801e+003,-8.497314e-001
1.297766e+003,-9.559937e-001
1.298730e+003,-7.323914e-001
1.299694e+003,-4.769897e-001
1.300658e+003,-1.943359e-001
1.301622e+003,2.632446e-001
1.302587e+003,8.229675e-001
1.303551e+003,1.427399e+000
1.304515e+003,2.063660e+000
1.305479e+003,2.318695e+000
1.306444e+003,1.697540e+000
1.307408e+003,4.413147e-001
1.308372e+003,-4.101868e-001
1.309336e+003,-7.840576e-001
1.310301e+003,-1.000031e+000
1.311265e+003,-1.002686e+000
1.312229e+003,-7.689209e-001
1.313193e+003,-1.739502e-002
1.314157e+003,7.266235e-001
1.315122e+003,7.027283e-001
1.316086e+003,-7.598877e-003
1.317050e+003,-3.657532e-001
1.318014e+003,4.341431e-001
1.318979e+003,1.489990e+000
1.319943e+003,8.384399e-001
1.320907e+003,-1.193573e+000
1.321871e+003,-2.132233e+000
1.322836e+003,-1.855316e+000
1.323800e+003,-1.319763e+000
1.324764e+003,-1.131104e+000
1.325728e+003,-8.875732e-001
1.326693e+003,3.760681e-001
1.327657e+003,2.630615e+000
1.328621e+003,3.627472e+000
1.329585e+003,2.401093e+000
1.330549e+003,1.316467e+000
1.331514e+003,1.634338e+000
1.332478e+003,1.993439e+000
1.333442e+003,7.708740e-001
1.334406e+003,-1.511566e+000
1.335371e+003,-2.765686e+000
1.336335e+003,-1.772827e+000
1.337299e+003,2.699585e-001
1.338263e+003,1.038544e+000
1.339228e+003,3.985901e-001
1.340192e+003,-2.065430e-001
1.341156e+003,-1.671753e+000
1.342120e+003,-1.828735e+000
1.343084e+003,7.304077e-001
1.344049e+003,3.453430e+000
1.345013e+003,4.503601e+000
1.345977e+003,4.076233e+000
1.346941e+003,2.711975e+000
1.347906e+003,4.727478e-001
1.348870e+003,-7.813110e-001
1.349834e+003,1.496704e+000
1.350798e+003,5.122284e+000
1.351763e+003,5.919891e+000
1.352727e+003,4.329803e+000
1.353691e+003,2.787842e+000
1.354655e+003,2.135437e+000
1.355620e+003,2.010529e+000
1.356584e+003,2.352661e+000
1.357548e+003,3.059204e+000
1.358512e+003,2.568420e+000
1.359476e+003,3.051758e-004
1.360441e+003,-2.132935e+000
1.361405e+003,-3.292114e+000
1.362369e+003,-3.625031e+000
1.363333e+003,-2.950592e+000
1.364298e+003,-1.589417e+000
1.365262e+003,4.097290e-001
1.366226e+003,2.746582e+000
1.367190e+003,4.533936e+000
1.368155e+003,4.980591e+000
1.369119e+003,4.331055e+000
1.370083e+003,3.358215e+000
1.371047e+003,2.090546e+000
1.372011e+003,6.094666e-001
1.372976e+003,-2.378540e+000
1.373940e+003,-4.217865e+000
1.374904e+003,-3.175262e+000
1.375868e+003,-8.139954e-001
1.376833e+003,1.283875e+000
1.377797e+003,2.729248e+000
1.378761e+003,2.667419e+000
1.379725e+003,2.204590e-001
1.380690e+003,-2.021576e+000
1.381654e+003,-5.229187e-001
1.382618e+003,2.498047e+000
1.383582e+003,4.056793e+000
1.384547e+003,4.052307e+000
1.385511e+003,3.405334e+000
1.386475e+003,2.291992e+000
1.387439e+003,1.454376e+000
1.388403e+003,2.456970e+000
1.389368e+003,5.274109e+000
1.390332e+003,6.878448e+000
1.391296e+003,6.926331e+000
1.392260e+003,6.458557e+000
1.393225e+003,5.528412e+000
1.394189e+003,4.350952e+000
1.395153e+003,2.521149e+000
1.396117e+003,7.654114e-001
1.397082e+003,1.556702e-001
1.398046e+003,9.649963e-001
1.399010e+003,2.783630e+000
1.399974e+003,5.202179e+000
1.400938e+003,7.499268e+000
1.401903e+003,7.775970e+000
1.402867e+003,5.728638e+000
1.403831e+003,4.850037e+000
1.404795e+003,5.574493e+000
1.405760e+003,6.415100e+000
1.406724e+003,6.956909e+000
1.407688e+003,6.763458e+000
1.408652e+003,4.943420e+000
1.409617e+003,2.179443e+000
1.410581e+003,1.285553e+000
1.411545e+003,3.614197e+000
1.412509e+003,6.724426e+000
1.413474e+003,8.710083e+000
1.414438e+003,9.361389e+000
1.415402e+003,8.369659e+000
1.416366e+003,6.119843e+000
1.417330e+003,3.919678e+000
1.418295e+003,2.166321e+000
1.419259e+003,1.064636e+000
1.420223e+003,9.149170e-001
1.421187e+003,1.516754e+000
1.422152e+003,2.217285e+000
1.423116e+003,3.139282e+000
1.424080e+003,4.304230e+000
1.425044e+003,6.181030e+000
1.426009e+003,7.459930e+000
1.426973e+003,6.992188e+000
1.427937e+003,5.959656e+000
1.428901e+003,6.010529e+000
1.429865e+003,7.163025e+000
1.430830e+003,8.015106e+000
1.431794e+003,7.581451e+000
1.432758e+003,6.610718e+000
1.433722e+003,6.888947e+000
1.434687e+003,8.871307e+000
1.435651e+003,9.217163e+000
1.436615e+003,5.257446e+000
1.437579e+003,2.587158e+000
1.438544e+003,2.351410e+000
1.439508e+003,3.015045e+000
1.440472e+003,4.071472e+000
1.441436e+003,5.276825e+000
1.442401e+003,6.312103e+000
1.443365e+003,7.028564e+000
1.444329e+003,7.194641e+000
1.445293e+003,6.466827e+000
1.446257e+003,5.779205e+000
1.447222e+003,7.380096e+000
1.448186e+003,1.064886e+001
1.449150e+003,1.214203e+001
1.450114e+003,1.127911e+001
1.451079e+003,9.621063e+000
1.452043e+003,7.301910e+000
1.453007e+003,5.295898e+000
1.453971e+003,5.336884e+000
1.454936e+003,7.005493e+000
1.455900e+003,7.314850e+000
1.456864e+003,5.174011e+000
1.457828e+003,3.617920e+000
1.458792e+003,5.008514e+000
1.459757e+003,6.962128e+000
1.460721e+003,7.667236e+000
1.461685e+003,7.403778e+000
1.462649e+003,6.738220e+000
1.463614e+003,5.993591e+000
1.464578e+003,5.846497e+000
1.465542e+003,6.952057e+000
1.466506e+003,8.756134e+000
1.467471e+003,9.900177e+000
1.468435e+003,1.059348e+001
1.469399e+003,1.052036e+001
1.470363e+003,8.600830e+000
1.471328e+003,7.011810e+000
1.472292e+003,6.184814e+000
1.473256e+003,5.577728e+000
1.474220e+003,4.823547e+000
1.475184e+003,4.307678e+000
1.476149e+003,4.691284e+000
1.477113e+003,6.012573e+000
1.478077e+003,7.637146e+000
1.479041e+003,9.075867e+000
1.480006e+003,1.053683e+001
1.480970e+003,1.248373e+001
1.481934e+003,1.554086e+001
1.482898e+003,1.538339e+001
1.483863e+003,8.410126e+000
1.484827e+003,3.587067e+000
1.485791e+003,4.932587e+000
1.486755e+003,8.225311e+000
1.487719e+003,9.673615e+000
1.488684e+003,9.509125e+000
1.489648e+003,9.704041e+000
1.490612e+003,1.095544e+001
1.491576e+003,1.223892e+001
1.492541e+003,1.260858e+001
1.493505e+003,1.244974e+001
1.494469e+003,1.259485e+001
1.495433e+003,1.284042e+001
1.496398e+003,1.291705e+001
1.497362e+003,1.276950e+001
1.498326e+003,1.338956e+001
1.499290e+003,1.563977e+001
1.500255e+003,1.864325e+001
1.501219e+003,2.131656e+001
1.502183e+003,2.359097e+001
1.503147e+003,2.552380e+001
1.504111e+003,2.707138e+001
1.505076e+003,2.852505e+001
1.506040e+003,2.958975e+001
1.507004e+003,3.122504e+001
1.507968e+003,3.447919e+001
1.508933e+003,3.888388e+001
1.509897e+003,4.341833e+001
1.510861e+003,4.812201e+001
1.511825e+003,5.409195e+001
1.512790e+003,6.242303e+001
1.513754e+003,7.134445e+001
1.514718e+003,7.752823e+001
1.515682e+003,8.087369e+001
1.516646e+003,8.402469e+001
1.517611e+003,8.708881e+001
1.518575e+003,9.067355e+001
1.519539e+003,9.644189e+001
1.520503e+003,1.015042e+002
1.521468e+003,1.039779e+002
1.522432e+003,1.048134e+002
1.523396e+003,1.053769e+002
1.524360e+003,1.058928e+002
1.525325e+003,1.061374e+002
1.526289e+003,1.059987e+002
1.527253e+003,1.045680e+002
1.528217e+003,9.989606e+001
1.529182e+003,9.204123e+001
1.530146e+003,8.529807e+001
1.531110e+003,8.032123e+001
1.532074e+003,7.502383e+001
1.533039e+003,6.976218e+001
1.534003e+003,6.290735e+001
1.534967e+003,5.241360e+001
1.535931e+003,4.144528e+001
1.536896e+003,3.319748e+001
1.537860e+003,2.801633e+001
1.538824e+003,2.490585e+001
1.539788e+003,2.316229e+001
1.540752e+003,2.206494e+001
1.541717e+003,2.087939e+001
1.542681e+003,1.957425e+001
1.543645e+003,1.744571e+001
1.544609e+003,1.386929e+001
1.545573e+003,1.157965e+001
1.546538e+003,1.032132e+001
1.547502e+003,1.016418e+001
1.548466e+003,1.220880e+001
1.549430e+003,1.490497e+001
1.550395e+003,1.684387e+001
1.551359e+003,1.778568e+001
1.552323e+003,1.760175e+001
1.553287e+003,1.637488e+001
1.554252e+003,1.534650e+001
1.555216e+003,1.574234e+001
1.556180e+003,1.660550e+001
1.557144e+003,1.550739e+001
1.558109e+003,1.243188e+001
1.559073e+003,1.036407e+001
1.560037e+003,9.732300e+000
1.561001e+003,8.803833e+000
1.561966e+003,6.503601e+000
1.562930e+003,4.575226e+000
1.563894e+003,4.682648e+000
1.564858e+003,6.221252e+000
1.565823e+003,7.939117e+000
1.566787e+003,9.497772e+000
1.567751e+003,1.042126e+001
1.568715e+003,1.040408e+001
1.569679e+003,9.930786e+000
1.570644e+003,9.101379e+000
1.571608e+003,8.269836e+000
1.572572e+003,9.220154e+000
1.573536e+003,1.217865e+001
1.574500e+003,1.350565e+001
1.575465e+003,1.085864e+001
1.576429e+003,7.931976e+000
1.577393e+003,8.048065e+000
1.578357e+003,9.712891e+000
1.579322e+003,9.940308e+000
1.580286e+003,8.710693e+000
1.581250e+003,8.235687e+000
1.582214e+003,9.426147e+000
1.583179e+003,1.054572e+001
1.584143e+003,1.002444e+001
1.585107e+003,8.831970e+000
1.586071e+003,8.257599e+000
1.587036e+003,8.463409e+000
1.588000e+003,9.678772e+000
1.588964e+003,1.193628e+001
1.589928e+003,1.359296e+001
1.590893e+003,1.338208e+001
1.591857e+003,1.219446e+001
1.592821e+003,1.088312e+001
1.593785e+003,9.713409e+000
1.594750e+003,1.045700e+001
1.595714e+003,1.370105e+001
1.596678e+003,1.590549e+001
1.597642e+003,1.526395e+001
1.598606e+003,1.375903e+001
1.599571e+003,1.190717e+001
1.600535e+003,1.090598e+001
1.601499e+003,1.322095e+001
1.602463e+003,1.812183e+001
1.603427e+003,2.181287e+001
1.604392e+003,2.286218e+001
1.605356e+003,2.168707e+001
1.606320e+003,1.714838e+001
1.607284e+003,1.123773e+001
1.608249e+003,1.036026e+001
1.609213e+003,1.473676e+001
1.610177e+003,1.732196e+001
1.611141e+003,1.634937e+001
1.612106e+003,1.506836e+001
1.613070e+003,1.481094e+001
1.614034e+003,1.500018e+001
1.614998e+003,1.563568e+001
1.615963e+003,1.628445e+001
1.616927e+003,1.606439e+001
1.617891e+003,1.492984e+001
1.618855e+003,1.374765e+001
1.619820e+003,1.292581e+001
1.620784e+003,1.233759e+001
1.621748e+003,1.217767e+001
1.622712e+003,1.257501e+001
1.623677e+003,1.293997e+001
1.624641e+003,1.324121e+001
1.625605e+003,1.381021e+001
1.626569e+003,1.456528e+001
1.627533e+003,1.503549e+001
1.628498e+003,1.512589e+001
1.629462e+003,1.510623e+001
1.630426e+003,1.532648e+001
1.631390e+003,1.550330e+001
1.632354e+003,1.474411e+001
1.633319e+003,1.299475e+001
1.634283e+003,1.179517e+001
1.635247e+003,1.228864e+001
1.636211e+003,1.385901e+001
1.637176e+003,1.600681e+001
1.638140e+003,1.864822e+001
1.639104e+003,1.922668e+001
1.640068e+003,1.701361e+001
1.641033e+003,1.492371e+001
1.641997e+003,1.324475e+001
1.642961e+003,1.262256e+001
1.643925e+003,1.465240e+001
1.644890e+003,1.673215e+001
1.645854e+003,1.514050e+001
1.646818e+003,1.150446e+001
1.647782e+003,1.095288e+001
1.648747e+003,1.483084e+001
1.649711e+003,1.881503e+001
1.650675e+003,1.949884e+001
1.651639e+003,1.800201e+001
1.652604e+003,1.569684e+001
1.653568e+003,1.260165e+001
1.654532e+003,1.252982e+001
1.655496e+003,1.718546e+001
1.656460e+003,1.936810e+001
1.657425e+003,1.477588e+001
1.658389e+003,1.044376e+001
1.659353e+003,1.056140e+001
1.660317e+003,1.251385e+001
1.661281e+003,1.431708e+001
1.662246e+003,1.526218e+001
1.663210e+003,1.400394e+001
1.664174e+003,1.028647e+001
1.665138e+003,7.004395e+000
1.666103e+003,6.637085e+000
1.667067e+003,7.982056e+000
1.668031e+003,9.032623e+000
1.668995e+003,9.783630e+000
1.669960e+003,9.438141e+000
1.670924e+003,7.552094e+000
1.671888e+003,6.432861e+000
1.672852e+003,7.194153e+000
1.673817e+003,8.134094e+000
1.674781e+003,7.857483e+000
1.675745e+003,7.381042e+000
1.676709e+003,7.944336e+000
1.677674e+003,9.298370e+000
1.678638e+003,1.057474e+001
1.679602e+003,1.148944e+001
1.680566e+003,1.166342e+001
1.681531e+003,1.069669e+001
1.682495e+003,9.162079e+000
1.683459e+003,7.637726e+000
1.684423e+003,6.134064e+000
1.685387e+003,5.475342e+000
1.686352e+003,5.941437e+000
1.687316e+003,5.850952e+000
1.688280e+003,3.881256e+000
1.689244e+003,2.709320e+000
1.690208e+003,5.483734e+000
1.691173e+003,9.235413e+000
1.692137e+003,1.091922e+001
1.693101e+003,1.091177e+001
1.694065e+003,1.035849e+001
1.695030e+003,9.359222e+000
1.695994e+003,8.449615e+000
1.696958e+003,7.966858e+000
1.697922e+003,7.907379e+000
1.698887e+003,8.574951e+000
1.699851e+003,9.649841e+000
1.700815e+003,1.002350e+001
1.701779e+003,9.529816e+000
1.702744e+003,8.447144e+000
1.703708e+003,6.812866e+000
1.704672e+003,5.516113e+000
1.705636e+003,4.997589e+000
1.706601e+003,4.969055e+000
1.707565e+003,5.603760e+000
1.708529e+003,6.661713e+000
1.709493e+003,6.839813e+000
1.710458e+003,5.831116e+000
1.711422e+003,5.226288e+000
1.712386e+003,6.472015e+000
1.713350e+003,7.637054e+000
1.714314e+003,6.699585e+000
1.715279e+003,4.666931e+000
1.716243e+003,3.017883e+000
1.717207e+003,2.039917e+000
1.718171e+003,2.496521e+000
1.719135e+003,4.624573e+000
1.720100e+003,6.226257e+000
1.721064e+003,5.730042e+000
1.722028e+003,4.012268e+000
1.722992e+003,2.035065e+000
1.723957e+003,2.293091e-001
1.724921e+003,3.110352e-001
1.725885e+003,2.370117e+000
1.726849e+003,3.875641e+000
1.727814e+003,4.487854e+000
1.728778e+003,4.978149e+000
1.729742e+003,5.856964e+000
1.730706e+003,6.491974e+000
1.731671e+003,5.916595e+000
1.732635e+003,4.449860e+000
1.733599e+003,3.026184e+000
1.734563e+003,2.046936e+000
1.735528e+003,1.739410e+000
1.736492e+003,2.142151e+000
1.737456e+003,2.211243e+000
1.738420e+003,5.047607e-001
1.739385e+003,-2.140198e+000
1.740349e+003,-2.049561e+000
1.741313e+003,1.678894e+000
1.742277e+003,4.124969e+000
1.743241e+003,5.483521e+000
1.744206e+003,5.633301e+000
1.745170e+003,2.855042e+000
1.746134e+003,6.568604e-001
1.747098e+003,1.957275e+000
1.748063e+003,4.115112e+000
1.749027e+003,3.715515e+000
1.749991e+003,1.360870e+000
1.750955e+003,-3.444824e-001
1.751919e+003,-4.929810e-001
1.752884e+003,1.157532e-001
1.753848e+003,8.374329e-001
1.754812e+003,1.431702e+000
1.755776e+003,1.503571e+000
1.756741e+003,1.195190e+000
1.757705e+003,7.843628e-001
1.758669e+003,5.831909e-002
1.759633e+003,-5.153503e-001
1.760598e+003,-1.240723e+000
1.761562e+003,-1.507507e+000
1.762526e+003,-1.792297e-001
1.763490e+003,9.661255e-001
1.764455e+003,-9.161377e-002
1.765419e+003,-1.738068e+000
1.766383e+003,-1.157959e+000
1.767347e+003,1.509369e+000
1.768312e+003,3.864502e+000
1.769276e+003,4.750366e+000
1.770240e+003,4.547119e+000
1.771204e+003,3.616364e+000
1.772168e+003,2.370239e+000
1.773133e+003,1.383026e+000
1.774097e+003,6.328125e-001
1.775061e+003,-4.785156e-002
1.776025e+003,-8.512268e-001
1.776990e+003,-1.482056e+000
1.777954e+003,-1.881256e+000
1.778918e+003,-1.453705e+000
1.779882e+003,1.117584e+000
1.780846e+003,3.759918e+000
1.781811e+003,3.276764e+000
1.782775e+003,7.365417e-001
1.783739e+003,-2.814331e-001
1.784703e+003,9.083557e-001
1.785668e+003,1.983795e+000
1.786632e+003,1.779877e+000
1.787596e+003,1.087524e+000
1.788560e+003,5.522156e-001
1.789525e+003,2.268677e-001
1.790489e+003,-2.352600e-001
1.791453e+003,-6.598816e-001
1.792417e+003,1.107483e-001
1.793382e+003,2.094391e+000
1.794346e+003,2.888214e+000
1.795310e+003,1.098816e+000
1.796274e+003,-1.090820e+000
1.797239e+003,-9.971619e-001
1.798203e+003,6.992493e-001
1.799167e+003,1.196106e+000
1.800131e+003,-9.579468e-002
1.801095e+003,-7.563171e-001
1.802060e+003,1.431580e-001
1.803024e+003,7.167664e-001
1.803988e+003,-4.156494e-002
1.804952e+003,-3.575439e-001
1.805917e+003,1.291870e+000
1.806881e+003,3.196838e+000
1.807845e+003,3.900879e+000
1.808809e+003,3.448578e+000
1.809773e+003,1.797668e+000
1.810738e+003,-5.650024e-001
1.811702e+003,-1.831635e+000
1.812666e+003,-9.137573e-001
1.813630e+003,9.217224e-001
1.814595e+003,2.076813e+000
1.815559e+003,2.549194e+000
1.816523e+003,2.265686e+000
1.817487e+003,1.114868e+000
1.818452e+003,1.094238e+000
1.819416e+003,3.235138e+000
1.820380e+003,4.116364e+000
1.821344e+003,1.464783e+000
1.822309e+003,-1.042419e+000
1.823273e+003,-6.775513e-001
1.824237e+003,6.368713e-001
1.825201e+003,7.462158e-001
1.826166e+003,6.686401e-002
1.827130e+003,3.082581e-001
1.828094e+003,1.662872e+000
1.829058e+003,2.125916e+000
1.830022e+003,5.356445e-001
1.830987e+003,-1.495087e+000
1.831951e+003,-3.211517e+000
1.832915e+003,-4.135101e+000
1.833879e+003,-2.870331e+000
1.834844e+003,-3.273315e-001
1.835808e+003,6.302490e-001
1.836772e+003,-3.104553e-001
1.837736e+003,-1.593842e+000
1.838700e+003,-2.657501e+000
1.839665e+003,-2.948334e+000
1.840629e+003,-1.770599e+000
1.841593e+003,3.239441e-001
1.842557e+003,2.287292e+000
1.843522e+003,4.086639e+000
1.844486e+003,3.815247e+000
1.845450e+003,-8.457947e-001
1.846414e+003,-2.667419e+000
1.847379e+003,8.876038e-001
1.848343e+003,3.273193e+000
1.849307e+003,1.706543e+000
1.850271e+003,-5.782166e-001
1.851236e+003,-1.277618e+000
1.852200e+003,-1.008392e+000
1.853164e+003,-8.357239e-001
1.854128e+003,-1.153442e+000
1.855093e+003,-2.204987e+000
1.856057e+003,-3.805756e+000
1.857021e+003,-4.816132e+000
1.857985e+003,-4.338440e+000
1.858949e+003,-2.996460e+000
1.859914e+003,-1.477356e+000
1.860878e+003,8.370972e-002
1.861842e+003,3.813171e-001
1.862806e+003,-6.912231e-001
1.863771e+003,-4.436340e-001
1.864735e+003,2.082611e+000
1.865699e+003,3.120209e+000
1.866663e+003,3.997192e-001
1.867627e+003,-2.847534e+000
1.868592e+003,-4.404907e+000
1.869556e+003,-4.475006e+000
1.870520e+003,-2.488434e+000
1.871484e+003,1.037140e+000
1.872449e+003,2.551880e+000
1.873413e+003,1.548553e+000
1.874377e+003,9.377136e-001
1.875341e+003,1.201660e+000
1.876306e+003,1.746643e+000
1.877270e+003,2.531769e+000
1.878234e+003,3.107117e+000
1.879198e+003,3.386780e+000
1.880163e+003,3.061646e+000
1.881127e+003,8.134155e-001
1.882091e+003,-2.563019e+000
1.883055e+003,-3.502655e+000
1.884020e+003,-8.248291e-001
1.884984e+003,2.009003e+000
1.885948e+003,1.852112e+000
1.886912e+003,-5.645752e-002
1.887876e+003,-1.358246e+000
1.888841e+003,-2.034698e+000
1.889805e+003,-1.921600e+000
1.890769e+003,-8.744507e-001
1.891733e+003,2.004700e-001
1.892698e+003,1.138031e+000
1.893662e+003,2.037476e+000
1.894626e+003,3.422668e+000
1.895590e+003,4.227783e+000
1.896554e+003,3.347809e+000
1.897519e+003,1.919067e+000
1.898483e+003,9.535828e-001
1.899447e+003,3.988953e-001
1.900411e+003,4.310608e-001
1.901376e+003,1.186493e+000
1.902340e+003,1.614380e+000
1.903304e+003,1.327789e+000
1.904268e+003,5.502014e-001
1.905233e+003,-1.222626e+000
1.906197e+003,-2.705322e+000
1.907161e+003,-2.247070e+000
1.908125e+003,-6.265869e-001
1.909090e+003,7.816162e-001
1.910054e+003,1.600800e+000
1.911018e+003,1.718536e+000
1.911982e+003,1.251648e+000
1.912947e+003,7.157288e-001
1.913911e+003,4.446106e-001
1.914875e+003,4.165955e-001
1.915839e+003,6.046448e-001
1.916803e+003,7.737122e-001
1.917768e+003,1.365967e-001
1.918732e+003,-1.488739e+000
1.919696e+003,-1.880371e+000
1.920660e+003,-1.089783e-001
1.921625e+003,4.716797e-001
1.922589e+003,-2.251648e+000
1.923553e+003,-4.226532e+000
1.924517e+003,-2.145996e+000
1.925481e+003,6.037292e-001
1.926446e+003,5.774841e-001
1.927410e+003,-7.397156e-001
1.928374e+003,1.253967e-001
1.929338e+003,3.034363e+000
1.930303e+003,3.941010e+000
1.931267e+003,1.322754e+000
1.932231e+003,-9.281921e-001
1.933195e+003,-9.847412e-001
1.934160e+003,-5.155029e-001
1.935124e+003,-7.152405e-001
1.936088e+003,-1.176086e+000
1.937052e+003,-1.354218e+000
1.938017e+003,-1.101776e+000
1.938981e+003,-1.990051e-001
1.939945e+003,1.134979e+000
1.940909e+003,2.065979e+000
1.941874e+003,2.195587e+000
1.942838e+003,1.963318e+000
1.943802e+003,1.912842e+000
1.944766e+003,1.878326e+000
1.945730e+003,1.104614e+000
1.946695e+003,-3.479309e-001
1.947659e+003,-1.193909e+000
1.948623e+003,-1.485046e+000
1.949587e+003,-8.375854e-001
1.950552e+003,1.265106e+000
1.951516e+003,2.634399e+000
1.952480e+003,2.212982e+000
1.953444e+003,1.605133e+000
1.954408e+003,2.034241e+000
1.955373e+003,2.595245e+000
1.956337e+003,1.857086e+000
1.957301e+003,4.882202e-001
1.958265e+003,6.395569e-001
1.959230e+003,2.710968e+000
1.960194e+003,3.398193e+000
1.961158e+003,3.479004e-001
1.962122e+003,-1.707397e+000
1.963087e+003,-6.924744e-001
1.964051e+003,6.522522e-001
1.965015e+003,1.017456e+000
1.965979e+003,9.989319e-001
1.966944e+003,1.004913e+000
1.967908e+003,1.013763e+000
1.968872e+003,9.946594e-001
1.969836e+003,9.591370e-001
1.970801e+003,9.272156e-001
1.971765e+003,9.075928e-001
1.972729e+003,6.579590e-001
1.973693e+003,-2.681885e-001
1.974657e+003,-8.735962e-001
1.975622e+003,9.510803e-001
1.976586e+003,3.955811e+000
1.977550e+003,4.728546e+000
1.978514e+003,3.627899e+000
1.979479e+003,2.803345e+000
1.980443e+003,2.543152e+000
1.981407e+003,2.435272e+000
1.982371e+003,2.413574e+000
1.983335e+003,1.860535e+000
1.984300e+003,7.388306e-002
1.985264e+003,-1.830811e+000
1.986228e+003,-1.928436e+000
1.987192e+003,-6.485596e-001
1.988157e+003,-2.184143e-001
1.989121e+003,-7.745667e-001
1.990085e+003,-1.229065e+000
1.991049e+003,-1.976196e+000
1.992014e+003,-1.640686e+000
1.992978e+003,1.198425e+000
1.993942e+003,3.251923e+000
1.994906e+003,3.015900e+000
1.995871e+003,2.024261e+000
1.996835e+003,9.718323e-001
1.997799e+003,2.231750e-001
1.998763e+003,3.869019e-001
1.999728e+003,1.148376e+000
