5.003444e+002,3.563318e+001
5.013087e+002,3.731238e+001
5.022729e+002,3.571790e+001
5.032371e+002,3.206934e+001
5.042014e+002,2.828040e+001
5.051656e+002,2.464404e+001
5.061298e+002,2.254352e+001
5.070941e+002,2.330292e+001
5.080583e+002,2.739984e+001
5.090225e+002,2.981476e+001
5.099868e+002,3.038702e+001
5.109510e+002,3.006146e+001
5.119152e+002,2.882916e+001
5.128795e+002,2.664606e+001
5.138437e+002,2.563922e+001
5.148079e+002,2.926691e+001
5.157722e+002,3.204083e+001
5.167364e+002,3.034784e+001
5.177006e+002,2.436102e+001
5.186649e+002,1.798694e+001
5.196291e+002,1.677234e+001
5.205933e+002,1.866455e+001
5.215576e+002,2.117084e+001
5.225218e+002,2.326941e+001
5.234860e+002,2.412231e+001
5.244503e+002,2.278503e+001
5.254145e+002,1.908020e+001
5.263787e+002,1.712933e+001
5.273430e+002,1.764240e+001
5.283072e+002,1.941162e+001
5.292714e+002,2.064136e+001
5.302357e+002,2.038818e+001
5.311999e+002,1.964197e+001
5.321641e+002,1.979944e+001
5.331284e+002,2.006531e+001
5.340926e+002,1.916760e+001
5.350568e+002,1.622272e+001
5.360211e+002,1.312781e+001
5.369853e+002,1.308771e+001
5.379495e+002,1.410309e+001
5.389138e+002,1.416852e+001
5.398780e+002,1.249280e+001
5.408422e+002,9.867004e+000
5.418065e+002,8.622681e+000
5.427707e+002,8.624207e+000
5.437349e+002,9.628296e+000
5.446992e+002,1.191785e+001
5.456634e+002,1.478827e+001
5.466276e+002,1.596893e+001
5.475919e+002,1.372498e+001
5.485561e+002,1.222980e+001
5.495203e+002,1.168793e+001
5.504846e+002,1.148444e+001
5.514488e+002,1.093256e+001
5.524130e+002,9.980408e+000
5.533773e+002,9.216309e+000
5.543415e+002,9.041321e+000
5.553057e+002,9.108459e+000
5.562700e+002,8.832153e+000
5.572342e+002,7.785034e+000
5.581984e+002,6.408264e+000
5.591627e+002,6.692932e+000
5.601269e+002,8.209473e+000
5.610911e+002,9.251343e+000
5.620554e+002,8.728760e+000
5.630196e+002,6.616882e+000
5.639838e+002,4.753723e+000
5.649481e+002,3.308044e+000
5.659123e+002,1.928650e+000
5.668765e+002,1.405884e+000
5.678408e+002,1.743103e+000
5.688050e+002,1.974060e+000
5.697692e+002,7.098999e-001
5.707335e+002,-9.544678e-001
5.716977e+002,-2.930420e+000
5.726619e+002,-4.548828e+000
5.736262e+002,-4.691345e+000
5.745904e+002,-2.229675e+000
5.755546e+002,9.515991e-001
5.765189e+002,1.261108e+000
5.774831e+002,-6.919556e-001
5.784473e+002,-3.541565e+000
5.794116e+002,-6.094116e+000
5.803758e+002,-7.817383e+000
5.813400e+002,-6.444397e+000
5.823043e+002,-1.558289e+000
5.832685e+002,2.012695e+000
5.842327e+002,2.244629e+000
5.851970e+002,1.969604e-001
5.861612e+002,3.181152e-001
5.871254e+002,5.270142e+000
5.880897e+002,9.355469e+000
5.890539e+002,1.171777e+001
5.900181e+002,1.210657e+001
5.909824e+002,1.011462e+001
5.919466e+002,4.603149e+000
5.929108e+002,-7.424316e-001
5.938751e+002,-1.727417e+000
5.948393e+002,-2.198486e-001
5.958035e+002,8.421631e-001
5.967678e+002,-5.771484e-001
5.977320e+002,-3.608276e+000
5.986962e+002,-2.625732e+000
5.996605e+002,1.689087e+000
6.006247e+002,5.373901e+000
6.015889e+002,6.827637e+000
6.025532e+002,6.195557e+000
6.035174e+002,4.778809e+000
6.044816e+002,4.063721e-001
6.054459e+002,-2.083130e+000
6.064101e+002,-5.520020e-001
6.073743e+002,3.055908e+000
6.083386e+002,5.370850e+000
6.093028e+002,4.719482e+000
6.102670e+002,2.452271e+000
6.112313e+002,-2.127197e+000
6.121955e+002,-6.828857e+000
6.131597e+002,-8.156982e+000
6.141240e+002,-3.854614e+000
6.150882e+002,3.873779e+000
6.160524e+002,5.509155e+000
6.170167e+002,2.444946e+000
6.179809e+002,-9.530029e-001
6.189451e+002,-3.341309e+000
6.199094e+002,-5.007813e+000
6.208736e+002,-5.965332e+000
6.218378e+002,-5.055908e+000
6.228021e+002,-3.352539e+000
6.237663e+002,4.473877e-001
6.247305e+002,4.847534e+000
6.256948e+002,7.088867e+000
6.266590e+002,4.921997e+000
6.276232e+002,1.527710e+000
6.285875e+002,-1.315918e+000
6.295517e+002,-3.048462e+000
6.305159e+002,-2.859619e+000
6.314802e+002,-6.060791e-001
6.324444e+002,2.284790e+000
6.334086e+002,2.445068e+000
6.343729e+002,1.109619e+000
6.353371e+002,-1.313477e-001
6.363013e+002,-9.620361e-001
6.372656e+002,-1.511475e+000
6.382298e+002,-1.694336e+000
6.391940e+002,-6.573486e-001
6.401583e+002,-9.282227e-001
6.411225e+002,-2.423340e+000
6.420867e+002,-4.030518e+000
6.430510e+002,-4.936035e+000
6.440152e+002,-5.392456e+000
6.449794e+002,-5.759521e+000
6.459437e+002,-5.353271e+000
6.469079e+002,-5.446289e+000
6.478721e+002,-7.814819e+000
6.488364e+002,-1.244226e+001
6.498006e+002,-1.645923e+001
6.507648e+002,-1.382300e+001
6.517291e+002,-7.143555e+000
6.526933e+002,-2.075073e+000
6.536575e+002,3.074951e-001
6.546218e+002,5.889893e-001
6.555860e+002,-1.936035e-001
6.565502e+002,-3.380127e+000
6.575145e+002,-4.745850e+000
6.584787e+002,-2.374512e+000
6.594429e+002,1.469727e-001
6.604072e+002,-6.376953e-001
6.613714e+002,-5.617920e+000
6.623356e+002,-9.207031e+000
6.632999e+002,-7.977295e+000
6.642641e+002,-6.161499e+000
6.652283e+002,-5.216064e+000
6.661926e+002,-5.198364e+000
6.671568e+002,-5.437500e+000
6.681210e+002,-5.710815e+000
6.690853e+002,-5.917969e+000
6.700495e+002,-5.148071e+000
6.710137e+002,-3.404541e+000
6.719780e+002,-1.242432e+000
6.729422e+002,8.367920e-001
6.739064e+002,2.913330e+000
6.748707e+002,2.641846e+000
6.758349e+002,-8.310547e-001
6.767991e+002,-5.113647e+000
6.777634e+002,-9.800171e+000
6.787276e+002,-1.408643e+001
6.796918e+002,-1.539441e+001
6.806561e+002,-1.069995e+001
6.816203e+002,-6.062500e+000
6.825845e+002,-3.244629e+000
6.835488e+002,-2.179199e+000
6.845130e+002,-2.791748e+000
6.854772e+002,-5.195679e+000
6.864415e+002,-7.313721e+000
6.874057e+002,-4.440552e+000
6.883699e+002,1.016724e+000
6.893342e+002,4.140137e+000
6.902984e+002,2.146606e+000
6.912626e+002,-3.780273e+000
6.922269e+002,-6.688477e+000
6.931911e+002,-3.077148e+000
6.941553e+002,6.268311e-001
6.951196e+002,3.647705e+000
6.960838e+002,5.570557e+000
6.970480e+002,6.002197e+000
6.980123e+002,4.479492e+000
6.989765e+002,3.252197e+000
6.999407e+002,3.409790e+000
7.009050e+002,3.860352e+000
7.018692e+002,3.557495e+000
7.028334e+002,2.166992e+000
7.037977e+002,4.282227e-001
7.047619e+002,2.795410e-002
7.057261e+002,7.770996e-001
7.066904e+002,1.420410e+000
7.076546e+002,1.713867e+000
7.086188e+002,1.663330e+000
7.095831e+002,1.175415e+000
7.105473e+002,-5.002441e-001
7.115115e+002,-1.163696e+000
7.124758e+002,9.654541e-001
7.134400e+002,1.815796e+000
7.144042e+002,-2.314209e+000
7.153685e+002,-1.103333e+001
7.163327e+002,-1.662610e+001
7.172969e+002,-1.254614e+001
7.182612e+002,-6.966797e+000
7.192254e+002,-2.173218e+000
7.201896e+002,1.100830e+000
7.211539e+002,2.520386e+000
7.221181e+002,1.723755e+000
7.230823e+002,-5.472412e-001
7.240466e+002,-2.393921e+000
7.250108e+002,-3.348755e+000
7.259750e+002,-3.265503e+000
7.269393e+002,-2.592407e+000
7.279035e+002,-1.920288e+000
7.288677e+002,-9.398193e-001
7.298320e+002,3.925537e+000
7.307962e+002,7.034058e+000
7.317604e+002,6.899658e+000
7.327247e+002,5.405518e+000
7.336889e+002,4.695923e+000
7.346531e+002,4.611206e+000
7.356174e+002,3.699585e+000
7.365816e+002,2.360962e+000
7.375458e+002,1.317749e+000
7.385101e+002,8.675537e-001
7.394743e+002,1.151489e+000
7.404385e+002,2.271851e+000
7.414028e+002,4.501343e+000
7.423670e+002,6.210815e+000
7.433312e+002,5.774658e+000
7.442955e+002,3.835205e+000
7.452597e+002,2.317261e+000
7.462239e+002,3.164673e+000
7.471882e+002,6.959229e+000
7.481524e+002,9.262939e+000
7.491166e+002,7.463257e+000
7.500809e+002,5.635132e+000
7.510451e+002,6.366821e+000
7.520093e+002,8.603394e+000
7.529736e+002,8.245361e+000
7.539378e+002,2.327271e+000
7.549020e+002,-3.425659e+000
7.558663e+002,-6.382935e+000
7.568306e+002,-6.817627e+000
7.577948e+002,-4.763672e+000
7.587590e+002,-6.425781e-001
7.597233e+002,3.978516e+000
7.606875e+002,5.250366e+000
7.616517e+002,4.043701e+000
7.626160e+002,3.507690e+000
7.635802e+002,4.930176e+000
7.645444e+002,7.183350e+000
7.655087e+002,7.677124e+000
7.664729e+002,5.401367e+000
7.674371e+002,2.945190e+000
7.684014e+002,-1.004761e+000
7.693656e+002,-3.897949e+000
7.703298e+002,-3.502563e+000
7.712941e+002,2.440186e-001
7.722583e+002,4.644165e+000
7.732225e+002,8.782471e+000
7.741868e+002,1.159985e+001
7.751510e+002,1.195801e+001
7.761152e+002,1.035083e+001
7.770795e+002,7.582520e+000
7.780437e+002,4.242554e+000
7.790079e+002,4.832764e-001
7.799722e+002,-7.763672e-002
7.809364e+002,3.000244e+000
7.819006e+002,4.518921e+000
7.828649e+002,1.960693e+000
7.838291e+002,-3.039917e+000
7.847933e+002,-6.083130e+000
7.857576e+002,-7.342163e+000
7.867218e+002,-7.669800e+000
7.876860e+002,-5.883423e+000
7.886503e+002,-3.193726e+000
7.896145e+002,-6.066895e-001
7.905787e+002,1.586304e+000
7.915430e+002,3.911865e+000
7.925072e+002,7.133423e+000
7.934714e+002,9.455444e+000
7.944357e+002,9.526978e+000
7.953999e+002,7.756348e+000
7.963641e+002,4.970215e+000
7.973284e+002,1.707397e+000
7.982926e+002,-2.168457e+000
7.992568e+002,-2.911011e+000
8.002211e+002,-3.852539e-001
8.011853e+002,1.243896e+000
8.021495e+002,1.249512e+000
8.031138e+002,8.850098e-001
8.040780e+002,1.831177e+000
8.050422e+002,3.945190e+000
8.060065e+002,6.319824e+000
8.069707e+002,8.782349e+000
8.079349e+002,1.050330e+001
8.088992e+002,1.067773e+001
8.098634e+002,9.421997e+000
8.108276e+002,8.197510e+000
8.117919e+002,8.856201e+000
8.127561e+002,9.529663e+000
8.137203e+002,8.746460e+000
8.146846e+002,6.981812e+000
8.156488e+002,4.332031e+000
8.166130e+002,-5.273438e-002
8.175773e+002,-7.592285e+000
8.185415e+002,-9.115723e+000
8.195057e+002,-1.298950e+000
8.204700e+002,5.984253e+000
8.214342e+002,9.882446e+000
8.223984e+002,1.075806e+001
8.233627e+002,9.660645e+000
8.243269e+002,5.705811e+000
8.252911e+002,2.867676e+000
8.262554e+002,3.804565e+000
8.272196e+002,6.328491e+000
8.281838e+002,8.296753e+000
8.291481e+002,8.817261e+000
8.301123e+002,8.423950e+000
8.310765e+002,7.929321e+000
8.320408e+002,7.198975e+000
8.330050e+002,6.520386e+000
8.339692e+002,5.921509e+000
8.349335e+002,5.865479e+000
8.358977e+002,7.211304e+000
8.368619e+002,1.055029e+001
8.378262e+002,1.372949e+001
8.387904e+002,1.646753e+001
8.397546e+002,1.822644e+001
8.407189e+002,1.873279e+001
8.416831e+002,1.831702e+001
8.426473e+002,1.730347e+001
8.436116e+002,1.567188e+001
8.445758e+002,1.464978e+001
8.455400e+002,1.537439e+001
8.465043e+002,1.611328e+001
8.474685e+002,1.556689e+001
8.484327e+002,1.397510e+001
8.493970e+002,1.267590e+001
8.503612e+002,1.312781e+001
8.513254e+002,1.537500e+001
8.522897e+002,1.726379e+001
8.532539e+002,1.908325e+001
8.542181e+002,1.945679e+001
8.551824e+002,1.695081e+001
8.561466e+002,1.281335e+001
8.571108e+002,1.247693e+001
8.580751e+002,1.896411e+001
8.590393e+002,2.369165e+001
8.600035e+002,2.441492e+001
8.609678e+002,2.292969e+001
8.619320e+002,2.034448e+001
8.628962e+002,1.732727e+001
8.638605e+002,1.556201e+001
8.648247e+002,1.917151e+001
8.657889e+002,2.550854e+001
8.667532e+002,2.913696e+001
8.677174e+002,2.933740e+001
8.686816e+002,2.797278e+001
8.696459e+002,2.728052e+001
8.706101e+002,2.777197e+001
8.715743e+002,2.768384e+001
8.725386e+002,2.660535e+001
8.735028e+002,2.567517e+001
8.744670e+002,2.456580e+001
8.754313e+002,2.301111e+001
8.763955e+002,2.060938e+001
8.773597e+002,1.680518e+001
8.783240e+002,1.505640e+001
8.792882e+002,1.938074e+001
8.802524e+002,2.506628e+001
8.812167e+002,2.815259e+001
8.821809e+002,2.792090e+001
8.831451e+002,2.618396e+001
8.841094e+002,2.531140e+001
8.850736e+002,2.579565e+001
8.860378e+002,2.741113e+001
8.870021e+002,3.025928e+001
8.879663e+002,3.243835e+001
8.889305e+002,3.207849e+001
8.898948e+002,2.960815e+001
8.908590e+002,2.836230e+001
8.918232e+002,3.021448e+001
8.927875e+002,3.163855e+001
8.937517e+002,3.141272e+001
8.947159e+002,3.089771e+001
8.956802e+002,3.036646e+001
8.966444e+002,2.986389e+001
8.976086e+002,3.040234e+001
8.985729e+002,3.498413e+001
8.995371e+002,4.070752e+001
9.005013e+002,4.131799e+001
9.014656e+002,3.787122e+001
9.024298e+002,3.485706e+001
9.033940e+002,3.533984e+001
9.043583e+002,3.835400e+001
9.053225e+002,4.003992e+001
9.062867e+002,3.932727e+001
9.072510e+002,3.754285e+001
9.082152e+002,3.417224e+001
9.091794e+002,3.148926e+001
9.101437e+002,3.203088e+001
9.111079e+002,3.616797e+001
9.120721e+002,4.018567e+001
9.130364e+002,4.049426e+001
9.140006e+002,4.017627e+001
9.149648e+002,4.191907e+001
9.159291e+002,4.528223e+001
9.168933e+002,4.850159e+001
9.178575e+002,5.003528e+001
9.188218e+002,4.971338e+001
9.197860e+002,4.740076e+001
9.207502e+002,4.272083e+001
9.217145e+002,3.925281e+001
9.226787e+002,3.925708e+001
9.236429e+002,4.073889e+001
9.246072e+002,4.016956e+001
9.255714e+002,3.646448e+001
9.265356e+002,3.395471e+001
9.274999e+002,3.347827e+001
9.284641e+002,3.359656e+001
9.294283e+002,3.539893e+001
9.303926e+002,3.758337e+001
9.313568e+002,3.757251e+001
9.323210e+002,3.385120e+001
9.332853e+002,2.895728e+001
9.342495e+002,2.691467e+001
9.352137e+002,2.637622e+001
9.361780e+002,2.654126e+001
9.371422e+002,2.763013e+001
9.381064e+002,2.872888e+001
9.390707e+002,2.765479e+001
9.400349e+002,2.289734e+001
9.409991e+002,2.183496e+001
9.419634e+002,2.681079e+001
9.429276e+002,3.158728e+001
9.438918e+002,3.474500e+001
9.448561e+002,3.688965e+001
9.458203e+002,3.936414e+001
9.467845e+002,4.293835e+001
9.477488e+002,4.593872e+001
9.487130e+002,4.614246e+001
9.496772e+002,4.565100e+001
9.506415e+002,4.625769e+001
9.516057e+002,4.789148e+001
9.525699e+002,4.906030e+001
9.535342e+002,4.818726e+001
9.544984e+002,4.543213e+001
9.554626e+002,4.468384e+001
9.564269e+002,4.735803e+001
9.573911e+002,4.950513e+001
9.583553e+002,4.917981e+001
9.593196e+002,4.770984e+001
9.602838e+002,4.709546e+001
9.612480e+002,4.707678e+001
9.622123e+002,4.848340e+001
9.631765e+002,5.505261e+001
9.641407e+002,6.008972e+001
9.651050e+002,5.969324e+001
9.660692e+002,5.482056e+001
9.670334e+002,4.793127e+001
9.679977e+002,4.079688e+001
9.689619e+002,3.535474e+001
9.699261e+002,3.620898e+001
9.708904e+002,4.082385e+001
9.718546e+002,4.355017e+001
9.728188e+002,4.262292e+001
9.737831e+002,4.050635e+001
9.747473e+002,4.117065e+001
9.757115e+002,4.581201e+001
9.766758e+002,4.787451e+001
9.776400e+002,4.520337e+001
9.786042e+002,4.362817e+001
9.795685e+002,4.506055e+001
9.805327e+002,4.726306e+001
9.814969e+002,4.741003e+001
9.824612e+002,4.495557e+001
9.834254e+002,4.257739e+001
9.843896e+002,4.161853e+001
9.853539e+002,4.192603e+001
9.863181e+002,4.428455e+001
9.872823e+002,4.786609e+001
9.882466e+002,5.093640e+001
9.892108e+002,5.267065e+001
9.901750e+002,5.399512e+001
9.911393e+002,5.497717e+001
9.921035e+002,5.028589e+001
9.930677e+002,5.068591e+001
9.940320e+002,6.190918e+001
9.949962e+002,7.559656e+001
9.959604e+002,8.355591e+001
9.969247e+002,8.551514e+001
9.978889e+002,8.827576e+001
9.988531e+002,9.403247e+001
9.998174e+002,1.006024e+002
1.000782e+003,1.091152e+002
1.001746e+003,1.177249e+002
1.002710e+003,1.233293e+002
1.003674e+003,1.246483e+002
1.004639e+003,1.233411e+002
1.005603e+003,1.222013e+002
1.006567e+003,1.210071e+002
1.007531e+003,1.211794e+002
1.008495e+003,1.238966e+002
1.009460e+003,1.258589e+002
1.010424e+003,1.245146e+002
1.011388e+003,1.209828e+002
1.012352e+003,1.195210e+002
1.013317e+003,1.222458e+002
1.014281e+003,1.227382e+002
1.015245e+003,1.178037e+002
1.016209e+003,1.109003e+002
1.017174e+003,1.049353e+002
1.018138e+003,9.995654e+001
1.019102e+003,9.351050e+001
1.020066e+003,8.337219e+001
1.021031e+003,7.217188e+001
1.021995e+003,6.727319e+001
1.022959e+003,6.666357e+001
1.023923e+003,6.428345e+001
1.024887e+003,5.783582e+001
1.025852e+003,4.899927e+001
1.026816e+003,3.991870e+001
1.027780e+003,3.022083e+001
1.028744e+003,2.470752e+001
1.029709e+003,2.731970e+001
1.030673e+003,2.960779e+001
1.031637e+003,2.820532e+001
1.032601e+003,2.494287e+001
1.033566e+003,2.302380e+001
1.034530e+003,2.373694e+001
1.035494e+003,2.521448e+001
1.036458e+003,2.488953e+001
1.037422e+003,2.378662e+001
1.038387e+003,2.411780e+001
1.039351e+003,2.562939e+001
1.040315e+003,2.658728e+001
1.041279e+003,2.569263e+001
1.042244e+003,2.397485e+001
1.043208e+003,2.547278e+001
1.044172e+003,3.376624e+001
1.045136e+003,3.754773e+001
1.046101e+003,3.449683e+001
1.047065e+003,2.997205e+001
1.048029e+003,2.606409e+001
1.048993e+003,2.331970e+001
1.049958e+003,2.311414e+001
1.050922e+003,2.738745e+001
1.051886e+003,3.222607e+001
1.052850e+003,3.312439e+001
1.053814e+003,3.212500e+001
1.054779e+003,3.207471e+001
1.055743e+003,3.330396e+001
1.056707e+003,3.350598e+001
1.057671e+003,2.970972e+001
1.058636e+003,2.174072e+001
1.059600e+003,1.783911e+001
1.060564e+003,2.258899e+001
1.061528e+003,2.619763e+001
1.062493e+003,2.608752e+001
1.063457e+003,2.383325e+001
1.064421e+003,2.077795e+001
1.065385e+003,1.747205e+001
1.066349e+003,1.648889e+001
1.067314e+003,2.139490e+001
1.068278e+003,2.643884e+001
1.069242e+003,2.731555e+001
1.070206e+003,2.600293e+001
1.071171e+003,2.577136e+001
1.072135e+003,2.754199e+001
1.073099e+003,2.883862e+001
1.074063e+003,2.581519e+001
1.075028e+003,1.810059e+001
1.075992e+003,1.443884e+001
1.076956e+003,1.680774e+001
1.077920e+003,1.804541e+001
1.078885e+003,1.452271e+001
1.079849e+003,9.424072e+000
1.080813e+003,8.462769e+000
1.081777e+003,1.306433e+001
1.082741e+003,1.861597e+001
1.083706e+003,2.317554e+001
1.084670e+003,2.633838e+001
1.085634e+003,2.764160e+001
1.086598e+003,2.736035e+001
1.087563e+003,2.606592e+001
1.088527e+003,2.443225e+001
1.089491e+003,2.296326e+001
1.090455e+003,2.145313e+001
1.091420e+003,1.934155e+001
1.092384e+003,2.012988e+001
1.093348e+003,2.578369e+001
1.094312e+003,2.975354e+001
1.095276e+003,2.773682e+001
1.096241e+003,2.194629e+001
1.097205e+003,1.770544e+001
1.098169e+003,1.496436e+001
1.099133e+003,1.416418e+001
1.100098e+003,1.801978e+001
1.101062e+003,2.194958e+001
1.102026e+003,2.211499e+001
1.102990e+003,2.006689e+001
1.103955e+003,1.993591e+001
1.104919e+003,2.409583e+001
1.105883e+003,3.046558e+001
1.106847e+003,3.530554e+001
1.107812e+003,3.835291e+001
1.108776e+003,3.959460e+001
1.109740e+003,3.839648e+001
1.110704e+003,3.674255e+001
1.111668e+003,3.590137e+001
1.112633e+003,3.649146e+001
1.113597e+003,3.997375e+001
1.114561e+003,4.824475e+001
1.115525e+003,5.380310e+001
1.116490e+003,5.199536e+001
1.117454e+003,4.915808e+001
1.118418e+003,4.924402e+001
1.119382e+003,5.270142e+001
1.120347e+003,5.893542e+001
1.121311e+003,6.701196e+001
1.122275e+003,7.340063e+001
1.123239e+003,7.147498e+001
1.124203e+003,6.293408e+001
1.125168e+003,5.892029e+001
1.126132e+003,6.140344e+001
1.127096e+003,6.596375e+001
1.128060e+003,6.838489e+001
1.129025e+003,6.940637e+001
1.129989e+003,7.445056e+001
1.130953e+003,8.702588e+001
1.131917e+003,9.551514e+001
1.132882e+003,9.465466e+001
1.133846e+003,9.215735e+001
1.134810e+003,9.142969e+001
1.135774e+003,9.332288e+001
1.136739e+003,9.815076e+001
1.137703e+003,1.059675e+002
1.138667e+003,1.151963e+002
1.139631e+003,1.228549e+002
1.140595e+003,1.293928e+002
1.141560e+003,1.395829e+002
1.142524e+003,1.544908e+002
1.143488e+003,1.720293e+002
1.144452e+003,1.908456e+002
1.145417e+003,2.109160e+002
1.146381e+003,2.319531e+002
1.147345e+003,2.529679e+002
1.148309e+003,2.771104e+002
1.149274e+003,3.071212e+002
1.150238e+003,3.388297e+002
1.151202e+003,3.734543e+002
1.152166e+003,4.080498e+002
1.153130e+003,4.379991e+002
1.154095e+003,4.604728e+002
1.155059e+003,4.753926e+002
1.156023e+003,4.837654e+002
1.156987e+003,4.854286e+002
1.157952e+003,4.806847e+002
1.158916e+003,4.706810e+002
1.159880e+003,4.560511e+002
1.160844e+003,4.341335e+002
1.161809e+003,4.062831e+002
1.162773e+003,3.773458e+002
1.163737e+003,3.471974e+002
1.164701e+003,3.170549e+002
1.165666e+003,2.837246e+002
1.166630e+003,2.552656e+002
1.167594e+003,2.356321e+002
1.168558e+003,2.221802e+002
1.169522e+003,2.122974e+002
1.170487e+003,2.045144e+002
1.171451e+003,1.972091e+002
1.172415e+003,1.877856e+002
1.173379e+003,1.777715e+002
1.174344e+003,1.783167e+002
1.175308e+003,1.905327e+002
1.176272e+003,1.973657e+002
1.177236e+003,1.901429e+002
1.178201e+003,1.778046e+002
1.179165e+003,1.716987e+002
1.180129e+003,1.713928e+002
1.181093e+003,1.686726e+002
1.182057e+003,1.603761e+002
1.183022e+003,1.524281e+002
1.183986e+003,1.465591e+002
1.184950e+003,1.424479e+002
1.185914e+003,1.396392e+002
1.186879e+003,1.384072e+002
1.187843e+003,1.399034e+002
1.188807e+003,1.449292e+002
1.189771e+003,1.519169e+002
1.190736e+003,1.573165e+002
1.191700e+003,1.610692e+002
1.192664e+003,1.622671e+002
1.193628e+003,1.607012e+002
1.194593e+003,1.576154e+002
1.195557e+003,1.528530e+002
1.196521e+003,1.469805e+002
1.197485e+003,1.426788e+002
1.198449e+003,1.412167e+002
1.199414e+003,1.389824e+002
1.200378e+003,1.342004e+002
1.201342e+003,1.283699e+002
1.202306e+003,1.209839e+002
1.203271e+003,1.130887e+002
1.204235e+003,1.068698e+002
1.205199e+003,1.034375e+002
1.206163e+003,1.015710e+002
1.207128e+003,9.909741e+001
1.208092e+003,9.605225e+001
1.209056e+003,9.301465e+001
1.210020e+003,9.147986e+001
1.210984e+003,8.729492e+001
1.211949e+003,7.684192e+001
1.212913e+003,6.429468e+001
1.213877e+003,5.537683e+001
1.214841e+003,5.060498e+001
1.215806e+003,4.642200e+001
1.216770e+003,4.083655e+001
1.217734e+003,3.629700e+001
1.218698e+003,3.498792e+001
1.219663e+003,3.461914e+001
1.220627e+003,3.232678e+001
1.221591e+003,2.783801e+001
1.222555e+003,2.301086e+001
1.223520e+003,1.967285e+001
1.224484e+003,1.782324e+001
1.225448e+003,1.611938e+001
1.226412e+003,1.404028e+001
1.227376e+003,1.308240e+001
1.228341e+003,1.438623e+001
1.229305e+003,1.503247e+001
1.230269e+003,1.243616e+001
1.231233e+003,8.255615e+000
1.232198e+003,6.367065e+000
1.233162e+003,8.150635e+000
1.234126e+003,1.080408e+001
1.235090e+003,1.210608e+001
1.236055e+003,1.259094e+001
1.237019e+003,1.301208e+001
1.237983e+003,1.308484e+001
1.238947e+003,1.226294e+001
1.239911e+003,1.066479e+001
1.240876e+003,9.733765e+000
1.241840e+003,1.161975e+001
1.242804e+003,1.665063e+001
1.243768e+003,1.916248e+001
1.244733e+003,1.641711e+001
1.245697e+003,1.471753e+001
1.246661e+003,1.465088e+001
1.247625e+003,1.443433e+001
1.248590e+003,1.229333e+001
1.249554e+003,9.625000e+000
1.250518e+003,1.019727e+001
1.251482e+003,1.562341e+001
1.252447e+003,2.138867e+001
1.253411e+003,2.248132e+001
1.254375e+003,2.080078e+001
1.255339e+003,1.913611e+001
1.256303e+003,1.805225e+001
1.257268e+003,1.946460e+001
1.258232e+003,2.450330e+001
1.259196e+003,3.103540e+001
1.260160e+003,3.580347e+001
1.261125e+003,3.907996e+001
1.262089e+003,4.242456e+001
1.263053e+003,4.472803e+001
1.264017e+003,4.741260e+001
1.264982e+003,5.325635e+001
1.265946e+003,5.834912e+001
1.266910e+003,5.770654e+001
1.267874e+003,5.243921e+001
1.268839e+003,4.875061e+001
1.269803e+003,5.084351e+001
1.270767e+003,5.491394e+001
1.271731e+003,5.315771e+001
1.272695e+003,4.609961e+001
1.273660e+003,4.240112e+001
1.274624e+003,4.261987e+001
1.275588e+003,4.242871e+001
1.276552e+003,4.012036e+001
1.277517e+003,3.677197e+001
1.278481e+003,3.330969e+001
1.279445e+003,2.948804e+001
1.280409e+003,2.672546e+001
1.281374e+003,2.684106e+001
1.282338e+003,2.648962e+001
1.283302e+003,2.193518e+001
1.284266e+003,1.704395e+001
1.285230e+003,1.771960e+001
1.286195e+003,2.330591e+001
1.287159e+003,2.683228e+001
1.288123e+003,2.280054e+001
1.289087e+003,1.493848e+001
1.290052e+003,1.364600e+001
1.291016e+003,2.148926e+001
1.291980e+003,2.482825e+001
1.292944e+003,2.062195e+001
1.293909e+003,1.517737e+001
1.294873e+003,1.086536e+001
1.295837e+003,7.736694e+000
1.296801e+003,5.336426e+000
1.297766e+003,3.680298e+000
1.298730e+003,3.587036e+000
1.299694e+003,5.642822e+000
1.300658e+003,8.179199e+000
1.301622e+003,1.001782e+001
1.302587e+003,1.140466e+001
1.303551e+003,1.240076e+001
1.304515e+003,1.322546e+001
1.305479e+003,1.383484e+001
1.306444e+003,1.375879e+001
1.307408e+003,1.306128e+001
1.308372e+003,1.290613e+001
1.309336e+003,1.339221e+001
1.310301e+003,1.396509e+001
1.311265e+003,1.625623e+001
1.312229e+003,1.731262e+001
1.313193e+003,1.484155e+001
1.314157e+003,1.135474e+001
1.315122e+003,9.682617e+000
1.316086e+003,9.730469e+000
1.317050e+003,9.129395e+000
1.318014e+003,6.514282e+000
1.318979e+003,3.672729e+000
1.319943e+003,3.384644e+000
1.320907e+003,5.784790e+000
1.321871e+003,8.978271e+000
1.322836e+003,1.248901e+001
1.323800e+003,1.520129e+001
1.324764e+003,1.653967e+001
1.325728e+003,1.696387e+001
1.326693e+003,1.682520e+001
1.327657e+003,1.577759e+001
1.328621e+003,1.450378e+001
1.329585e+003,1.522156e+001
1.330549e+003,1.589294e+001
1.331514e+003,1.179846e+001
1.332478e+003,7.212036e+000
1.333442e+003,8.296509e+000
1.334406e+003,1.390552e+001
1.335371e+003,1.753223e+001
1.336335e+003,1.525122e+001
1.337299e+003,9.678833e+000
1.338263e+003,5.296875e+000
1.339228e+003,1.840820e+000
1.340192e+003,2.489014e+000
1.341156e+003,1.160803e+001
1.342120e+003,1.807605e+001
1.343084e+003,1.839465e+001
1.344049e+003,1.608228e+001
1.345013e+003,1.388135e+001
1.345977e+003,1.249976e+001
1.346941e+003,1.205640e+001
1.347906e+003,1.257227e+001
1.348870e+003,1.335364e+001
1.349834e+003,1.379565e+001
1.350798e+003,1.348633e+001
1.351763e+003,1.194116e+001
1.352727e+003,9.679565e+000
1.353691e+003,8.836426e+000
1.354655e+003,1.051135e+001
1.355620e+003,1.299585e+001
1.356584e+003,1.464368e+001
1.357548e+003,1.566199e+001
1.358512e+003,1.578320e+001
1.359476e+003,1.361523e+001
1.360441e+003,1.188354e+001
1.361405e+003,1.245569e+001
1.362369e+003,1.303845e+001
1.363333e+003,1.248840e+001
1.364298e+003,1.131213e+001
1.365262e+003,1.078027e+001
1.366226e+003,1.084521e+001
1.367190e+003,9.349243e+000
1.368155e+003,4.258667e+000
1.369119e+003,-2.360718e+000
1.370083e+003,-3.573975e+000
1.371047e+003,2.935303e+000
1.372011e+003,6.598755e+000
1.372976e+003,4.250122e+000
1.373940e+003,1.972412e+000
1.374904e+003,2.271240e+000
1.375868e+003,4.235474e+000
1.376833e+003,6.516479e+000
1.377797e+003,8.842285e+000
1.378761e+003,1.235632e+001
1.379725e+003,1.884082e+001
1.380690e+003,2.303992e+001
1.381654e+003,1.591907e+001
1.382618e+003,5.158691e+000
1.383582e+003,9.802246e-001
1.384547e+003,3.675171e+000
1.385511e+003,9.749878e+000
1.386475e+003,1.799573e+001
1.387439e+003,2.588257e+001
1.388403e+003,2.971326e+001
1.389368e+003,2.942114e+001
1.390332e+003,2.697656e+001
1.391296e+003,2.105737e+001
1.392260e+003,1.667883e+001
1.393225e+003,1.515613e+001
1.394189e+003,1.472742e+001
1.395153e+003,1.542395e+001
1.396117e+003,1.616663e+001
1.397082e+003,1.487268e+001
1.398046e+003,1.176624e+001
1.399010e+003,1.028979e+001
1.399974e+003,1.331006e+001
1.400938e+003,1.830090e+001
1.401903e+003,1.926392e+001
1.402867e+003,1.653552e+001
1.403831e+003,1.622986e+001
1.404795e+003,1.839233e+001
1.405760e+003,2.109521e+001
1.406724e+003,2.247876e+001
1.407688e+003,2.269177e+001
1.408652e+003,2.395569e+001
1.409617e+003,2.640686e+001
1.410581e+003,2.630347e+001
1.411545e+003,2.159985e+001
1.412509e+003,1.694226e+001
1.413474e+003,1.701514e+001
1.414438e+003,1.878320e+001
1.415402e+003,1.833325e+001
1.416366e+003,1.649792e+001
1.417330e+003,1.568188e+001
1.418295e+003,1.697839e+001
1.419259e+003,1.905225e+001
1.420223e+003,1.998950e+001
1.421187e+003,1.960962e+001
1.422152e+003,1.942798e+001
1.423116e+003,2.031567e+001
1.424080e+003,2.114832e+001
1.425044e+003,1.972803e+001
1.426009e+003,1.893677e+001
1.426973e+003,2.114880e+001
1.427937e+003,2.388708e+001
1.428901e+003,2.389001e+001
1.429865e+003,2.164819e+001
1.430830e+003,2.012964e+001
1.431794e+003,2.102747e+001
1.432758e+003,2.389148e+001
1.433722e+003,2.893896e+001
1.434687e+003,3.756628e+001
1.435651e+003,4.351489e+001
1.436615e+003,4.237537e+001
1.437579e+003,4.056140e+001
1.438544e+003,3.901233e+001
1.439508e+003,3.714661e+001
1.440472e+003,3.438037e+001
1.441436e+003,3.191626e+001
1.442401e+003,3.185999e+001
1.443365e+003,3.423022e+001
1.444329e+003,3.604468e+001
1.445293e+003,3.510388e+001
1.446257e+003,3.322156e+001
1.447222e+003,3.348035e+001
1.448186e+003,3.543665e+001
1.449150e+003,3.749744e+001
1.450114e+003,3.972375e+001
1.451079e+003,4.032568e+001
1.452043e+003,3.783020e+001
1.453007e+003,3.450098e+001
1.453971e+003,3.259387e+001
1.454936e+003,3.189648e+001
1.455900e+003,3.295374e+001
1.456864e+003,3.703174e+001
1.457828e+003,4.011169e+001
1.458792e+003,3.817175e+001
1.459757e+003,3.489185e+001
1.460721e+003,3.298181e+001
1.461685e+003,3.216113e+001
1.462649e+003,3.221204e+001
1.463614e+003,3.311035e+001
1.464578e+003,3.324963e+001
1.465542e+003,3.066187e+001
1.466506e+003,2.639795e+001
1.467471e+003,2.434827e+001
1.468435e+003,2.552966e+001
1.469399e+003,2.778967e+001
1.470363e+003,3.150513e+001
1.471328e+003,3.389954e+001
1.472292e+003,3.240112e+001
1.473256e+003,2.995166e+001
1.474220e+003,2.918518e+001
1.475184e+003,3.051880e+001
1.476149e+003,3.387720e+001
1.477113e+003,3.830591e+001
1.478077e+003,4.150623e+001
1.479041e+003,4.173804e+001
1.480006e+003,4.024194e+001
1.480970e+003,3.961475e+001
1.481934e+003,3.915186e+001
1.482898e+003,3.958447e+001
1.483863e+003,4.240601e+001
1.484827e+003,4.361389e+001
1.485791e+003,4.076501e+001
1.486755e+003,3.821118e+001
1.487719e+003,4.001001e+001
1.488684e+003,4.475818e+001
1.489648e+003,4.834021e+001
1.490612e+003,4.983997e+001
1.491576e+003,5.278003e+001
1.492541e+003,6.021106e+001
1.493505e+003,6.975903e+001
1.494469e+003,7.576648e+001
1.495433e+003,7.836597e+001
1.496398e+003,8.351990e+001
1.497362e+003,9.392322e+001
1.498326e+003,1.041885e+002
1.499290e+003,1.104380e+002
1.500255e+003,1.154901e+002
1.501219e+003,1.225214e+002
1.502183e+003,1.313888e+002
1.503147e+003,1.418053e+002
1.504111e+003,1.538197e+002
1.505076e+003,1.666752e+002
1.506040e+003,1.786448e+002
1.507004e+003,1.931323e+002
1.507968e+003,2.140039e+002
1.508933e+003,2.393770e+002
1.509897e+003,2.653776e+002
1.510861e+003,2.922787e+002
1.511825e+003,3.229153e+002
1.512790e+003,3.588619e+002
1.513754e+003,3.980731e+002
1.514718e+003,4.382170e+002
1.515682e+003,4.786654e+002
1.516646e+003,5.183887e+002
1.517611e+003,5.600845e+002
1.518575e+003,5.964021e+002
1.519539e+003,6.256912e+002
1.520503e+003,6.496736e+002
1.521468e+003,6.687267e+002
1.522432e+003,6.824680e+002
1.523396e+003,6.911165e+002
1.524360e+003,6.939893e+002
1.525325e+003,6.893802e+002
1.526289e+003,6.763446e+002
1.527253e+003,6.559973e+002
1.528217e+003,6.296149e+002
1.529182e+003,5.976970e+002
1.530146e+003,5.635704e+002
1.531110e+003,5.284127e+002
1.532074e+003,4.872773e+002
1.533039e+003,4.342668e+002
1.534003e+003,3.795012e+002
1.534967e+003,3.259552e+002
1.535931e+003,2.767317e+002
1.536896e+003,2.346379e+002
1.537860e+003,1.995858e+002
1.538824e+003,1.691742e+002
1.539788e+003,1.418293e+002
1.540752e+003,1.183496e+002
1.541717e+003,1.002129e+002
1.542681e+003,8.763965e+001
1.543645e+003,7.953137e+001
1.544609e+003,7.923901e+001
1.545573e+003,7.686951e+001
1.546538e+003,6.933923e+001
1.547502e+003,6.182166e+001
1.548466e+003,5.673657e+001
1.549430e+003,5.388928e+001
1.550395e+003,5.356641e+001
1.551359e+003,5.417920e+001
1.552323e+003,5.208521e+001
1.553287e+003,4.634485e+001
1.554252e+003,4.095593e+001
1.555216e+003,3.942712e+001
1.556180e+003,4.026526e+001
1.557144e+003,4.054639e+001
1.558109e+003,4.048877e+001
1.559073e+003,3.858069e+001
1.560037e+003,3.235449e+001
1.561001e+003,2.714941e+001
1.561966e+003,2.595142e+001
1.562930e+003,2.725378e+001
1.563894e+003,3.036853e+001
1.564858e+003,3.379968e+001
1.565823e+003,3.427966e+001
1.566787e+003,3.128174e+001
1.567751e+003,2.832544e+001
1.568715e+003,2.746924e+001
1.569679e+003,2.817114e+001
1.570644e+003,3.053003e+001
1.571608e+003,3.285095e+001
1.572572e+003,3.121851e+001
1.573536e+003,2.587903e+001
1.574500e+003,2.153174e+001
1.575465e+003,1.898730e+001
1.576429e+003,1.843994e+001
1.577393e+003,2.110693e+001
1.578357e+003,2.500769e+001
1.579322e+003,2.617456e+001
1.580286e+003,2.487598e+001
1.581250e+003,2.583472e+001
1.582214e+003,3.117725e+001
1.583179e+003,3.635986e+001
1.584143e+003,3.778015e+001
1.585107e+003,3.666968e+001
1.586071e+003,3.506738e+001
1.587036e+003,3.399829e+001
1.588000e+003,3.439246e+001
1.588964e+003,3.600586e+001
1.589928e+003,3.771619e+001
1.590893e+003,3.938904e+001
1.591857e+003,4.041931e+001
1.592821e+003,3.926709e+001
1.593785e+003,3.660278e+001
1.594750e+003,3.566907e+001
1.595714e+003,3.671008e+001
1.596678e+003,3.838318e+001
1.597642e+003,4.110303e+001
1.598606e+003,4.305481e+001
1.599571e+003,4.239807e+001
1.600535e+003,4.085522e+001
1.601499e+003,4.001379e+001
1.602463e+003,4.000830e+001
1.603427e+003,4.154736e+001
1.604392e+003,4.523230e+001
1.605356e+003,4.848486e+001
1.606320e+003,4.906030e+001
1.607284e+003,4.715918e+001
1.608249e+003,4.225989e+001
1.609213e+003,3.420581e+001
1.610177e+003,2.883386e+001
1.611141e+003,2.744556e+001
1.612106e+003,2.799500e+001
1.613070e+003,3.201648e+001
1.614034e+003,3.515149e+001
1.614998e+003,3.255139e+001
1.615963e+003,2.760315e+001
1.616927e+003,2.644263e+001
1.617891e+003,2.946423e+001
1.618855e+003,3.219043e+001
1.619820e+003,3.184216e+001
1.620784e+003,2.855872e+001
1.621748e+003,2.217236e+001
1.622712e+003,1.461340e+001
1.623677e+003,1.268420e+001
1.624641e+003,1.736829e+001
1.625605e+003,2.291162e+001
1.626569e+003,2.866541e+001
1.627533e+003,3.061890e+001
1.628498e+003,2.457837e+001
1.629462e+003,1.771008e+001
1.630426e+003,1.621387e+001
1.631390e+003,1.838647e+001
1.632354e+003,1.981299e+001
1.633319e+003,1.934998e+001
1.634283e+003,1.890784e+001
1.635247e+003,1.995361e+001
1.636211e+003,2.122766e+001
1.637176e+003,2.068469e+001
1.638140e+003,1.874536e+001
1.639104e+003,1.715161e+001
1.640068e+003,1.557788e+001
1.641033e+003,1.443726e+001
1.641997e+003,1.323889e+001
1.642961e+003,1.411609e+001
1.643925e+003,2.111255e+001
1.644890e+003,2.798950e+001
1.645854e+003,2.682080e+001
1.646818e+003,2.025781e+001
1.647782e+003,1.655017e+001
1.648747e+003,1.813904e+001
1.649711e+003,2.121130e+001
1.650675e+003,2.321240e+001
1.651639e+003,2.471960e+001
1.652604e+003,2.649475e+001
1.653568e+003,2.807935e+001
1.654532e+003,2.604712e+001
1.655496e+003,1.859741e+001
1.656460e+003,1.341553e+001
1.657425e+003,1.353333e+001
1.658389e+003,1.590051e+001
1.659353e+003,2.229956e+001
1.660317e+003,2.727991e+001
1.661281e+003,2.248840e+001
1.662246e+003,1.101880e+001
1.663210e+003,3.292847e+000
1.664174e+003,2.989868e+000
1.665138e+003,6.832520e+000
1.666103e+003,1.342627e+001
1.667067e+003,1.921863e+001
1.668031e+003,1.538989e+001
1.668995e+003,3.118286e+000
1.669960e+003,-2.033813e+000
1.670924e+003,2.904053e+000
1.671888e+003,7.890503e+000
1.672852e+003,9.885498e+000
1.673817e+003,1.041748e+001
1.674781e+003,9.391968e+000
1.675745e+003,8.184937e+000
1.676709e+003,8.680054e+000
1.677674e+003,1.029187e+001
1.678638e+003,1.093079e+001
1.679602e+003,9.961792e+000
1.680566e+003,8.340332e+000
1.681531e+003,6.921509e+000
1.682495e+003,6.017212e+000
1.683459e+003,5.388550e+000
1.684423e+003,4.719849e+000
1.685387e+003,4.540039e+000
1.686352e+003,5.164917e+000
1.687316e+003,6.094360e+000
1.688280e+003,7.868530e+000
1.689244e+003,8.538940e+000
1.690208e+003,4.808105e+000
1.691173e+003,1.027832e-001
1.692137e+003,-1.221191e+000
1.693101e+003,4.907227e-001
1.694065e+003,1.941772e+000
1.695030e+003,1.717407e+000
1.695994e+003,1.722168e+000
1.696958e+003,3.536011e+000
1.697922e+003,6.410034e+000
1.698887e+003,1.035828e+001
1.699851e+003,1.463965e+001
1.700815e+003,1.612109e+001
1.701779e+003,1.426343e+001
1.702744e+003,1.126624e+001
1.703708e+003,7.975342e+000
1.704672e+003,6.291138e+000
1.705636e+003,7.881348e+000
1.706601e+003,9.641235e+000
1.707565e+003,7.368408e+000
1.708529e+003,2.861450e+000
1.709493e+003,4.387207e-001
1.710458e+003,6.962891e-001
1.711422e+003,9.567871e-001
1.712386e+003,5.397949e-001
1.713350e+003,3.126221e-001
1.714314e+003,6.286621e-001
1.715279e+003,5.594482e-001
1.716243e+003,-1.667358e+000
1.717207e+003,-5.231201e+000
1.718171e+003,-5.675659e+000
1.719135e+003,-1.636719e+000
1.720100e+003,1.849854e+000
1.721064e+003,1.285278e+000
1.722028e+003,-2.241699e+000
1.722992e+003,-7.937500e+000
1.723957e+003,-1.398364e+001
1.724921e+003,-1.357690e+001
1.725885e+003,-6.808716e+000
1.726849e+003,-1.181885e+000
1.727814e+003,5.400635e+000
1.728778e+003,8.760498e+000
1.729742e+003,4.078003e+000
1.730706e+003,-2.387939e+000
1.731671e+003,-5.865967e+000
1.732635e+003,-7.083862e+000
1.733599e+003,-6.118408e+000
1.734563e+003,-3.231323e+000
1.735528e+003,-2.470093e+000
1.736492e+003,-6.235474e+000
1.737456e+003,-9.041626e+000
1.738420e+003,-3.825928e+000
1.739385e+003,5.842041e+000
1.740349e+003,8.566406e+000
1.741313e+003,3.127319e+000
1.742277e+003,-5.238037e-001
1.743241e+003,-5.013428e-001
1.744206e+003,-6.599121e-001
1.745170e+003,-2.457642e+000
1.746134e+003,-4.131714e+000
1.747098e+003,-4.319214e+000
1.748063e+003,-4.254150e+000
1.749027e+003,-5.782837e+000
1.749991e+003,-8.154663e+000
1.750955e+003,-9.085205e+000
1.751919e+003,-8.073730e+000
1.752884e+003,-6.743774e+000
1.753848e+003,-6.424438e+000
1.754812e+003,-7.216553e+000
1.755776e+003,-9.170532e+000
1.756741e+003,-1.159778e+001
1.757705e+003,-1.071045e+001
1.758669e+003,-5.104492e+000
1.759633e+003,-1.962646e+000
1.760598e+003,-3.958984e+000
1.761562e+003,-6.771973e+000
1.762526e+003,-8.932861e+000
1.763490e+003,-1.036902e+001
1.764455e+003,-1.143433e+001
1.765419e+003,-1.138733e+001
1.766383e+003,-8.803345e+000
1.767347e+003,-4.519897e+000
1.768312e+003,-1.443726e+000
1.769276e+003,-1.124878e+000
1.770240e+003,-2.596191e+000
1.771204e+003,-4.667847e+000
1.772168e+003,-5.979614e+000
1.773133e+003,-3.988281e+000
1.774097e+003,7.429199e-001
1.775061e+003,2.340820e+000
1.776025e+003,-9.125977e-001
1.776990e+003,-3.870850e+000
1.777954e+003,-3.889160e+000
1.778918e+003,-3.058350e+000
1.779882e+003,-3.659790e+000
1.780846e+003,-4.901489e+000
1.781811e+003,-4.703979e+000
1.782775e+003,-3.442627e+000
1.783739e+003,-2.942505e+000
1.784703e+003,-3.267578e+000
1.785668e+003,-3.853760e+000
1.786632e+003,-6.276611e+000
1.787596e+003,-8.140991e+000
1.788560e+003,-6.258179e+000
1.789525e+003,-1.996948e+000
1.790489e+003,2.808716e+000
1.791453e+003,6.946655e+000
1.792417e+003,8.300659e+000
1.793382e+003,6.654297e+000
1.794346e+003,3.860840e+000
1.795310e+003,6.845703e-001
1.796274e+003,-1.973633e+000
1.797239e+003,-2.515259e+000
1.798203e+003,-9.381104e-001
1.799167e+003,2.148438e-001
1.800131e+003,-4.628906e-001
1.801095e+003,-1.834595e+000
1.802060e+003,-3.059814e+000
1.803024e+003,-3.584229e+000
1.803988e+003,-3.496582e+000
1.804952e+003,-3.499023e+000
1.805917e+003,-4.944092e+000
1.806881e+003,-5.820679e+000
1.807845e+003,-2.207153e+000
1.808809e+003,3.356689e+000
1.809773e+003,4.945068e+000
1.810738e+003,1.678833e+000
1.811702e+003,-2.759521e+000
1.812666e+003,-6.033325e+000
1.813630e+003,-7.015869e+000
1.814595e+003,-3.571167e+000
1.815559e+003,2.454590e+000
1.816523e+003,3.651855e+000
1.817487e+003,-4.501953e-001
1.818452e+003,-1.922852e+000
1.819416e+003,1.678467e+000
1.820380e+003,3.772827e+000
1.821344e+003,1.291260e+000
1.822309e+003,-2.675415e+000
1.823273e+003,-8.042603e+000
1.824237e+003,-1.163220e+001
1.825201e+003,-9.270020e+000
1.826166e+003,-3.195557e+000
1.827130e+003,1.083008e+000
1.828094e+003,2.356567e+000
1.829058e+003,2.304199e+000
1.830022e+003,1.671509e+000
1.830987e+003,1.167358e+000
1.831951e+003,1.855835e+000
1.832915e+003,2.704834e+000
1.833879e+003,1.929565e+000
1.834844e+003,-4.394531e-002
1.835808e+003,-1.894287e+000
1.836772e+003,-3.231812e+000
1.837736e+003,-3.903687e+000
1.838700e+003,-4.165039e+000
1.839665e+003,-3.727905e+000
1.840629e+003,-1.630249e+000
1.841593e+003,5.434570e-001
1.842557e+003,-1.610229e+000
1.843522e+003,-8.018677e+000
1.844486e+003,-1.041699e+001
1.845450e+003,-4.480469e+000
1.846414e+003,-1.145142e+000
1.847379e+003,-2.751465e+000
1.848343e+003,-6.009277e+000
1.849307e+003,-1.198608e+001
1.850271e+003,-1.640723e+001
1.851236e+003,-1.483191e+001
1.852200e+003,-1.009631e+001
1.853164e+003,-6.634521e+000
1.854128e+003,-5.484253e+000
1.855093e+003,-5.039673e+000
1.856057e+003,-4.198120e+000
1.857021e+003,-4.370605e+000
1.857985e+003,-7.406372e+000
1.858949e+003,-1.115930e+001
1.859914e+003,-1.148145e+001
1.860878e+003,-8.747681e+000
1.861842e+003,-5.884155e+000
1.862806e+003,-3.129028e+000
1.863771e+003,-1.378540e+000
1.864735e+003,-1.196533e+000
1.865699e+003,-1.535400e+000
1.866663e+003,-1.620239e+000
1.867627e+003,-1.462891e+000
1.868592e+003,-1.767212e+000
1.869556e+003,-2.690063e+000
1.870520e+003,-3.200317e+000
1.871484e+003,-3.497314e+000
1.872449e+003,-4.684082e+000
1.873413e+003,-5.754272e+000
1.874377e+003,-4.240601e+000
1.875341e+003,2.271729e-001
1.876306e+003,4.493896e+000
1.877270e+003,7.470703e+000
1.878234e+003,8.481567e+000
1.879198e+003,6.658569e+000
1.880163e+003,3.004517e+000
1.881127e+003,-1.848755e+000
1.882091e+003,-6.585815e+000
1.883055e+003,-7.598389e+000
1.884020e+003,-3.888062e+000
1.884984e+003,5.175781e-002
1.885948e+003,1.654053e-001
1.886912e+003,-1.884155e+000
1.887876e+003,-2.830444e+000
1.888841e+003,-2.633057e+000
1.889805e+003,-1.568237e+000
1.890769e+003,5.847168e-001
1.891733e+003,2.509033e+000
1.892698e+003,3.903442e+000
1.893662e+003,4.161011e+000
1.894626e+003,3.165283e+000
1.895590e+003,1.346191e+000
1.896554e+003,-2.370117e+000
1.897519e+003,-5.081665e+000
1.898483e+003,-2.427124e+000
1.899447e+003,3.208374e+000
1.900411e+003,4.760376e+000
1.901376e+003,1.015137e+000
1.902340e+003,-8.253174e-001
1.903304e+003,3.827271e+000
1.904268e+003,7.781982e+000
1.905233e+003,5.862305e+000
1.906197e+003,2.421753e+000
1.907161e+003,1.930908e+000
1.908125e+003,3.527954e+000
1.909090e+003,4.615479e+000
1.910054e+003,4.745239e+000
1.911018e+003,5.547241e+000
1.911982e+003,7.672485e+000
1.912947e+003,9.278442e+000
1.913911e+003,8.821533e+000
1.914875e+003,7.039551e+000
1.915839e+003,4.572632e+000
1.916803e+003,1.546143e+000
1.917768e+003,1.864258e+000
1.918732e+003,6.944702e+000
1.919696e+003,8.915894e+000
1.920660e+003,6.296753e+000
1.921625e+003,5.858643e+000
1.922589e+003,1.076135e+001
1.923553e+003,1.432507e+001
1.924517e+003,1.128479e+001
1.925481e+003,7.125366e+000
1.926446e+003,6.909668e+000
1.927410e+003,9.038208e+000
1.928374e+003,1.025049e+001
1.929338e+003,9.878906e+000
1.930303e+003,8.302979e+000
1.931267e+003,5.872192e+000
1.932231e+003,4.840942e+000
1.933195e+003,6.553101e+000
1.934160e+003,8.101563e+000
1.935124e+003,6.951538e+000
1.936088e+003,4.390259e+000
1.937052e+003,1.987305e+000
1.938017e+003,7.016602e-001
1.938981e+003,2.118652e+000
1.939945e+003,5.488525e+000
1.940909e+003,7.292603e+000
1.941874e+003,5.825928e+000
1.942838e+003,2.581543e+000
1.943802e+003,-6.271973e-001
1.944766e+003,-2.460693e+000
1.945730e+003,-1.310913e+000
1.946695e+003,1.961304e+000
1.947659e+003,4.141724e+000
1.948623e+003,4.990479e+000
1.949587e+003,5.478760e+000
1.950552e+003,5.961670e+000
1.951516e+003,6.717163e+000
1.952480e+003,8.433960e+000
1.953444e+003,8.942993e+000
1.954408e+003,4.741699e+000
1.955373e+003,-3.671875e-001
1.956337e+003,1.589233e+000
1.957301e+003,8.431885e+000
1.958265e+003,9.111572e+000
1.959230e+003,2.487183e+000
1.960194e+003,-1.658569e+000
1.961158e+003,-3.514282e+000
1.962122e+003,-2.769043e+000
1.963087e+003,3.701660e+000
1.964051e+003,9.474365e+000
1.965015e+003,1.157251e+001
1.965979e+003,1.186670e+001
1.966944e+003,1.069568e+001
1.967908e+003,8.842651e+000
1.968872e+003,8.240723e+000
1.969836e+003,8.817505e+000
1.970801e+003,8.199463e+000
1.971765e+003,5.548950e+000
1.972729e+003,3.193726e+000
1.973693e+003,3.059326e+000
1.974657e+003,4.146484e+000
1.975622e+003,4.704956e+000
1.976586e+003,4.924683e+000
1.977550e+003,6.567383e+000
1.978514e+003,9.438354e+000
1.979479e+003,1.047986e+001
1.980443e+003,9.273682e+000
1.981407e+003,9.951904e+000
1.982371e+003,1.451343e+001
1.983335e+003,1.743762e+001
1.984300e+003,1.380713e+001
1.985264e+003,7.578247e+000
1.986228e+003,5.313965e+000
1.987192e+003,6.226318e+000
1.988157e+003,6.382324e+000
1.989121e+003,5.995605e+000
1.990085e+003,5.100586e+000
1.991049e+003,3.363647e+000
1.992014e+003,2.608765e+000
1.992978e+003,3.533569e+000
1.993942e+003,4.030762e+000
1.994906e+003,2.067017e+000
1.995871e+003,8.217773e-001
1.996835e+003,4.215454e+000
1.997799e+003,9.308350e+000
1.998763e+003,1.084131e+001
1.999728e+003,9.154785e+000
