5.003444e+002,3.888245e+001
5.013087e+002,3.739610e+001
5.022729e+002,3.728139e+001
5.032371e+002,3.826808e+001
5.042014e+002,3.862134e+001
5.051656e+002,3.847682e+001
5.061298e+002,3.842798e+001
5.070941e+002,3.908823e+001
5.080583e+002,4.078719e+001
5.090225e+002,4.062708e+001
5.099868e+002,3.760033e+001
5.109510e+002,3.440941e+001
5.119152e+002,3.236194e+001
5.128795e+002,3.157043e+001
5.138437e+002,3.123570e+001
5.148079e+002,3.233072e+001
5.157722e+002,3.276488e+001
5.167364e+002,3.073691e+001
5.177006e+002,2.658032e+001
5.186649e+002,2.281114e+001
5.196291e+002,2.324702e+001
5.205933e+002,2.568182e+001
5.215576e+002,2.760344e+001
5.225218e+002,2.858078e+001
5.234860e+002,2.905389e+001
5.244503e+002,3.002293e+001
5.254145e+002,3.200229e+001
5.263787e+002,3.231891e+001
5.273430e+002,2.997693e+001
5.283072e+002,2.665651e+001
5.292714e+002,2.461943e+001
5.302357e+002,2.427231e+001
5.311999e+002,2.407475e+001
5.321641e+002,2.380157e+001
5.331284e+002,2.384813e+001
5.340926e+002,2.482249e+001
5.350568e+002,2.698914e+001
5.360211e+002,2.842284e+001
5.369853e+002,2.708568e+001
5.379495e+002,2.471976e+001
5.389138e+002,2.224088e+001
5.398780e+002,2.017299e+001
5.408422e+002,1.878702e+001
5.418065e+002,1.947595e+001
5.427707e+002,2.185577e+001
5.437349e+002,2.306378e+001
5.446992e+002,2.208484e+001
5.456634e+002,1.955542e+001
5.466276e+002,1.775658e+001
5.475919e+002,1.710074e+001
5.485561e+002,1.697391e+001
5.495203e+002,1.776881e+001
5.504846e+002,1.882840e+001
5.514488e+002,1.929858e+001
5.524130e+002,1.889465e+001
5.533773e+002,1.797372e+001
5.543415e+002,1.633711e+001
5.553057e+002,1.462636e+001
5.562700e+002,1.352969e+001
5.572342e+002,1.344510e+001
5.581984e+002,1.389810e+001
5.591627e+002,1.406706e+001
5.601269e+002,1.401625e+001
5.610911e+002,1.346458e+001
5.620554e+002,1.217413e+001
5.630196e+002,1.024855e+001
5.639838e+002,9.099564e+000
5.649481e+002,8.861237e+000
5.659123e+002,9.186447e+000
5.668765e+002,1.055557e+001
5.678408e+002,1.265605e+001
5.688050e+002,1.440826e+001
5.697692e+002,1.531540e+001
5.707335e+002,1.569049e+001
5.716977e+002,1.553493e+001
5.726619e+002,1.508635e+001
5.736262e+002,1.469788e+001
5.745904e+002,1.469342e+001
5.755546e+002,1.455959e+001
5.765189e+002,1.318764e+001
5.774831e+002,1.102800e+001
5.784473e+002,8.966721e+000
5.794116e+002,7.668228e+000
5.803758e+002,7.146210e+000
5.813400e+002,6.618530e+000
5.823043e+002,5.736801e+000
5.832685e+002,5.197342e+000
5.842327e+002,5.683731e+000
5.851970e+002,7.050308e+000
5.861612e+002,7.803177e+000
5.871254e+002,6.501648e+000
5.880897e+002,5.780624e+000
5.890539e+002,6.620209e+000
5.900181e+002,8.214355e+000
5.909824e+002,9.184174e+000
5.919466e+002,8.555664e+000
5.929108e+002,7.388611e+000
5.938751e+002,6.885498e+000
5.948393e+002,6.747742e+000
5.958035e+002,6.533920e+000
5.967678e+002,5.936630e+000
5.977320e+002,5.079620e+000
5.986962e+002,4.348511e+000
5.996605e+002,3.453033e+000
6.006247e+002,3.277695e+000
6.015889e+002,5.036163e+000
6.025532e+002,8.477814e+000
6.035174e+002,9.734070e+000
6.044816e+002,6.127197e+000
6.054459e+002,3.078186e+000
6.064101e+002,1.125763e+000
6.073743e+002,2.721252e-001
6.083386e+002,5.106659e-001
6.093028e+002,2.432190e+000
6.102670e+002,4.375153e+000
6.112313e+002,5.111282e+000
6.121955e+002,5.028809e+000
6.131597e+002,4.389954e+000
6.141240e+002,3.411057e+000
6.150882e+002,2.450668e+000
6.160524e+002,3.822678e+000
6.170167e+002,7.146667e+000
6.179809e+002,9.521179e+000
6.189451e+002,9.189194e+000
6.199094e+002,6.568848e+000
6.208736e+002,5.357712e+000
6.218378e+002,7.710159e+000
6.228021e+002,9.326309e+000
6.237663e+002,9.660614e+000
6.247305e+002,9.124512e+000
6.256948e+002,8.304382e+000
6.266590e+002,7.143265e+000
6.276232e+002,6.032608e+000
6.285875e+002,5.189148e+000
6.295517e+002,4.677048e+000
6.305159e+002,4.796677e+000
6.314802e+002,5.594574e+000
6.324444e+002,6.383514e+000
6.334086e+002,4.631088e+000
6.343729e+002,1.362595e+000
6.353371e+002,-7.570190e-001
6.363013e+002,-6.921997e-001
6.372656e+002,9.383240e-001
6.382298e+002,2.053848e+000
6.391940e+002,3.100983e+000
6.401583e+002,2.658142e+000
6.411225e+002,-6.974945e-001
6.420867e+002,-4.586227e+000
6.430510e+002,-6.102402e+000
6.440152e+002,-4.014893e+000
6.449794e+002,-1.540909e+000
6.459437e+002,-1.230927e-001
6.469079e+002,7.550354e-001
6.478721e+002,1.561996e+000
6.488364e+002,2.454559e+000
6.498006e+002,3.120529e+000
6.507648e+002,2.705841e+000
6.517291e+002,1.556641e+000
6.526933e+002,4.792328e-001
6.536575e+002,-4.113770e-001
6.546218e+002,-9.159088e-001
6.555860e+002,-5.567322e-001
6.565502e+002,1.688766e+000
6.575145e+002,2.402191e+000
6.584787e+002,4.978180e-001
6.594429e+002,-1.835297e+000
6.604072e+002,-2.862289e+000
6.613714e+002,-2.251953e+000
6.623356e+002,-1.365936e+000
6.632999e+002,-2.971649e-001
6.642641e+002,2.595215e-001
6.652283e+002,-2.600861e-001
6.661926e+002,-1.651917e+000
6.671568e+002,-3.257324e+000
6.681210e+002,-4.632370e+000
6.690853e+002,-5.357849e+000
6.700495e+002,-4.145020e+000
6.710137e+002,-1.129364e+000
6.719780e+002,1.760788e+000
6.729422e+002,2.388168e+000
6.739064e+002,1.476440e-001
6.748707e+002,-1.096527e+000
6.758349e+002,-8.371582e-001
6.767991e+002,-5.303497e-001
6.777634e+002,-7.118683e-001
6.787276e+002,-1.256485e+000
6.796918e+002,-1.635971e+000
6.806561e+002,-1.725830e+000
6.816203e+002,-1.747940e+000
6.825845e+002,-1.702637e+000
6.835488e+002,-1.658020e+000
6.845130e+002,-1.747742e+000
6.854772e+002,-2.085312e+000
6.864415e+002,-2.331039e+000
6.874057e+002,-1.791458e+000
6.883699e+002,-8.381500e-001
6.893342e+002,-8.515930e-002
6.902984e+002,1.630554e-001
6.912626e+002,-2.209473e-002
6.922269e+002,-3.868866e-001
6.931911e+002,-9.881897e-001
6.941553e+002,-1.363388e+000
6.951196e+002,-1.843964e+000
6.960838e+002,-2.162109e+000
6.970480e+002,-1.646805e+000
6.980123e+002,3.648224e-001
6.989765e+002,2.024643e+000
6.999407e+002,2.751328e+000
7.009050e+002,2.780075e+000
7.018692e+002,1.959686e+000
7.028334e+002,3.957825e-001
7.037977e+002,-1.228668e+000
7.047619e+002,-1.740128e+000
7.057261e+002,-1.342041e+000
7.066904e+002,-4.846802e-001
7.076546e+002,7.548370e-001
7.086188e+002,2.155090e+000
7.095831e+002,3.418961e+000
7.105473e+002,4.752563e+000
7.115115e+002,4.843781e+000
7.124758e+002,3.160217e+000
7.134400e+002,9.886932e-001
7.144042e+002,-1.351974e+000
7.153685e+002,-3.708572e+000
7.163327e+002,-4.777710e+000
7.172969e+002,-2.211456e+000
7.182612e+002,2.502747e-001
7.192254e+002,7.537384e-001
7.201896e+002,-1.250000e-001
7.211539e+002,-7.946320e-001
7.221181e+002,1.526489e-001
7.230823e+002,1.878143e+000
7.240466e+002,1.942703e+000
7.250108e+002,8.181763e-001
7.259750e+002,-7.046509e-002
7.269393e+002,5.706787e-002
7.279035e+002,9.172974e-001
7.288677e+002,1.114365e+000
7.298320e+002,-1.553345e-002
7.307962e+002,-5.139160e-001
7.317604e+002,2.546844e-001
7.327247e+002,1.552734e+000
7.336889e+002,2.114471e+000
7.346531e+002,1.123947e+000
7.356174e+002,4.008942e-001
7.365816e+002,2.019241e+000
7.375458e+002,3.913254e+000
7.385101e+002,4.168442e+000
7.394743e+002,2.513794e+000
7.404385e+002,4.810181e-001
7.414028e+002,4.626617e-001
7.423670e+002,1.804749e+000
7.433312e+002,2.313416e+000
7.442955e+002,1.990784e+000
7.452597e+002,1.347153e+000
7.462239e+002,7.871246e-001
7.471882e+002,1.878510e-001
7.481524e+002,3.042603e-002
7.491166e+002,3.718109e-001
7.500809e+002,6.737518e-001
7.510451e+002,7.577362e-001
7.520093e+002,6.473083e-001
7.529736e+002,4.901581e-001
7.539378e+002,4.603882e-001
7.549020e+002,5.355988e-001
7.558663e+002,5.906067e-001
7.568306e+002,7.192230e-001
7.577948e+002,1.162643e+000
7.587590e+002,1.982376e+000
7.597233e+002,2.741470e+000
7.606875e+002,1.990158e+000
7.616517e+002,4.257202e-002
7.626160e+002,-9.550018e-001
7.635802e+002,-5.262756e-002
7.645444e+002,1.727051e+000
7.655087e+002,2.089096e+000
7.664729e+002,-1.007843e-001
7.674371e+002,-1.303391e+000
7.684014e+002,-9.302216e-001
7.693656e+002,-7.415771e-002
7.703298e+002,9.103851e-001
7.712941e+002,1.846817e+000
7.722583e+002,2.114395e+000
7.732225e+002,2.136993e-001
7.741868e+002,-1.530807e+000
7.751510e+002,-8.598022e-001
7.761152e+002,1.572845e+000
7.770795e+002,3.888687e+000
7.780437e+002,4.408890e+000
7.790079e+002,3.394028e+000
7.799722e+002,3.607803e+000
7.809364e+002,5.222153e+000
7.819006e+002,6.250961e+000
7.828649e+002,5.626266e+000
7.838291e+002,3.949249e+000
7.847933e+002,3.137543e+000
7.857576e+002,4.050552e+000
7.867218e+002,4.061661e+000
7.876860e+002,1.800491e+000
7.886503e+002,-5.554962e-001
7.896145e+002,-9.487610e-001
7.905787e+002,1.049271e+000
7.915430e+002,3.474503e+000
7.925072e+002,3.672318e+000
7.934714e+002,3.322510e+000
7.944357e+002,5.019363e+000
7.953999e+002,8.555786e+000
7.963641e+002,1.162816e+001
7.973284e+002,1.154840e+001
7.982926e+002,8.084198e+000
7.992568e+002,5.658829e+000
8.002211e+002,3.810822e+000
8.011853e+002,2.809021e+000
8.021495e+002,3.483902e+000
8.031138e+002,5.475311e+000
8.040780e+002,6.911774e+000
8.050422e+002,6.818039e+000
8.060065e+002,6.849350e+000
8.069707e+002,7.533066e+000
8.079349e+002,8.449036e+000
8.088992e+002,9.500412e+000
8.098634e+002,1.057979e+001
8.108276e+002,1.112450e+001
8.117919e+002,9.775818e+000
8.127561e+002,7.158646e+000
8.137203e+002,4.778763e+000
8.146846e+002,2.955643e+000
8.156488e+002,1.852051e+000
8.166130e+002,1.677856e+000
8.175773e+002,2.627380e+000
8.185415e+002,3.130585e+000
8.195057e+002,2.713287e+000
8.204700e+002,2.311295e+000
8.214342e+002,2.185394e+000
8.223984e+002,2.320114e+000
8.233627e+002,2.704956e+000
8.243269e+002,3.640305e+000
8.252911e+002,4.285309e+000
8.262554e+002,3.375870e+000
8.272196e+002,2.394547e+000
8.281838e+002,3.359894e+000
8.291481e+002,6.681778e+000
8.301123e+002,1.043776e+001
8.310765e+002,1.096063e+001
8.320408e+002,8.527573e+000
8.330050e+002,7.876312e+000
8.339692e+002,9.688522e+000
8.349335e+002,1.200674e+001
8.358977e+002,1.288649e+001
8.368619e+002,1.221713e+001
8.378262e+002,1.144917e+001
8.387904e+002,1.053128e+001
8.397546e+002,9.439041e+000
8.407189e+002,7.917831e+000
8.416831e+002,6.292389e+000
8.426473e+002,5.045898e+000
8.436116e+002,4.388535e+000
8.445758e+002,4.276520e+000
8.455400e+002,4.543915e+000
8.465043e+002,5.068604e+000
8.474685e+002,6.250336e+000
8.484327e+002,8.089172e+000
8.493970e+002,9.718124e+000
8.503612e+002,9.454773e+000
8.513254e+002,6.754562e+000
8.522897e+002,5.842377e+000
8.532539e+002,7.833023e+000
8.542181e+002,9.776825e+000
8.551824e+002,9.542694e+000
8.561466e+002,7.627731e+000
8.571108e+002,7.430573e+000
8.580751e+002,1.167987e+001
8.590393e+002,1.436565e+001
8.600035e+002,1.230385e+001
8.609678e+002,8.608292e+000
8.619320e+002,6.765549e+000
8.628962e+002,8.158234e+000
8.638605e+002,1.116797e+001
8.648247e+002,1.402853e+001
8.657889e+002,1.645522e+001
8.667532e+002,1.785222e+001
8.677174e+002,1.813023e+001
8.686816e+002,1.745032e+001
8.696459e+002,1.570049e+001
8.706101e+002,1.250755e+001
8.715743e+002,1.174162e+001
8.725386e+002,1.588464e+001
8.735028e+002,1.908696e+001
8.744670e+002,1.880283e+001
8.754313e+002,1.668262e+001
8.763955e+002,1.634908e+001
8.773597e+002,1.967622e+001
8.783240e+002,2.261678e+001
8.792882e+002,2.169469e+001
8.802524e+002,1.937630e+001
8.812167e+002,1.726384e+001
8.821809e+002,1.604097e+001
8.831451e+002,1.609637e+001
8.841094e+002,1.810336e+001
8.850736e+002,2.198721e+001
8.860378e+002,2.394554e+001
8.870021e+002,2.338771e+001
8.879663e+002,2.299809e+001
8.889305e+002,2.477708e+001
8.898948e+002,2.805383e+001
8.908590e+002,2.945979e+001
8.918232e+002,2.778250e+001
8.927875e+002,2.592210e+001
8.937517e+002,2.357323e+001
8.947159e+002,2.196860e+001
8.956802e+002,2.270428e+001
8.966444e+002,2.564757e+001
8.976086e+002,2.823561e+001
8.985729e+002,2.763634e+001
8.995371e+002,2.550391e+001
9.005013e+002,2.435606e+001
9.014656e+002,2.430626e+001
9.024298e+002,2.526613e+001
9.033940e+002,2.723305e+001
9.043583e+002,2.988301e+001
9.053225e+002,3.137065e+001
9.062867e+002,3.043596e+001
9.072510e+002,2.970114e+001
9.082152e+002,2.916399e+001
9.091794e+002,2.915021e+001
9.101437e+002,3.017160e+001
9.111079e+002,3.231027e+001
9.120721e+002,3.436041e+001
9.130364e+002,3.636934e+001
9.140006e+002,3.708975e+001
9.149648e+002,3.481468e+001
9.159291e+002,3.088246e+001
9.168933e+002,2.776788e+001
9.178575e+002,2.715436e+001
9.188218e+002,2.844839e+001
9.197860e+002,3.025308e+001
9.207502e+002,3.259352e+001
9.217145e+002,3.357661e+001
9.226787e+002,3.229430e+001
9.236429e+002,3.029657e+001
9.246072e+002,2.988501e+001
9.255714e+002,3.156291e+001
9.265356e+002,3.162013e+001
9.274999e+002,2.726765e+001
9.284641e+002,2.349213e+001
9.294283e+002,2.233705e+001
9.303926e+002,2.301161e+001
9.313568e+002,2.392676e+001
9.323210e+002,2.429988e+001
9.332853e+002,2.416484e+001
9.342495e+002,2.313606e+001
9.352137e+002,2.169879e+001
9.361780e+002,2.066451e+001
9.371422e+002,2.029666e+001
9.381064e+002,2.050569e+001
9.390707e+002,2.112585e+001
9.400349e+002,2.214952e+001
9.409991e+002,2.281361e+001
9.419634e+002,2.345941e+001
9.429276e+002,2.332970e+001
9.438918e+002,2.147839e+001
9.448561e+002,1.900810e+001
9.458203e+002,1.788168e+001
9.467845e+002,1.888046e+001
9.477488e+002,2.017767e+001
9.487130e+002,2.050293e+001
9.496772e+002,2.042564e+001
9.506415e+002,2.021156e+001
9.516057e+002,1.999165e+001
9.525699e+002,1.992827e+001
9.535342e+002,2.017517e+001
9.544984e+002,2.060876e+001
9.554626e+002,2.038432e+001
9.564269e+002,1.933421e+001
9.573911e+002,1.915239e+001
9.583553e+002,2.125993e+001
9.593196e+002,2.400476e+001
9.602838e+002,2.439246e+001
9.612480e+002,2.158926e+001
9.622123e+002,1.931071e+001
9.631765e+002,1.934734e+001
9.641407e+002,1.948869e+001
9.651050e+002,1.828825e+001
9.660692e+002,1.633847e+001
9.670334e+002,1.524638e+001
9.679977e+002,1.608998e+001
9.689619e+002,1.798174e+001
9.699261e+002,1.892487e+001
9.708904e+002,1.909143e+001
9.718546e+002,1.901999e+001
9.728188e+002,1.871536e+001
9.737831e+002,1.844946e+001
9.747473e+002,1.857246e+001
9.757115e+002,1.910405e+001
9.766758e+002,2.016910e+001
9.776400e+002,2.268671e+001
9.786042e+002,2.480104e+001
9.795685e+002,2.620203e+001
9.805327e+002,2.672423e+001
9.814969e+002,2.615540e+001
9.824612e+002,2.448944e+001
9.834254e+002,2.244392e+001
9.843896e+002,2.004436e+001
9.853539e+002,1.785860e+001
9.863181e+002,1.679570e+001
9.872823e+002,1.664954e+001
9.882466e+002,1.645262e+001
9.892108e+002,1.547160e+001
9.901750e+002,1.406961e+001
9.911393e+002,1.385490e+001
9.921035e+002,1.539178e+001
9.930677e+002,1.665964e+001
9.940320e+002,1.802333e+001
9.949962e+002,1.898256e+001
9.959604e+002,1.862834e+001
9.969247e+002,1.703577e+001
9.978889e+002,1.630714e+001
9.988531e+002,1.806215e+001
9.998174e+002,1.983745e+001
1.000782e+003,1.987503e+001
1.001746e+003,1.921666e+001
1.002710e+003,1.969958e+001
1.003674e+003,2.193384e+001
1.004639e+003,2.441006e+001
1.005603e+003,2.433241e+001
1.006567e+003,2.135887e+001
1.007531e+003,2.001172e+001
1.008495e+003,2.100957e+001
1.009460e+003,2.212935e+001
1.010424e+003,2.190034e+001
1.011388e+003,2.073341e+001
1.012352e+003,2.034190e+001
1.013317e+003,2.169101e+001
1.014281e+003,2.204483e+001
1.015245e+003,1.990877e+001
1.016209e+003,1.718004e+001
1.017174e+003,1.524591e+001
1.018138e+003,1.419533e+001
1.019102e+003,1.310588e+001
1.020066e+003,1.115271e+001
1.021031e+003,9.057190e+000
1.021995e+003,9.095764e+000
1.022959e+003,1.070154e+001
1.023923e+003,1.179279e+001
1.024887e+003,1.172749e+001
1.025852e+003,1.073732e+001
1.026816e+003,8.959259e+000
1.027780e+003,6.094833e+000
1.028744e+003,4.288803e+000
1.029709e+003,4.458328e+000
1.030673e+003,4.750641e+000
1.031637e+003,4.576920e+000
1.032601e+003,4.156937e+000
1.033566e+003,4.002640e+000
1.034530e+003,4.307083e+000
1.035494e+003,4.538223e+000
1.036458e+003,3.949326e+000
1.037422e+003,2.896271e+000
1.038387e+003,1.902771e+000
1.039351e+003,1.013062e+000
1.040315e+003,4.484711e-001
1.041279e+003,4.491882e-001
1.042244e+003,9.344940e-001
1.043208e+003,1.319580e+000
1.044172e+003,1.629196e+000
1.045136e+003,1.525696e+000
1.046101e+003,1.269226e-001
1.047065e+003,-7.147980e-001
1.048029e+003,1.006180e+000
1.048993e+003,4.417664e+000
1.049958e+003,6.030197e+000
1.050922e+003,3.596725e+000
1.051886e+003,7.171326e-001
1.052850e+003,1.518402e+000
1.053814e+003,3.882278e+000
1.054779e+003,5.152374e+000
1.055743e+003,4.731049e+000
1.056707e+003,3.656418e+000
1.057671e+003,3.194229e+000
1.058636e+003,3.328140e+000
1.059600e+003,2.811859e+000
1.060564e+003,-1.164246e-002
1.061528e+003,-8.163910e-001
1.062493e+003,2.664978e+000
1.063457e+003,7.143250e+000
1.064421e+003,9.111313e+000
1.065385e+003,8.218613e+000
1.066349e+003,6.343292e+000
1.067314e+003,3.368607e+000
1.068278e+003,9.800873e-001
1.069242e+003,4.516144e-001
1.070206e+003,1.251266e+000
1.071171e+003,2.798630e+000
1.072135e+003,4.626877e+000
1.073099e+003,6.005692e+000
1.074063e+003,5.692825e+000
1.075028e+003,3.485947e+000
1.075992e+003,2.770889e+000
1.076956e+003,4.434784e+000
1.077920e+003,5.657181e+000
1.078885e+003,5.111282e+000
1.079849e+003,3.704086e+000
1.080813e+003,2.935043e+000
1.081777e+003,3.003647e+000
1.082741e+003,3.779236e+000
1.083706e+003,6.368759e+000
1.084670e+003,8.419128e+000
1.085634e+003,8.328064e+000
1.086598e+003,6.697144e+000
1.087563e+003,4.791397e+000
1.088527e+003,3.409027e+000
1.089491e+003,2.464310e+000
1.090455e+003,1.588898e+000
1.091420e+003,7.053375e-001
1.092384e+003,7.587280e-001
1.093348e+003,2.199585e+000
1.094312e+003,3.581024e+000
1.095276e+003,4.015839e+000
1.096241e+003,3.872238e+000
1.097205e+003,4.356064e+000
1.098169e+003,6.293259e+000
1.099133e+003,6.558350e+000
1.100098e+003,1.687408e+000
1.101062e+003,-2.889664e+000
1.102026e+003,-3.294235e+000
1.102990e+003,-5.136871e-001
1.103955e+003,2.479309e+000
1.104919e+003,3.827850e+000
1.105883e+003,3.830322e+000
1.106847e+003,2.875671e+000
1.107812e+003,9.739685e-001
1.108776e+003,4.902039e-001
1.109740e+003,2.306671e+000
1.110704e+003,3.919922e+000
1.111668e+003,3.136307e+000
1.112633e+003,6.932678e-001
1.113597e+003,-3.313446e-001
1.114561e+003,9.266968e-001
1.115525e+003,2.053482e+000
1.116490e+003,1.768585e+000
1.117454e+003,1.577362e+000
1.118418e+003,3.220490e+000
1.119382e+003,5.878387e+000
1.120347e+003,6.952393e+000
1.121311e+003,4.784576e+000
1.122275e+003,1.291855e+000
1.123239e+003,7.656860e-001
1.124203e+003,3.124680e+000
1.125168e+003,5.020233e+000
1.126132e+003,6.190033e+000
1.127096e+003,7.053864e+000
1.128060e+003,7.805328e+000
1.129025e+003,8.421082e+000
1.129989e+003,8.941101e+000
1.130953e+003,9.282486e+000
1.131917e+003,9.613297e+000
1.132882e+003,9.865280e+000
1.133846e+003,1.031032e+001
1.134810e+003,1.148106e+001
1.135774e+003,1.295811e+001
1.136739e+003,1.367363e+001
1.137703e+003,1.303912e+001
1.138667e+003,1.192880e+001
1.139631e+003,1.184087e+001
1.140595e+003,1.274481e+001
1.141560e+003,1.392944e+001
1.142524e+003,1.531676e+001
1.143488e+003,1.746585e+001
1.144452e+003,2.126476e+001
1.145417e+003,2.611220e+001
1.146381e+003,2.944801e+001
1.147345e+003,2.988983e+001
1.148309e+003,3.237738e+001
1.149274e+003,3.956149e+001
1.150238e+003,4.752945e+001
1.151202e+003,5.486157e+001
1.152166e+003,6.144191e+001
1.153130e+003,6.777141e+001
1.154095e+003,7.389389e+001
1.155059e+003,7.860918e+001
1.156023e+003,8.026672e+001
1.156987e+003,7.898196e+001
1.157952e+003,7.672913e+001
1.158916e+003,7.363760e+001
1.159880e+003,7.008130e+001
1.160844e+003,6.606110e+001
1.161809e+003,6.140163e+001
1.162773e+003,5.587157e+001
1.163737e+003,4.920876e+001
1.164701e+003,4.290295e+001
1.165666e+003,3.686557e+001
1.166630e+003,3.193983e+001
1.167594e+003,2.891789e+001
1.168558e+003,2.698122e+001
1.169522e+003,2.488031e+001
1.170487e+003,2.235635e+001
1.171451e+003,2.069734e+001
1.172415e+003,2.161671e+001
1.173379e+003,2.423625e+001
1.174344e+003,2.362086e+001
1.175308e+003,1.964319e+001
1.176272e+003,1.650226e+001
1.177236e+003,1.632846e+001
1.178201e+003,1.710959e+001
1.179165e+003,1.594955e+001
1.180129e+003,1.274388e+001
1.181093e+003,1.031961e+001
1.182057e+003,9.610184e+000
1.183022e+003,9.374451e+000
1.183986e+003,9.121262e+000
1.184950e+003,9.075027e+000
1.185914e+003,9.608170e+000
1.186879e+003,1.065686e+001
1.187843e+003,1.182265e+001
1.188807e+003,1.276572e+001
1.189771e+003,1.335762e+001
1.190736e+003,1.315498e+001
1.191700e+003,1.200359e+001
1.192664e+003,1.167906e+001
1.193628e+003,1.322218e+001
1.194593e+003,1.458168e+001
1.195557e+003,1.407895e+001
1.196521e+003,1.216687e+001
1.197485e+003,1.038467e+001
1.198449e+003,8.822952e+000
1.199414e+003,7.898254e+000
1.200378e+003,8.663528e+000
1.201342e+003,9.354706e+000
1.202306e+003,8.456955e+000
1.203271e+003,6.591476e+000
1.204235e+003,5.320068e+000
1.205199e+003,5.397888e+000
1.206163e+003,6.084229e+000
1.207128e+003,6.112335e+000
1.208092e+003,5.445709e+000
1.209056e+003,5.045181e+000
1.210020e+003,5.034775e+000
1.210984e+003,4.999969e+000
1.211949e+003,5.342957e+000
1.212913e+003,5.235794e+000
1.213877e+003,3.171158e+000
1.214841e+003,-8.179321e-001
1.215806e+003,-3.945419e+000
1.216770e+003,-4.885132e+000
1.217734e+003,-5.107239e+000
1.218698e+003,-5.401108e+000
1.219663e+003,-5.921402e+000
1.220627e+003,-7.021484e+000
1.221591e+003,-8.606628e+000
1.222555e+003,-1.004739e+001
1.223520e+003,-1.073799e+001
1.224484e+003,-1.079787e+001
1.225448e+003,-1.098148e+001
1.226412e+003,-1.137321e+001
1.227376e+003,-1.175877e+001
1.228341e+003,-1.264183e+001
1.229305e+003,-1.302448e+001
1.230269e+003,-1.171996e+001
1.231233e+003,-9.717560e+000
1.232198e+003,-9.309601e+000
1.233162e+003,-1.115009e+001
1.234126e+003,-1.251556e+001
1.235090e+003,-1.080122e+001
1.236055e+003,-8.400085e+000
1.237019e+003,-7.997360e+000
1.237983e+003,-9.076035e+000
1.238947e+003,-9.939041e+000
1.239911e+003,-9.839539e+000
1.240876e+003,-9.627884e+000
1.241840e+003,-1.082451e+001
1.242804e+003,-1.360361e+001
1.243768e+003,-1.451645e+001
1.244733e+003,-1.133009e+001
1.245697e+003,-9.167389e+000
1.246661e+003,-8.730347e+000
1.247625e+003,-9.295822e+000
1.248590e+003,-1.112460e+001
1.249554e+003,-1.332426e+001
1.250518e+003,-1.360437e+001
1.251482e+003,-1.083835e+001
1.252447e+003,-7.454697e+000
1.253411e+003,-6.234329e+000
1.254375e+003,-6.430878e+000
1.255339e+003,-6.595078e+000
1.256303e+003,-6.609940e+000
1.257268e+003,-6.520462e+000
1.258232e+003,-6.306641e+000
1.259196e+003,-6.273132e+000
1.260160e+003,-7.090164e+000
1.261125e+003,-8.917145e+000
1.262089e+003,-1.008659e+001
1.263053e+003,-1.085770e+001
1.264017e+003,-1.046207e+001
1.264982e+003,-7.587982e+000
1.265946e+003,-4.252029e+000
1.266910e+003,-2.057266e+000
1.267874e+003,-1.296234e+000
1.268839e+003,-1.724777e+000
1.269803e+003,-3.200226e+000
1.270767e+003,-5.203552e+000
1.271731e+003,-6.862869e+000
1.272695e+003,-8.074463e+000
1.273660e+003,-8.413849e+000
1.274624e+003,-7.647598e+000
1.275588e+003,-6.974457e+000
1.276552e+003,-7.087006e+000
1.277517e+003,-7.545853e+000
1.278481e+003,-7.488037e+000
1.279445e+003,-6.824020e+000
1.280409e+003,-6.704819e+000
1.281374e+003,-7.938614e+000
1.282338e+003,-9.188477e+000
1.283302e+003,-9.932877e+000
1.284266e+003,-1.023500e+001
1.285230e+003,-9.980316e+000
1.286195e+003,-9.344009e+000
1.287159e+003,-8.915009e+000
1.288123e+003,-9.148178e+000
1.289087e+003,-9.605759e+000
1.290052e+003,-9.033371e+000
1.291016e+003,-6.787552e+000
1.291980e+003,-6.206039e+000
1.292944e+003,-8.997833e+000
1.293909e+003,-1.124197e+001
1.294873e+003,-1.086359e+001
1.295837e+003,-9.265839e+000
1.296801e+003,-8.363907e+000
1.297766e+003,-8.425201e+000
1.298730e+003,-8.795135e+000
1.299694e+003,-9.368210e+000
1.300658e+003,-9.817047e+000
1.301622e+003,-9.762741e+000
1.302587e+003,-9.299149e+000
1.303551e+003,-8.382294e+000
1.304515e+003,-7.062744e+000
1.305479e+003,-6.015015e+000
1.306444e+003,-5.869339e+000
1.307408e+003,-6.404526e+000
1.308372e+003,-6.726501e+000
1.309336e+003,-6.666443e+000
1.310301e+003,-6.943314e+000
1.311265e+003,-7.846191e+000
1.312229e+003,-8.672195e+000
1.313193e+003,-9.553864e+000
1.314157e+003,-1.006612e+001
1.315122e+003,-9.326538e+000
1.316086e+003,-7.688522e+000
1.317050e+003,-6.827301e+000
1.318014e+003,-7.852448e+000
1.318979e+003,-9.795517e+000
1.319943e+003,-1.134448e+001
1.320907e+003,-1.229433e+001
1.321871e+003,-1.146248e+001
1.322836e+003,-8.345718e+000
1.323800e+003,-5.461533e+000
1.324764e+003,-4.166855e+000
1.325728e+003,-3.883286e+000
1.326693e+003,-3.598557e+000
1.327657e+003,-3.319702e+000
1.328621e+003,-3.949524e+000
1.329585e+003,-6.384323e+000
1.330549e+003,-8.162354e+000
1.331514e+003,-8.025543e+000
1.332478e+003,-7.116837e+000
1.333442e+003,-6.134399e+000
1.334406e+003,-5.330414e+000
1.335371e+003,-4.982574e+000
1.336335e+003,-5.245590e+000
1.337299e+003,-5.853714e+000
1.338263e+003,-6.350769e+000
1.339228e+003,-6.747223e+000
1.340192e+003,-6.894577e+000
1.341156e+003,-6.295349e+000
1.342120e+003,-6.198929e+000
1.343084e+003,-7.814224e+000
1.344049e+003,-9.221100e+000
1.345013e+003,-8.092682e+000
1.345977e+003,-5.287415e+000
1.346941e+003,-3.982117e+000
1.347906e+003,-5.402634e+000
1.348870e+003,-7.096680e+000
1.349834e+003,-6.508667e+000
1.350798e+003,-5.033630e+000
1.351763e+003,-5.629700e+000
1.352727e+003,-7.851501e+000
1.353691e+003,-9.089233e+000
1.354655e+003,-8.266678e+000
1.355620e+003,-6.605988e+000
1.356584e+003,-5.345703e+000
1.357548e+003,-4.451385e+000
1.358512e+003,-3.825577e+000
1.359476e+003,-3.375458e+000
1.360441e+003,-3.744858e+000
1.361405e+003,-5.717300e+000
1.362369e+003,-7.753937e+000
1.363333e+003,-9.543793e+000
1.364298e+003,-1.071228e+001
1.365262e+003,-1.051183e+001
1.366226e+003,-9.063980e+000
1.367190e+003,-7.671890e+000
1.368155e+003,-7.505798e+000
1.369119e+003,-8.143784e+000
1.370083e+003,-8.234283e+000
1.371047e+003,-7.535339e+000
1.372011e+003,-7.119919e+000
1.372976e+003,-7.492584e+000
1.373940e+003,-7.650925e+000
1.374904e+003,-6.651154e+000
1.375868e+003,-5.535233e+000
1.376833e+003,-6.017319e+000
1.377797e+003,-7.961334e+000
1.378761e+003,-9.199554e+000
1.379725e+003,-8.629181e+000
1.380690e+003,-7.640045e+000
1.381654e+003,-7.842865e+000
1.382618e+003,-8.384598e+000
1.383582e+003,-8.071320e+000
1.384547e+003,-6.901016e+000
1.385511e+003,-5.379227e+000
1.386475e+003,-3.619797e+000
1.387439e+003,-2.252792e+000
1.388403e+003,-2.497131e+000
1.389368e+003,-4.354874e+000
1.390332e+003,-5.635849e+000
1.391296e+003,-6.291458e+000
1.392260e+003,-6.188797e+000
1.393225e+003,-4.664841e+000
1.394189e+003,-3.192047e+000
1.395153e+003,-2.808899e+000
1.396117e+003,-2.940491e+000
1.397082e+003,-2.318741e+000
1.398046e+003,-8.280029e-001
1.399010e+003,1.052856e-003
1.399974e+003,-1.341309e+000
1.400938e+003,-3.954849e+000
1.401903e+003,-4.631195e+000
1.402867e+003,-2.429810e+000
1.403831e+003,-1.350296e+000
1.404795e+003,-2.195313e+000
1.405760e+003,-3.225601e+000
1.406724e+003,-4.351257e+000
1.407688e+003,-5.281693e+000
1.408652e+003,-5.494064e+000
1.409617e+003,-4.933563e+000
1.410581e+003,-3.782578e+000
1.411545e+003,-1.927536e+000
1.412509e+003,-5.301971e-001
1.413474e+003,-1.339584e+000
1.414438e+003,-3.094147e+000
1.415402e+003,-3.384552e+000
1.416366e+003,-2.330109e+000
1.417330e+003,-1.406982e+000
1.418295e+003,-1.153687e+000
1.419259e+003,-1.329849e+000
1.420223e+003,-1.848450e+000
1.421187e+003,-2.682037e+000
1.422152e+003,-3.301743e+000
1.423116e+003,-3.528214e+000
1.424080e+003,-3.790558e+000
1.425044e+003,-4.550842e+000
1.426009e+003,-5.151459e+000
1.426973e+003,-5.324722e+000
1.427937e+003,-5.186371e+000
1.428901e+003,-4.880356e+000
1.429865e+003,-4.370728e+000
1.430830e+003,-3.382568e+000
1.431794e+003,-1.793701e+000
1.432758e+003,-2.073517e-001
1.433722e+003,2.161102e-001
1.434687e+003,-5.498962e-001
1.435651e+003,-4.476166e-001
1.436615e+003,1.319214e+000
1.437579e+003,2.183517e+000
1.438544e+003,1.209152e+000
1.439508e+003,7.429504e-002
1.440472e+003,1.430206e-001
1.441436e+003,8.966064e-001
1.442401e+003,9.189911e-001
1.443365e+003,-4.301453e-002
1.444329e+003,-4.814301e-001
1.445293e+003,9.094696e-001
1.446257e+003,3.023926e+000
1.447222e+003,3.717834e+000
1.448186e+003,3.189957e+000
1.449150e+003,2.452896e+000
1.450114e+003,1.519455e+000
1.451079e+003,5.460052e-001
1.452043e+003,-5.687408e-001
1.453007e+003,-1.438126e+000
1.453971e+003,-1.227173e+000
1.454936e+003,-2.033844e-001
1.455900e+003,-2.914124e-001
1.456864e+003,-2.225479e+000
1.457828e+003,-3.964462e+000
1.458792e+003,-4.649536e+000
1.459757e+003,-4.432541e+000
1.460721e+003,-2.855072e+000
1.461685e+003,-6.250000e-001
1.462649e+003,9.270630e-001
1.463614e+003,1.493240e+000
1.464578e+003,1.724014e+000
1.465542e+003,2.217453e+000
1.466506e+003,2.622849e+000
1.467471e+003,1.690018e+000
1.468435e+003,-1.084717e+000
1.469399e+003,-2.152054e+000
1.470363e+003,1.500244e-001
1.471328e+003,1.890274e+000
1.472292e+003,1.245010e+000
1.473256e+003,5.022125e-001
1.474220e+003,2.073288e+000
1.475184e+003,4.807571e+000
1.476149e+003,5.852707e+000
1.477113e+003,4.467117e+000
1.478077e+003,2.913971e+000
1.479041e+003,3.484604e+000
1.480006e+003,5.411087e+000
1.480970e+003,5.954498e+000
1.481934e+003,4.673676e+000
1.482898e+003,3.394424e+000
1.483863e+003,1.270538e+000
1.484827e+003,2.936859e-001
1.485791e+003,1.956360e+000
1.486755e+003,4.290985e+000
1.487719e+003,5.475235e+000
1.488684e+003,5.682373e+000
1.489648e+003,6.038208e+000
1.490612e+003,6.931198e+000
1.491576e+003,7.546783e+000
1.492541e+003,6.952469e+000
1.493505e+003,5.996475e+000
1.494469e+003,6.763718e+000
1.495433e+003,8.875885e+000
1.496398e+003,1.076944e+001
1.497362e+003,1.251505e+001
1.498326e+003,1.370671e+001
1.499290e+003,1.349054e+001
1.500255e+003,1.302174e+001
1.501219e+003,1.396608e+001
1.502183e+003,1.610596e+001
1.503147e+003,1.798413e+001
1.504111e+003,1.913554e+001
1.505076e+003,2.073657e+001
1.506040e+003,2.309634e+001
1.507004e+003,2.674042e+001
1.507968e+003,3.328926e+001
1.508933e+003,4.103452e+001
1.509897e+003,4.600681e+001
1.510861e+003,4.777463e+001
1.511825e+003,5.008676e+001
1.512790e+003,5.564543e+001
1.513754e+003,6.285812e+001
1.514718e+003,6.890611e+001
1.515682e+003,7.371246e+001
1.516646e+003,7.815157e+001
1.517611e+003,8.184483e+001
1.518575e+003,8.649916e+001
1.519539e+003,9.497984e+001
1.520503e+003,1.022917e+002
1.521468e+003,1.055227e+002
1.522432e+003,1.059990e+002
1.523396e+003,1.052869e+002
1.524360e+003,1.040196e+002
1.525325e+003,1.027365e+002
1.526289e+003,1.018268e+002
1.527253e+003,1.007205e+002
1.528217e+003,9.835971e+001
1.529182e+003,9.480908e+001
1.530146e+003,9.052791e+001
1.531110e+003,8.575600e+001
1.532074e+003,7.954689e+001
1.533039e+003,7.086195e+001
1.534003e+003,6.167497e+001
1.534967e+003,5.237572e+001
1.535931e+003,4.372360e+001
1.536896e+003,3.643399e+001
1.537860e+003,3.052032e+001
1.538824e+003,2.551997e+001
1.539788e+003,2.114333e+001
1.540752e+003,1.750949e+001
1.541717e+003,1.486330e+001
1.542681e+003,1.311243e+001
1.543645e+003,1.128813e+001
1.544609e+003,9.125519e+000
1.545573e+003,7.897781e+000
1.546538e+003,7.900452e+000
1.547502e+003,8.165298e+000
1.548466e+003,8.699524e+000
1.549430e+003,9.261978e+000
1.550395e+003,9.205734e+000
1.551359e+003,8.899139e+000
1.552323e+003,9.955765e+000
1.553287e+003,1.277872e+001
1.554252e+003,1.476140e+001
1.555216e+003,1.346671e+001
1.556180e+003,1.015434e+001
1.557144e+003,7.543991e+000
1.558109e+003,5.717224e+000
1.559073e+003,4.587265e+000
1.560037e+003,4.218750e+000
1.561001e+003,4.139221e+000
1.561966e+003,4.665176e+000
1.562930e+003,5.206604e+000
1.563894e+003,4.885971e+000
1.564858e+003,4.116394e+000
1.565823e+003,4.113144e+000
1.566787e+003,5.054977e+000
1.567751e+003,5.897339e+000
1.568715e+003,6.046524e+000
1.569679e+003,6.013977e+000
1.570644e+003,6.616608e+000
1.571608e+003,7.376114e+000
1.572572e+003,6.858322e+000
1.573536e+003,5.039307e+000
1.574500e+003,3.887573e+000
1.575465e+003,3.940842e+000
1.576429e+003,4.938812e+000
1.577393e+003,7.713135e+000
1.578357e+003,1.078990e+001
1.579322e+003,1.067535e+001
1.580286e+003,7.499115e+000
1.581250e+003,5.862976e+000
1.582214e+003,7.626450e+000
1.583179e+003,9.365356e+000
1.584143e+003,7.941193e+000
1.585107e+003,5.613083e+000
1.586071e+003,5.829727e+000
1.587036e+003,7.857681e+000
1.588000e+003,9.037216e+000
1.588964e+003,8.700027e+000
1.589928e+003,8.176193e+000
1.590893e+003,8.261597e+000
1.591857e+003,8.759186e+000
1.592821e+003,9.632980e+000
1.593785e+003,1.073735e+001
1.594750e+003,1.101321e+001
1.595714e+003,1.014723e+001
1.596678e+003,9.407379e+000
1.597642e+003,9.445145e+000
1.598606e+003,9.565262e+000
1.599571e+003,8.673065e+000
1.600535e+003,7.883362e+000
1.601499e+003,9.207230e+000
1.602463e+003,1.219336e+001
1.603427e+003,1.405667e+001
1.604392e+003,1.361671e+001
1.605356e+003,1.230905e+001
1.606320e+003,1.128893e+001
1.607284e+003,1.063193e+001
1.608249e+003,1.054817e+001
1.609213e+003,1.104663e+001
1.610177e+003,1.215752e+001
1.611141e+003,1.469676e+001
1.612106e+003,1.582391e+001
1.613070e+003,1.219437e+001
1.614034e+003,8.431717e+000
1.614998e+003,7.958023e+000
1.615963e+003,9.655365e+000
1.616927e+003,1.177786e+001
1.617891e+003,1.381352e+001
1.618855e+003,1.540863e+001
1.619820e+003,1.636005e+001
1.620784e+003,1.646313e+001
1.621748e+003,1.515773e+001
1.622712e+003,1.288385e+001
1.623677e+003,1.186505e+001
1.624641e+003,1.243837e+001
1.625605e+003,1.232507e+001
1.626569e+003,9.908539e+000
1.627533e+003,8.245499e+000
1.628498e+003,9.855240e+000
1.629462e+003,1.207561e+001
1.630426e+003,1.231401e+001
1.631390e+003,1.139377e+001
1.632354e+003,1.169044e+001
1.633319e+003,1.363371e+001
1.634283e+003,1.521332e+001
1.635247e+003,1.483788e+001
1.636211e+003,1.352875e+001
1.637176e+003,1.321404e+001
1.638140e+003,1.384848e+001
1.639104e+003,1.420065e+001
1.640068e+003,1.429811e+001
1.641033e+003,1.366298e+001
1.641997e+003,1.129807e+001
1.642961e+003,9.523575e+000
1.643925e+003,9.714539e+000
1.644890e+003,1.076707e+001
1.645854e+003,1.176691e+001
1.646818e+003,1.261853e+001
1.647782e+003,1.350519e+001
1.648747e+003,1.445500e+001
1.649711e+003,1.513519e+001
1.650675e+003,1.529837e+001
1.651639e+003,1.514189e+001
1.652604e+003,1.500952e+001
1.653568e+003,1.484163e+001
1.654532e+003,1.410628e+001
1.655496e+003,1.246751e+001
1.656460e+003,1.139122e+001
1.657425e+003,1.161035e+001
1.658389e+003,1.214305e+001
1.659353e+003,1.265906e+001
1.660317e+003,1.302632e+001
1.661281e+003,1.276482e+001
1.662246e+003,1.223344e+001
1.663210e+003,1.282477e+001
1.664174e+003,1.494212e+001
1.665138e+003,1.650923e+001
1.666103e+003,1.558032e+001
1.667067e+003,1.318886e+001
1.668031e+003,1.124773e+001
1.668995e+003,9.795715e+000
1.669960e+003,9.098984e+000
1.670924e+003,9.423019e+000
1.671888e+003,9.555801e+000
1.672852e+003,8.793610e+000
1.673817e+003,8.149216e+000
1.674781e+003,8.563721e+000
1.675745e+003,9.190292e+000
1.676709e+003,8.945007e+000
1.677674e+003,8.073135e+000
1.678638e+003,7.648514e+000
1.679602e+003,8.001160e+000
1.680566e+003,8.207275e+000
1.681531e+003,7.393417e+000
1.682495e+003,6.331940e+000
1.683459e+003,6.429779e+000
1.684423e+003,7.418365e+000
1.685387e+003,7.786057e+000
1.686352e+003,7.331802e+000
1.687316e+003,7.099854e+000
1.688280e+003,7.662277e+000
1.689244e+003,8.060699e+000
1.690208e+003,7.120499e+000
1.691173e+003,5.918900e+000
1.692137e+003,5.677734e+000
1.693101e+003,6.293655e+000
1.694065e+003,7.296539e+000
1.695030e+003,8.545898e+000
1.695994e+003,9.072281e+000
1.696958e+003,8.130493e+000
1.697922e+003,6.426270e+000
1.698887e+003,4.528992e+000
1.699851e+003,2.651932e+000
1.700815e+003,1.387131e+000
1.701779e+003,7.514343e-001
1.702744e+003,5.053558e-001
1.703708e+003,6.963348e-001
1.704672e+003,1.153397e+000
1.705636e+003,1.940353e+000
1.706601e+003,2.513290e+000
1.707565e+003,1.685852e+000
1.708529e+003,1.489868e-001
1.709493e+003,2.274323e-001
1.710458e+003,2.393768e+000
1.711422e+003,4.065262e+000
1.712386e+003,4.122101e+000
1.713350e+003,3.517334e+000
1.714314e+003,2.373444e+000
1.715279e+003,1.286896e+000
1.716243e+003,1.668884e+000
1.717207e+003,3.223450e+000
1.718171e+003,3.990707e+000
1.719135e+003,3.445923e+000
1.720100e+003,2.977890e+000
1.721064e+003,3.541748e+000
1.722028e+003,4.408249e+000
1.722992e+003,4.626450e+000
1.723957e+003,4.354294e+000
1.724921e+003,4.104279e+000
1.725885e+003,3.812622e+000
1.726849e+003,3.141434e+000
1.727814e+003,1.425446e+000
1.728778e+003,4.276428e-001
1.729742e+003,1.354828e+000
1.730706e+003,2.875610e+000
1.731671e+003,3.998642e+000
1.732635e+003,4.431595e+000
1.733599e+003,3.623520e+000
1.734563e+003,1.893646e+000
1.735528e+003,1.069138e+000
1.736492e+003,2.067307e+000
1.737456e+003,3.077438e+000
1.738420e+003,1.811127e+000
1.739385e+003,-8.699188e-001
1.740349e+003,-1.487762e+000
1.741313e+003,5.702820e-001
1.742277e+003,1.865067e+000
1.743241e+003,2.116867e+000
1.744206e+003,2.228928e+000
1.745170e+003,2.207245e+000
1.746134e+003,2.108643e+000
1.747098e+003,2.085480e+000
1.748063e+003,1.899902e+000
1.749027e+003,1.111908e+000
1.749991e+003,-3.469849e-002
1.750955e+003,-9.763794e-001
1.751919e+003,-1.479813e+000
1.752884e+003,-1.451584e+000
1.753848e+003,-7.972565e-001
1.754812e+003,-1.457214e-002
1.755776e+003,-1.677856e-001
1.756741e+003,-1.137878e+000
1.757705e+003,-9.617920e-001
1.758669e+003,9.022064e-001
1.759633e+003,2.143768e+000
1.760598e+003,2.268478e+000
1.761562e+003,1.990799e+000
1.762526e+003,1.402405e+000
1.763490e+003,7.663879e-001
1.764455e+003,1.020355e-001
1.765419e+003,-3.910065e-001
1.766383e+003,-4.601898e-001
1.767347e+003,-1.426392e-001
1.768312e+003,5.090332e-001
1.769276e+003,1.471130e+000
1.770240e+003,1.824539e+000
1.771204e+003,2.199554e-001
1.772168e+003,-2.065887e+000
1.773133e+003,-1.975540e+000
1.774097e+003,2.176514e-001
1.775061e+003,1.871277e+000
1.776025e+003,2.692856e+000
1.776990e+003,2.617676e+000
1.777954e+003,1.278015e+000
1.778918e+003,7.403564e-002
1.779882e+003,4.748383e-001
1.780846e+003,1.050507e+000
1.781811e+003,-6.115112e-001
1.782775e+003,-3.610504e+000
1.783739e+003,-4.843002e+000
1.784703e+003,-3.719986e+000
1.785668e+003,-2.429047e+000
1.786632e+003,-1.740417e+000
1.787596e+003,-1.499817e+000
1.788560e+003,-1.734695e+000
1.789525e+003,-2.061295e+000
1.790489e+003,-2.164917e+000
1.791453e+003,-1.988083e+000
1.792417e+003,-1.173584e+000
1.793382e+003,2.434998e-001
1.794346e+003,1.313248e+000
1.795310e+003,1.533325e+000
1.796274e+003,1.069992e+000
1.797239e+003,5.633545e-002
1.798203e+003,-1.211075e+000
1.799167e+003,-2.135056e+000
1.800131e+003,-2.971451e+000
1.801095e+003,-2.735519e+000
1.802060e+003,3.973236e-001
1.803024e+003,1.862213e+000
1.803988e+003,-3.485565e-001
1.804952e+003,-2.475037e+000
1.805917e+003,-2.593399e+000
1.806881e+003,-1.903870e+000
1.807845e+003,-1.608841e+000
1.808809e+003,-1.567566e+000
1.809773e+003,-1.066422e+000
1.810738e+003,-5.499268e-002
1.811702e+003,8.259735e-001
1.812666e+003,1.162918e+000
1.813630e+003,1.008789e+000
1.814595e+003,3.511047e-001
1.815559e+003,-6.468048e-001
1.816523e+003,-1.201431e+000
1.817487e+003,-1.257202e+000
1.818452e+003,-1.236069e+000
1.819416e+003,-9.811859e-001
1.820380e+003,-1.007935e+000
1.821344e+003,-2.023590e+000
1.822309e+003,-2.683838e+000
1.823273e+003,-1.811478e+000
1.824237e+003,-4.237061e-001
1.825201e+003,3.971252e-001
1.826166e+003,8.107300e-001
1.827130e+003,1.696838e+000
1.828094e+003,3.131287e+000
1.829058e+003,3.316116e+000
1.830022e+003,6.657562e-001
1.830987e+003,-1.782730e+000
1.831951e+003,-6.432343e-001
1.832915e+003,1.594177e+000
1.833879e+003,7.614441e-001
1.834844e+003,-2.076523e+000
1.835808e+003,-3.068710e+000
1.836772e+003,-1.755493e+000
1.837736e+003,-5.200958e-001
1.838700e+003,-4.392700e-001
1.839665e+003,-3.735199e-001
1.840629e+003,8.453217e-001
1.841593e+003,2.511688e+000
1.842557e+003,3.113907e+000
1.843522e+003,2.654434e+000
1.844486e+003,1.595230e+000
1.845450e+003,-1.235046e+000
1.846414e+003,-2.157959e+000
1.847379e+003,5.841522e-001
1.848343e+003,2.565796e+000
1.849307e+003,1.581406e+000
1.850271e+003,4.432068e-001
1.851236e+003,1.949738e+000
1.852200e+003,4.198883e+000
1.853164e+003,3.825333e+000
1.854128e+003,1.298950e+000
1.855093e+003,-1.178894e-001
1.856057e+003,7.775421e-001
1.857021e+003,2.055115e+000
1.857985e+003,2.075455e+000
1.858949e+003,1.467957e+000
1.859914e+003,1.417953e+000
1.860878e+003,1.769135e+000
1.861842e+003,1.367538e+000
1.862806e+003,1.577606e-001
1.863771e+003,-5.220337e-001
1.864735e+003,-3.801880e-001
1.865699e+003,-1.791687e-001
1.866663e+003,-1.605988e-001
1.867627e+003,-2.369995e-001
1.868592e+003,-5.713806e-001
1.869556e+003,-9.268494e-001
1.870520e+003,-4.809265e-001
1.871484e+003,5.483704e-001
1.872449e+003,5.180511e-001
1.873413e+003,-1.125381e+000
1.874377e+003,-1.510223e+000
1.875341e+003,1.386703e+000
1.876306e+003,3.834976e+000
1.877270e+003,3.403748e+000
1.878234e+003,1.939362e+000
1.879198e+003,1.048920e+000
1.880163e+003,7.458801e-001
1.881127e+003,9.715424e-001
1.882091e+003,1.455048e+000
1.883055e+003,1.397141e+000
1.884020e+003,5.143738e-001
1.884984e+003,-5.405426e-001
1.885948e+003,-1.195465e+000
1.886912e+003,-1.290054e+000
1.887876e+003,-3.280792e-001
1.888841e+003,1.550079e+000
1.889805e+003,2.283676e+000
1.890769e+003,1.484039e+000
1.891733e+003,1.791656e+000
1.892698e+003,4.214066e+000
1.893662e+003,5.741882e+000
1.894626e+003,5.053040e+000
1.895590e+003,3.621628e+000
1.896554e+003,1.900742e+000
1.897519e+003,4.761505e-001
1.898483e+003,2.747192e-001
1.899447e+003,8.832550e-001
1.900411e+003,9.186554e-001
1.901376e+003,1.316071e-001
1.902340e+003,-2.416687e-001
1.903304e+003,5.147705e-001
1.904268e+003,1.369080e+000
1.905233e+003,1.638077e+000
1.906197e+003,1.806625e+000
1.907161e+003,2.567856e+000
1.908125e+003,3.529160e+000
1.909090e+003,3.615936e+000
1.910054e+003,3.044403e+000
1.911018e+003,3.456314e+000
1.911982e+003,5.226089e+000
1.912947e+003,6.277969e+000
1.913911e+003,5.065842e+000
1.914875e+003,3.393845e+000
1.915839e+003,4.191879e+000
1.916803e+003,6.700928e+000
1.917768e+003,7.128479e+000
1.918732e+003,5.056152e+000
1.919696e+003,4.027603e+000
1.920660e+003,4.507202e+000
1.921625e+003,5.000854e+000
1.922589e+003,5.323898e+000
1.923553e+003,5.293549e+000
1.924517e+003,4.380432e+000
1.925481e+003,3.474884e+000
1.926446e+003,3.424469e+000
1.927410e+003,3.928772e+000
1.928374e+003,4.547714e+000
1.929338e+003,5.130005e+000
1.930303e+003,4.973190e+000
1.931267e+003,3.687302e+000
1.932231e+003,2.694412e+000
1.933195e+003,2.688141e+000
1.934160e+003,2.967239e+000
1.935124e+003,3.038773e+000
1.936088e+003,3.053223e+000
1.937052e+003,3.337585e+000
1.938017e+003,3.800507e+000
1.938981e+003,4.277481e+000
1.939945e+003,4.587814e+000
1.940909e+003,4.090042e+000
1.941874e+003,2.616165e+000
1.942838e+003,1.535446e+000
1.943802e+003,2.205704e+000
1.944766e+003,3.914627e+000
1.945730e+003,5.236252e+000
1.946695e+003,6.092865e+000
1.947659e+003,5.910110e+000
1.948623e+003,4.456390e+000
1.949587e+003,4.749878e+000
1.950552e+003,7.924530e+000
1.951516e+003,9.500717e+000
1.952480e+003,7.173615e+000
1.953444e+003,4.670807e+000
1.954408e+003,4.640259e+000
1.955373e+003,5.715164e+000
1.956337e+003,6.179840e+000
1.957301e+003,6.268341e+000
1.958265e+003,6.544144e+000
1.959230e+003,7.031799e+000
1.960194e+003,7.682938e+000
1.961158e+003,8.868729e+000
1.962122e+003,9.403152e+000
1.963087e+003,8.814728e+000
1.964051e+003,7.737717e+000
1.965015e+003,5.955170e+000
1.965979e+003,4.500031e+000
1.966944e+003,4.228378e+000
1.967908e+003,4.992798e+000
1.968872e+003,7.136032e+000
1.969836e+003,9.920883e+000
1.970801e+003,1.059317e+001
1.971765e+003,8.175735e+000
1.972729e+003,5.948044e+000
1.973693e+003,6.901047e+000
1.974657e+003,8.859650e+000
1.975622e+003,8.088150e+000
1.976586e+003,5.877289e+000
1.977550e+003,6.209900e+000
1.978514e+003,8.620056e+000
1.979479e+003,9.828400e+000
1.980443e+003,9.370071e+000
1.981407e+003,8.456604e+000
1.982371e+003,7.519852e+000
1.983335e+003,7.034805e+000
1.984300e+003,7.362869e+000
1.985264e+003,8.096664e+000
1.986228e+003,8.720551e+000
1.987192e+003,9.170319e+000
1.988157e+003,9.064072e+000
1.989121e+003,8.204742e+000
1.990085e+003,8.006516e+000
1.991049e+003,9.272110e+000
1.992014e+003,9.647705e+000
1.992978e+003,7.704620e+000
1.993942e+003,6.334671e+000
1.994906e+003,7.025497e+000
1.995871e+003,8.116547e+000
1.996835e+003,8.478699e+000
1.997799e+003,8.463715e+000
1.998763e+003,8.685272e+000
1.999728e+003,9.027802e+000
