5.003444e+002,5.139821e+001
5.013087e+002,5.089923e+001
5.022729e+002,5.001405e+001
5.032371e+002,4.874982e+001
5.042014e+002,4.648955e+001
5.051656e+002,4.349124e+001
5.061298e+002,4.112427e+001
5.070941e+002,4.069339e+001
5.080583e+002,4.262045e+001
5.090225e+002,4.381081e+001
5.099868e+002,4.429599e+001
5.109510e+002,4.430165e+001
5.119152e+002,4.380862e+001
5.128795e+002,4.279909e+001
5.138437e+002,4.183781e+001
5.148079e+002,4.090421e+001
5.157722e+002,4.029877e+001
5.167364e+002,4.040767e+001
5.177006e+002,4.105463e+001
5.186649e+002,4.150215e+001
5.196291e+002,4.085440e+001
5.205933e+002,3.968649e+001
5.215576e+002,3.827451e+001
5.225218e+002,3.666327e+001
5.234860e+002,3.501006e+001
5.244503e+002,3.366139e+001
5.254145e+002,3.274541e+001
5.263787e+002,3.331281e+001
5.273430e+002,3.698657e+001
5.283072e+002,4.106735e+001
5.292714e+002,4.132587e+001
5.302357e+002,3.468910e+001
5.311999e+002,3.049516e+001
5.321641e+002,3.118022e+001
5.331284e+002,3.347707e+001
5.340926e+002,3.495090e+001
5.350568e+002,3.464134e+001
5.360211e+002,3.370602e+001
5.369853e+002,3.364854e+001
5.379495e+002,3.356102e+001
5.389138e+002,3.211166e+001
5.398780e+002,2.902283e+001
5.408422e+002,2.553456e+001
5.418065e+002,2.560873e+001
5.427707e+002,2.869925e+001
5.437349e+002,3.135800e+001
5.446992e+002,3.287283e+001
5.456634e+002,3.321777e+001
5.466276e+002,3.230057e+001
5.475919e+002,2.775850e+001
5.485561e+002,2.503758e+001
5.495203e+002,2.503181e+001
5.504846e+002,2.662262e+001
5.514488e+002,2.847496e+001
5.524130e+002,3.074081e+001
5.533773e+002,3.195689e+001
5.543415e+002,3.157797e+001
5.553057e+002,3.003836e+001
5.562700e+002,2.724222e+001
5.572342e+002,2.314926e+001
5.581984e+002,1.901497e+001
5.591627e+002,1.836246e+001
5.601269e+002,2.002884e+001
5.610911e+002,2.179654e+001
5.620554e+002,2.251556e+001
5.630196e+002,2.226244e+001
5.639838e+002,2.207607e+001
5.649481e+002,2.244156e+001
5.659123e+002,2.219833e+001
5.668765e+002,2.063014e+001
5.678408e+002,1.841930e+001
5.688050e+002,1.742155e+001
5.697692e+002,1.899538e+001
5.707335e+002,2.030275e+001
5.716977e+002,2.048959e+001
5.726619e+002,1.998961e+001
5.736262e+002,1.953017e+001
5.745904e+002,1.969551e+001
5.755546e+002,1.972800e+001
5.765189e+002,1.794560e+001
5.774831e+002,1.515776e+001
5.784473e+002,1.289568e+001
5.794116e+002,1.224957e+001
5.803758e+002,1.313985e+001
5.813400e+002,1.381625e+001
5.823043e+002,1.400478e+001
5.832685e+002,1.434712e+001
5.842327e+002,1.546286e+001
5.851970e+002,1.720845e+001
5.861612e+002,1.819855e+001
5.871254e+002,1.717400e+001
5.880897e+002,1.636769e+001
5.890539e+002,1.646539e+001
5.900181e+002,1.695612e+001
5.909824e+002,1.697107e+001
5.919466e+002,1.595366e+001
5.929108e+002,1.436917e+001
5.938751e+002,1.218057e+001
5.948393e+002,1.002888e+001
5.958035e+002,9.128311e+000
5.967678e+002,1.034586e+001
5.977320e+002,1.329875e+001
5.986962e+002,1.473177e+001
5.996605e+002,1.466771e+001
6.006247e+002,1.405531e+001
6.015889e+002,1.308243e+001
6.025532e+002,1.180789e+001
6.035174e+002,1.089110e+001
6.044816e+002,1.060123e+001
6.054459e+002,1.046748e+001
6.064101e+002,1.011386e+001
6.073743e+002,9.917877e+000
6.083386e+002,1.085695e+001
6.093028e+002,1.438522e+001
6.102670e+002,1.717102e+001
6.112313e+002,1.604529e+001
6.121955e+002,1.299867e+001
6.131597e+002,1.065509e+001
6.141240e+002,1.079626e+001
6.150882e+002,1.267426e+001
6.160524e+002,1.312463e+001
6.170167e+002,1.245430e+001
6.179809e+002,1.177647e+001
6.189451e+002,1.150882e+001
6.199094e+002,1.156531e+001
6.208736e+002,1.164381e+001
6.218378e+002,1.195442e+001
6.228021e+002,1.225146e+001
6.237663e+002,1.262166e+001
6.247305e+002,1.297151e+001
6.256948e+002,1.316693e+001
6.266590e+002,1.319423e+001
6.276232e+002,1.264641e+001
6.285875e+002,1.074864e+001
6.295517e+002,8.721298e+000
6.305159e+002,7.894180e+000
6.314802e+002,8.933884e+000
6.324444e+002,1.110280e+001
6.334086e+002,1.316466e+001
6.343729e+002,1.501828e+001
6.353371e+002,1.545903e+001
6.363013e+002,1.376231e+001
6.372656e+002,1.067090e+001
6.382298e+002,8.952927e+000
6.391940e+002,1.060844e+001
6.401583e+002,1.096466e+001
6.411225e+002,9.266495e+000
6.420867e+002,6.812653e+000
6.430510e+002,4.956055e+000
6.440152e+002,3.926132e+000
6.449794e+002,3.595505e+000
6.459437e+002,4.346390e+000
6.469079e+002,5.291168e+000
6.478721e+002,5.854614e+000
6.488364e+002,5.814468e+000
6.498006e+002,5.302353e+000
6.507648e+002,4.084167e+000
6.517291e+002,2.572556e+000
6.526933e+002,1.950485e+000
6.536575e+002,2.460983e+000
6.546218e+002,3.701248e+000
6.555860e+002,4.964493e+000
6.565502e+002,6.600769e+000
6.575145e+002,7.295715e+000
6.584787e+002,6.405518e+000
6.594429e+002,5.237198e+000
6.604072e+002,4.898193e+000
6.613714e+002,5.629715e+000
6.623356e+002,6.234955e+000
6.632999e+002,6.148407e+000
6.642641e+002,5.675888e+000
6.652283e+002,4.874557e+000
6.661926e+002,3.893829e+000
6.671568e+002,2.890152e+000
6.681210e+002,1.859009e+000
6.690853e+002,1.078171e+000
6.700495e+002,1.376999e+000
6.710137e+002,2.697861e+000
6.719780e+002,4.097504e+000
6.729422e+002,4.513138e+000
6.739064e+002,3.603210e+000
6.748707e+002,3.561829e+000
6.758349e+002,5.263092e+000
6.767991e+002,6.539063e+000
6.777634e+002,6.237457e+000
6.787276e+002,4.647247e+000
6.796918e+002,3.595642e+000
6.806561e+002,4.378815e+000
6.816203e+002,4.939392e+000
6.825845e+002,4.303055e+000
6.835488e+002,2.939117e+000
6.845130e+002,1.629868e+000
6.854772e+002,9.356689e-001
6.864415e+002,8.713074e-001
6.874057e+002,1.359802e+000
6.883699e+002,2.164352e+000
6.893342e+002,3.030304e+000
6.902984e+002,3.877121e+000
6.912626e+002,4.652252e+000
6.922269e+002,4.807831e+000
6.931911e+002,3.733444e+000
6.941553e+002,3.131104e+000
6.951196e+002,3.010468e+000
6.960838e+002,3.309341e+000
6.970480e+002,4.153656e+000
6.980123e+002,6.013260e+000
6.989765e+002,7.380463e+000
6.999407e+002,7.571396e+000
7.009050e+002,7.190704e+000
7.018692e+002,6.470551e+000
7.028334e+002,5.600632e+000
7.037977e+002,4.934494e+000
7.047619e+002,5.407166e+000
7.057261e+002,6.499344e+000
7.066904e+002,7.015991e+000
7.076546e+002,6.757614e+000
7.086188e+002,5.946335e+000
7.095831e+002,4.848816e+000
7.105473e+002,3.041443e+000
7.115115e+002,2.294617e+000
7.124758e+002,3.115280e+000
7.134400e+002,4.188644e+000
7.144042e+002,5.002228e+000
7.153685e+002,5.521942e+000
7.163327e+002,5.424850e+000
7.172969e+002,3.253754e+000
7.182612e+002,1.678467e+000
7.192254e+002,2.331955e+000
7.201896e+002,4.407135e+000
7.211539e+002,6.157547e+000
7.221181e+002,6.119019e+000
7.230823e+002,4.916153e+000
7.240466e+002,4.341339e+000
7.250108e+002,4.324615e+000
7.259750e+002,4.385681e+000
7.269393e+002,4.190491e+000
7.279035e+002,3.654480e+000
7.288677e+002,2.845963e+000
7.298320e+002,1.348282e+000
7.307962e+002,4.831085e-001
7.317604e+002,4.819183e-001
7.327247e+002,1.126678e+000
7.336889e+002,2.182983e+000
7.346531e+002,3.661453e+000
7.356174e+002,4.745911e+000
7.365816e+002,5.286545e+000
7.375458e+002,5.441971e+000
7.385101e+002,5.135529e+000
7.394743e+002,4.451614e+000
7.404385e+002,3.716919e+000
7.414028e+002,3.452988e+000
7.423670e+002,3.339981e+000
7.433312e+002,2.557831e+000
7.442955e+002,1.071091e+000
7.452597e+002,2.125549e-002
7.462239e+002,9.000397e-001
7.471882e+002,4.448502e+000
7.481524e+002,6.471161e+000
7.491166e+002,5.744034e+000
7.500809e+002,4.928452e+000
7.510451e+002,5.308716e+000
7.520093e+002,6.500381e+000
7.529736e+002,6.820450e+000
7.539378e+002,4.802856e+000
7.549020e+002,3.054245e+000
7.558663e+002,3.763504e+000
7.568306e+002,5.534271e+000
7.577948e+002,6.103470e+000
7.587590e+002,4.194702e+000
7.597233e+002,1.128784e+000
7.606875e+002,1.738327e+000
7.616517e+002,5.540710e+000
7.626160e+002,7.630402e+000
7.635802e+002,6.271362e+000
7.645444e+002,3.099121e+000
7.655087e+002,1.552612e+000
7.664729e+002,2.594727e+000
7.674371e+002,3.186646e+000
7.684014e+002,2.512466e+000
7.693656e+002,1.931137e+000
7.703298e+002,2.526047e+000
7.712941e+002,4.325806e+000
7.722583e+002,6.107300e+000
7.732225e+002,7.262909e+000
7.741868e+002,7.682434e+000
7.751510e+002,6.704468e+000
7.761152e+002,4.928757e+000
7.770795e+002,3.735901e+000
7.780437e+002,4.347351e+000
7.790079e+002,6.419876e+000
7.799722e+002,7.041931e+000
7.809364e+002,6.137619e+000
7.819006e+002,5.321899e+000
7.828649e+002,5.018875e+000
7.838291e+002,5.337326e+000
7.847933e+002,6.741638e+000
7.857576e+002,1.088763e+001
7.867218e+002,1.284131e+001
7.876860e+002,1.028476e+001
7.886503e+002,6.761978e+000
7.896145e+002,5.531082e+000
7.905787e+002,7.310959e+000
7.915430e+002,9.234085e+000
7.925072e+002,7.418793e+000
7.934714e+002,4.395554e+000
7.944357e+002,3.022614e+000
7.953999e+002,3.501984e+000
7.963641e+002,4.760605e+000
7.973284e+002,5.575226e+000
7.982926e+002,5.898026e+000
7.992568e+002,6.672745e+000
8.002211e+002,7.872330e+000
8.011853e+002,9.004730e+000
8.021495e+002,1.043939e+001
8.031138e+002,1.197781e+001
8.040780e+002,1.236761e+001
8.050422e+002,1.018124e+001
8.060065e+002,8.534729e+000
8.069707e+002,8.775391e+000
8.079349e+002,9.646667e+000
8.088992e+002,9.945328e+000
8.098634e+002,9.290192e+000
8.108276e+002,8.362259e+000
8.117919e+002,8.017303e+000
8.127561e+002,7.931717e+000
8.137203e+002,7.840805e+000
8.146846e+002,7.796249e+000
8.156488e+002,7.621292e+000
8.166130e+002,6.949615e+000
8.175773e+002,5.517746e+000
8.185415e+002,5.058533e+000
8.195057e+002,6.112167e+000
8.204700e+002,7.100876e+000
8.214342e+002,7.703995e+000
8.223984e+002,7.843231e+000
8.233627e+002,7.199371e+000
8.243269e+002,4.925568e+000
8.252911e+002,3.485352e+000
8.262554e+002,4.613281e+000
8.272196e+002,6.837585e+000
8.281838e+002,8.840652e+000
8.291481e+002,1.002657e+001
8.301123e+002,1.056293e+001
8.310765e+002,1.069533e+001
8.320408e+002,1.034125e+001
8.330050e+002,9.458969e+000
8.339692e+002,7.958801e+000
8.349335e+002,6.283340e+000
8.358977e+002,4.843170e+000
8.368619e+002,3.659821e+000
8.378262e+002,2.900192e+000
8.387904e+002,2.231003e+000
8.397546e+002,2.240463e+000
8.407189e+002,3.795914e+000
8.416831e+002,5.983444e+000
8.426473e+002,7.127441e+000
8.436116e+002,6.283386e+000
8.445758e+002,5.183533e+000
8.455400e+002,5.728088e+000
8.465043e+002,6.870255e+000
8.474685e+002,7.541107e+000
8.484327e+002,7.533630e+000
8.493970e+002,7.428329e+000
8.503612e+002,8.125870e+000
8.513254e+002,9.820236e+000
8.522897e+002,1.037320e+001
8.532539e+002,8.648590e+000
8.542181e+002,7.264359e+000
8.551824e+002,8.123230e+000
8.561466e+002,1.104112e+001
8.571108e+002,1.376726e+001
8.580751e+002,1.581000e+001
8.590393e+002,1.713020e+001
8.600035e+002,1.784651e+001
8.609678e+002,1.798917e+001
8.619320e+002,1.723596e+001
8.628962e+002,1.556177e+001
8.638605e+002,1.394528e+001
8.648247e+002,1.418367e+001
8.657889e+002,1.552826e+001
8.667532e+002,1.659727e+001
8.677174e+002,1.720476e+001
8.686816e+002,1.718488e+001
8.696459e+002,1.621677e+001
8.706101e+002,1.412199e+001
8.715743e+002,1.285892e+001
8.725386e+002,1.273753e+001
8.735028e+002,1.296329e+001
8.744670e+002,1.303618e+001
8.754313e+002,1.327606e+001
8.763955e+002,1.458380e+001
8.773597e+002,1.765935e+001
8.783240e+002,2.058658e+001
8.792882e+002,2.213403e+001
8.802524e+002,2.277585e+001
8.812167e+002,2.245660e+001
8.821809e+002,2.148036e+001
8.831451e+002,2.071198e+001
8.841094e+002,2.134416e+001
8.850736e+002,2.336755e+001
8.860378e+002,2.457396e+001
8.870021e+002,2.475468e+001
8.879663e+002,2.480716e+001
8.889305e+002,2.529321e+001
8.898948e+002,2.603624e+001
8.908590e+002,2.617680e+001
8.918232e+002,2.487108e+001
8.927875e+002,2.449982e+001
8.937517e+002,2.624922e+001
8.947159e+002,2.851762e+001
8.956802e+002,2.987422e+001
8.966444e+002,3.000357e+001
8.976086e+002,2.981674e+001
8.985729e+002,3.046832e+001
8.995371e+002,3.129654e+001
9.005013e+002,3.089812e+001
9.014656e+002,2.952251e+001
9.024298e+002,2.830714e+001
9.033940e+002,2.807687e+001
9.043583e+002,2.862318e+001
9.053225e+002,2.883328e+001
9.062867e+002,2.840448e+001
9.072510e+002,2.785733e+001
9.082152e+002,2.693221e+001
9.091794e+002,2.627953e+001
9.101437e+002,2.665213e+001
9.111079e+002,2.816960e+001
9.120721e+002,2.979996e+001
9.130364e+002,3.143532e+001
9.140006e+002,3.235930e+001
9.149648e+002,3.173271e+001
9.159291e+002,3.020331e+001
9.168933e+002,2.897403e+001
9.178575e+002,2.884444e+001
9.188218e+002,2.944189e+001
9.197860e+002,2.963211e+001
9.207502e+002,2.934760e+001
9.217145e+002,2.951970e+001
9.226787e+002,3.123618e+001
9.236429e+002,3.285056e+001
9.246072e+002,3.147742e+001
9.255714e+002,2.613371e+001
9.265356e+002,2.263954e+001
9.274999e+002,2.291214e+001
9.284641e+002,2.403314e+001
9.294283e+002,2.616342e+001
9.303926e+002,2.824300e+001
9.313568e+002,2.838710e+001
9.323210e+002,2.548441e+001
9.332853e+002,2.183890e+001
9.342495e+002,2.157579e+001
9.352137e+002,2.299603e+001
9.361780e+002,2.381398e+001
9.371422e+002,2.358232e+001
9.381064e+002,2.288585e+001
9.390707e+002,2.238306e+001
9.400349e+002,2.197655e+001
9.409991e+002,2.178648e+001
9.419634e+002,2.163744e+001
9.429276e+002,2.183833e+001
9.438918e+002,2.291238e+001
9.448561e+002,2.428354e+001
9.458203e+002,2.506921e+001
9.467845e+002,2.507755e+001
9.477488e+002,2.439645e+001
9.487130e+002,2.212796e+001
9.496772e+002,1.985042e+001
9.506415e+002,1.901402e+001
9.516057e+002,1.953154e+001
9.525699e+002,2.034375e+001
9.535342e+002,2.040578e+001
9.544984e+002,1.976450e+001
9.554626e+002,1.905092e+001
9.564269e+002,1.833180e+001
9.573911e+002,1.781885e+001
9.583553e+002,1.767052e+001
9.593196e+002,1.766551e+001
9.602838e+002,1.739378e+001
9.612480e+002,1.668787e+001
9.622123e+002,1.623834e+001
9.631765e+002,1.660094e+001
9.641407e+002,1.696060e+001
9.651050e+002,1.707111e+001
9.660692e+002,1.679170e+001
9.670334e+002,1.585237e+001
9.679977e+002,1.410283e+001
9.689619e+002,1.229990e+001
9.699261e+002,1.181200e+001
9.708904e+002,1.240648e+001
9.718546e+002,1.424759e+001
9.728188e+002,1.757236e+001
9.737831e+002,2.120885e+001
9.747473e+002,2.379195e+001
9.757115e+002,2.533305e+001
9.766758e+002,2.583501e+001
9.776400e+002,2.430287e+001
9.786042e+002,2.309358e+001
9.795685e+002,2.310114e+001
9.805327e+002,2.348212e+001
9.814969e+002,2.318695e+001
9.824612e+002,2.192639e+001
9.834254e+002,2.007675e+001
9.843896e+002,1.698663e+001
9.853539e+002,1.397717e+001
9.863181e+002,1.303218e+001
9.872823e+002,1.379393e+001
9.882466e+002,1.419994e+001
9.892108e+002,1.254919e+001
9.901750e+002,9.369568e+000
9.911393e+002,7.781158e+000
9.921035e+002,8.758896e+000
9.930677e+002,9.399979e+000
9.940320e+002,9.448425e+000
9.949962e+002,9.405930e+000
9.959604e+002,9.876236e+000
9.969247e+002,1.087263e+001
9.978889e+002,1.144957e+001
9.988531e+002,1.066750e+001
9.998174e+002,9.703354e+000
1.000782e+003,9.157288e+000
1.001746e+003,9.088165e+000
1.002710e+003,9.624161e+000
1.003674e+003,1.072560e+001
1.004639e+003,1.203157e+001
1.005603e+003,1.300031e+001
1.006567e+003,1.355255e+001
1.007531e+003,1.258177e+001
1.008495e+003,9.199554e+000
1.009460e+003,6.151352e+000
1.010424e+003,5.458572e+000
1.011388e+003,6.526184e+000
1.012352e+003,6.730072e+000
1.013317e+003,4.828491e+000
1.014281e+003,3.947052e+000
1.015245e+003,6.281235e+000
1.016209e+003,8.642960e+000
1.017174e+003,8.232452e+000
1.018138e+003,5.392319e+000
1.019102e+003,2.955963e+000
1.020066e+003,3.398483e+000
1.021031e+003,5.377228e+000
1.021995e+003,4.168884e+000
1.022959e+003,4.883423e-001
1.023923e+003,-1.337448e+000
1.024887e+003,6.458435e-001
1.025852e+003,4.131485e+000
1.026816e+003,5.513245e+000
1.027780e+003,4.472305e+000
1.028744e+003,3.096451e+000
1.029709e+003,6.250458e-001
1.030673e+003,-1.132248e+000
1.031637e+003,-1.151245e+000
1.032601e+003,-3.724365e-001
1.033566e+003,-1.664581e-001
1.034530e+003,-9.771729e-001
1.035494e+003,-1.822632e+000
1.036458e+003,-1.413589e+000
1.037422e+003,-5.385437e-001
1.038387e+003,-7.317047e-001
1.039351e+003,-1.911316e+000
1.040315e+003,-2.731918e+000
1.041279e+003,-2.103134e+000
1.042244e+003,-3.369904e-001
1.043208e+003,8.788452e-001
1.044172e+003,1.205414e+000
1.045136e+003,1.320129e+000
1.046101e+003,9.043732e-001
1.047065e+003,6.939240e-001
1.048029e+003,1.446396e+000
1.048993e+003,2.833191e+000
1.049958e+003,3.616989e+000
1.050922e+003,3.124115e+000
1.051886e+003,2.248047e+000
1.052850e+003,1.426666e+000
1.053814e+003,9.889526e-001
1.054779e+003,1.913864e+000
1.055743e+003,4.121216e+000
1.056707e+003,5.863541e+000
1.057671e+003,4.942764e+000
1.058636e+003,1.319916e+000
1.059600e+003,-7.376251e-001
1.060564e+003,-2.315063e-001
1.061528e+003,4.700470e-001
1.062493e+003,1.177780e+000
1.063457e+003,1.735794e+000
1.064421e+003,2.093033e+000
1.065385e+003,2.263992e+000
1.066349e+003,1.944046e+000
1.067314e+003,1.111603e-001
1.068278e+003,-1.162933e+000
1.069242e+003,2.062683e-001
1.070206e+003,2.890015e+000
1.071171e+003,4.807846e+000
1.072135e+003,5.022537e+000
1.073099e+003,4.065735e+000
1.074063e+003,2.832001e+000
1.075028e+003,1.289032e+000
1.075992e+003,4.213104e-001
1.076956e+003,5.047150e-001
1.077920e+003,5.357971e-001
1.078885e+003,-1.085205e-001
1.079849e+003,-8.565369e-001
1.080813e+003,-5.342560e-001
1.081777e+003,1.242310e+000
1.082741e+003,2.870941e+000
1.083706e+003,3.343201e+000
1.084670e+003,3.445496e+000
1.085634e+003,3.504333e+000
1.086598e+003,3.535706e+000
1.087563e+003,3.558655e+000
1.088527e+003,3.590485e+000
1.089491e+003,3.459854e+000
1.090455e+003,2.633331e+000
1.091420e+003,9.526062e-001
1.092384e+003,-5.743408e-002
1.093348e+003,-2.729950e-001
1.094312e+003,-1.950226e-001
1.095276e+003,2.392426e-001
1.096241e+003,8.244476e-001
1.097205e+003,6.570282e-001
1.098169e+003,-8.113708e-001
1.099133e+003,-1.909958e+000
1.100098e+003,-1.810577e+000
1.101062e+003,-1.306030e+000
1.102026e+003,-8.228455e-001
1.102990e+003,-3.468781e-001
1.103955e+003,4.144592e-001
1.104919e+003,1.614685e+000
1.105883e+003,2.832153e+000
1.106847e+003,3.208023e+000
1.107812e+003,2.679337e+000
1.108776e+003,1.782059e+000
1.109740e+003,3.583527e-001
1.110704e+003,-1.063522e+000
1.111668e+003,-2.498230e+000
1.112633e+003,-3.610947e+000
1.113597e+003,-2.741699e+000
1.114561e+003,1.610840e+000
1.115525e+003,4.598663e+000
1.116490e+003,4.100723e+000
1.117454e+003,2.561249e+000
1.118418e+003,9.535675e-001
1.119382e+003,-1.832428e-001
1.120347e+003,-1.040192e-001
1.121311e+003,1.573273e+000
1.122275e+003,3.428314e+000
1.123239e+003,2.351227e+000
1.124203e+003,-1.241272e+000
1.125168e+003,-3.001617e+000
1.126132e+003,-2.120224e+000
1.127096e+003,-6.317596e-001
1.128060e+003,5.844116e-003
1.129025e+003,-7.937622e-002
1.129989e+003,-2.533569e-001
1.130953e+003,-8.098602e-001
1.131917e+003,-7.214966e-001
1.132882e+003,1.102676e+000
1.133846e+003,2.826080e+000
1.134810e+003,3.348770e+000
1.135774e+003,2.821335e+000
1.136739e+003,1.632614e+000
1.137703e+003,3.611755e-002
1.138667e+003,-1.178940e+000
1.139631e+003,-3.291779e-001
1.140595e+003,2.327774e+000
1.141560e+003,4.262817e+000
1.142524e+003,5.330811e+000
1.143488e+003,6.011948e+000
1.144452e+003,6.147095e+000
1.145417e+003,6.105377e+000
1.146381e+003,7.531967e+000
1.147345e+003,1.138574e+001
1.148309e+003,1.409532e+001
1.149274e+003,1.407013e+001
1.150238e+003,1.358974e+001
1.151202e+003,1.349478e+001
1.152166e+003,1.395514e+001
1.153130e+003,1.498779e+001
1.154095e+003,1.651775e+001
1.155059e+003,1.823085e+001
1.156023e+003,1.979852e+001
1.156987e+003,2.128268e+001
1.157952e+003,2.311438e+001
1.158916e+003,2.574551e+001
1.159880e+003,2.700546e+001
1.160844e+003,2.510245e+001
1.161809e+003,2.101685e+001
1.162773e+003,1.697867e+001
1.163737e+003,1.291039e+001
1.164701e+003,9.341629e+000
1.165666e+003,6.572815e+000
1.166630e+003,4.281036e+000
1.167594e+003,2.011093e+000
1.168558e+003,2.959442e-001
1.169522e+003,2.785492e-001
1.170487e+003,2.020401e+000
1.171451e+003,3.803146e+000
1.172415e+003,3.554352e+000
1.173379e+003,1.840332e+000
1.174344e+003,2.242264e+000
1.175308e+003,4.997345e+000
1.176272e+003,6.345001e+000
1.177236e+003,3.879501e+000
1.178201e+003,3.806305e-001
1.179165e+003,-3.711700e-001
1.180129e+003,1.610855e+000
1.181093e+003,2.953979e+000
1.182057e+003,3.091980e+000
1.183022e+003,2.323334e+000
1.183986e+003,-1.088104e-001
1.184950e+003,-2.647041e+000
1.185914e+003,-3.836937e+000
1.186879e+003,-3.531281e+000
1.187843e+003,-2.332748e+000
1.188807e+003,-7.206421e-001
1.189771e+003,9.638672e-001
1.190736e+003,1.702805e+000
1.191700e+003,1.385849e+000
1.192664e+003,1.112671e+000
1.193628e+003,1.415863e+000
1.194593e+003,1.289261e+000
1.195557e+003,-3.765259e-001
1.196521e+003,-3.097649e+000
1.197485e+003,-5.226929e+000
1.198449e+003,-6.632332e+000
1.199414e+003,-7.019325e+000
1.200378e+003,-4.638489e+000
1.201342e+003,-2.654846e+000
1.202306e+003,-3.811264e+000
1.203271e+003,-6.913780e+000
1.204235e+003,-9.222931e+000
1.205199e+003,-9.356857e+000
1.206163e+003,-8.126060e+000
1.207128e+003,-6.787338e+000
1.208092e+003,-5.305557e+000
1.209056e+003,-4.923515e+000
1.210020e+003,-6.225624e+000
1.210984e+003,-7.246277e+000
1.211949e+003,-6.837158e+000
1.212913e+003,-6.242775e+000
1.213877e+003,-7.387146e+000
1.214841e+003,-1.029941e+001
1.215806e+003,-1.242474e+001
1.216770e+003,-1.217445e+001
1.217734e+003,-1.190253e+001
1.218698e+003,-1.401809e+001
1.219663e+003,-1.667413e+001
1.220627e+003,-1.732426e+001
1.221591e+003,-1.576677e+001
1.222555e+003,-1.381395e+001
1.223520e+003,-1.312080e+001
1.224484e+003,-1.345141e+001
1.225448e+003,-1.378219e+001
1.226412e+003,-1.407777e+001
1.227376e+003,-1.449934e+001
1.228341e+003,-1.578504e+001
1.229305e+003,-1.641763e+001
1.230269e+003,-1.502937e+001
1.231233e+003,-1.256146e+001
1.232198e+003,-1.083073e+001
1.233162e+003,-1.026942e+001
1.234126e+003,-1.039095e+001
1.235090e+003,-1.110301e+001
1.236055e+003,-1.223444e+001
1.237019e+003,-1.409181e+001
1.237983e+003,-1.616042e+001
1.238947e+003,-1.694065e+001
1.239911e+003,-1.579758e+001
1.240876e+003,-1.390210e+001
1.241840e+003,-1.308513e+001
1.242804e+003,-1.344766e+001
1.243768e+003,-1.298629e+001
1.244733e+003,-9.800537e+000
1.245697e+003,-8.403305e+000
1.246661e+003,-1.066671e+001
1.247625e+003,-1.355580e+001
1.248590e+003,-1.488573e+001
1.249554e+003,-1.471946e+001
1.250518e+003,-1.409363e+001
1.251482e+003,-1.346600e+001
1.252447e+003,-1.296359e+001
1.253411e+003,-1.272681e+001
1.254375e+003,-1.264847e+001
1.255339e+003,-1.272653e+001
1.256303e+003,-1.289158e+001
1.257268e+003,-1.240065e+001
1.258232e+003,-1.062014e+001
1.259196e+003,-8.372131e+000
1.260160e+003,-7.220474e+000
1.261125e+003,-7.235550e+000
1.262089e+003,-7.631111e+000
1.263053e+003,-9.433960e+000
1.264017e+003,-1.030483e+001
1.264982e+003,-8.322350e+000
1.265946e+003,-6.141968e+000
1.266910e+003,-6.709694e+000
1.267874e+003,-9.674278e+000
1.268839e+003,-1.236670e+001
1.269803e+003,-1.301550e+001
1.270767e+003,-1.241229e+001
1.271731e+003,-1.195835e+001
1.272695e+003,-1.162292e+001
1.273660e+003,-1.111629e+001
1.274624e+003,-1.019987e+001
1.275588e+003,-9.987129e+000
1.276552e+003,-1.170726e+001
1.277517e+003,-1.416074e+001
1.278481e+003,-1.505391e+001
1.279445e+003,-1.418558e+001
1.280409e+003,-1.320162e+001
1.281374e+003,-1.240588e+001
1.282338e+003,-1.189056e+001
1.283302e+003,-1.174648e+001
1.284266e+003,-1.186317e+001
1.285230e+003,-1.237188e+001
1.286195e+003,-1.307539e+001
1.287159e+003,-1.322829e+001
1.288123e+003,-1.218738e+001
1.289087e+003,-1.042511e+001
1.290052e+003,-9.489044e+000
1.291016e+003,-9.559769e+000
1.291980e+003,-1.012850e+001
1.292944e+003,-1.213874e+001
1.293909e+003,-1.349940e+001
1.294873e+003,-1.292442e+001
1.295837e+003,-1.142165e+001
1.296801e+003,-9.987373e+000
1.297766e+003,-8.916351e+000
1.298730e+003,-9.517540e+000
1.299694e+003,-1.371067e+001
1.300658e+003,-1.760276e+001
1.301622e+003,-1.578539e+001
1.302587e+003,-1.123016e+001
1.303551e+003,-8.520767e+000
1.304515e+003,-8.434013e+000
1.305479e+003,-9.363510e+000
1.306444e+003,-1.018774e+001
1.307408e+003,-1.091157e+001
1.308372e+003,-1.139384e+001
1.309336e+003,-1.144341e+001
1.310301e+003,-1.186367e+001
1.311265e+003,-1.340936e+001
1.312229e+003,-1.437195e+001
1.313193e+003,-1.398615e+001
1.314157e+003,-1.296410e+001
1.315122e+003,-1.187207e+001
1.316086e+003,-1.095980e+001
1.317050e+003,-1.047888e+001
1.318014e+003,-1.060838e+001
1.318979e+003,-1.087711e+001
1.319943e+003,-1.029684e+001
1.320907e+003,-9.027077e+000
1.321871e+003,-8.681976e+000
1.322836e+003,-9.545723e+000
1.323800e+003,-1.081721e+001
1.324764e+003,-1.260688e+001
1.325728e+003,-1.424946e+001
1.326693e+003,-1.429937e+001
1.327657e+003,-1.271503e+001
1.328621e+003,-1.196083e+001
1.329585e+003,-1.357465e+001
1.330549e+003,-1.424143e+001
1.331514e+003,-1.090989e+001
1.332478e+003,-7.216850e+000
1.333442e+003,-7.212006e+000
1.334406e+003,-1.025366e+001
1.335371e+003,-1.274194e+001
1.336335e+003,-1.249660e+001
1.337299e+003,-1.075026e+001
1.338263e+003,-9.831245e+000
1.339228e+003,-9.808205e+000
1.340192e+003,-9.958488e+000
1.341156e+003,-1.095658e+001
1.342120e+003,-1.114260e+001
1.343084e+003,-9.248123e+000
1.344049e+003,-7.479324e+000
1.345013e+003,-8.080002e+000
1.345977e+003,-1.030042e+001
1.346941e+003,-1.152111e+001
1.347906e+003,-1.076785e+001
1.348870e+003,-9.634232e+000
1.349834e+003,-9.756050e+000
1.350798e+003,-1.035190e+001
1.351763e+003,-9.565125e+000
1.352727e+003,-7.695602e+000
1.353691e+003,-6.714935e+000
1.354655e+003,-7.496300e+000
1.355620e+003,-8.787361e+000
1.356584e+003,-8.948105e+000
1.357548e+003,-8.153313e+000
1.358512e+003,-8.240807e+000
1.359476e+003,-9.737823e+000
1.360441e+003,-1.108817e+001
1.361405e+003,-1.260405e+001
1.362369e+003,-1.308183e+001
1.363333e+003,-1.088643e+001
1.364298e+003,-7.759163e+000
1.365262e+003,-6.174232e+000
1.366226e+003,-6.628517e+000
1.367190e+003,-7.730064e+000
1.368155e+003,-8.243713e+000
1.369119e+003,-8.380638e+000
1.370083e+003,-8.789642e+000
1.371047e+003,-9.541885e+000
1.372011e+003,-1.015956e+001
1.372976e+003,-1.090569e+001
1.373940e+003,-1.130557e+001
1.374904e+003,-1.107703e+001
1.375868e+003,-1.043041e+001
1.376833e+003,-9.449219e+000
1.377797e+003,-8.278954e+000
1.378761e+003,-7.550652e+000
1.379725e+003,-7.602371e+000
1.380690e+003,-7.880844e+000
1.381654e+003,-7.560898e+000
1.382618e+003,-7.231903e+000
1.383582e+003,-8.319199e+000
1.384547e+003,-1.051499e+001
1.385511e+003,-1.118960e+001
1.386475e+003,-8.747856e+000
1.387439e+003,-5.219627e+000
1.388403e+003,-3.535988e+000
1.389368e+003,-3.701698e+000
1.390332e+003,-4.847183e+000
1.391296e+003,-7.894188e+000
1.392260e+003,-9.912811e+000
1.393225e+003,-9.786453e+000
1.394189e+003,-9.117615e+000
1.395153e+003,-8.590843e+000
1.396117e+003,-8.212097e+000
1.397082e+003,-7.715843e+000
1.398046e+003,-7.105194e+000
1.399010e+003,-6.864548e+000
1.399974e+003,-7.500580e+000
1.400938e+003,-8.646332e+000
1.401903e+003,-8.942894e+000
1.402867e+003,-8.018112e+000
1.403831e+003,-7.072029e+000
1.404795e+003,-5.895203e+000
1.405760e+003,-5.108261e+000
1.406724e+003,-5.346909e+000
1.407688e+003,-5.983086e+000
1.408652e+003,-5.964371e+000
1.409617e+003,-5.381897e+000
1.410581e+003,-5.641365e+000
1.411545e+003,-7.522034e+000
1.412509e+003,-9.144371e+000
1.413474e+003,-8.196594e+000
1.414438e+003,-6.225182e+000
1.415402e+003,-5.720627e+000
1.416366e+003,-6.509773e+000
1.417330e+003,-7.542732e+000
1.418295e+003,-8.596252e+000
1.419259e+003,-9.068680e+000
1.420223e+003,-7.904007e+000
1.421187e+003,-5.473869e+000
1.422152e+003,-3.943703e+000
1.423116e+003,-3.500664e+000
1.424080e+003,-3.267296e+000
1.425044e+003,-2.795433e+000
1.426009e+003,-2.881386e+000
1.426973e+003,-4.764114e+000
1.427937e+003,-6.855949e+000
1.428901e+003,-6.801147e+000
1.429865e+003,-4.828674e+000
1.430830e+003,-3.496025e+000
1.431794e+003,-4.489960e+000
1.432758e+003,-6.295181e+000
1.433722e+003,-5.710922e+000
1.434687e+003,-2.325066e+000
1.435651e+003,-8.341827e-001
1.436615e+003,-3.127792e+000
1.437579e+003,-4.875854e+000
1.438544e+003,-5.373672e+000
1.439508e+003,-5.508705e+000
1.440472e+003,-5.799568e+000
1.441436e+003,-6.127586e+000
1.442401e+003,-6.218262e+000
1.443365e+003,-6.027000e+000
1.444329e+003,-5.676346e+000
1.445293e+003,-5.203568e+000
1.446257e+003,-4.703300e+000
1.447222e+003,-4.489471e+000
1.448186e+003,-4.471710e+000
1.449150e+003,-3.973763e+000
1.450114e+003,-2.701599e+000
1.451079e+003,-1.992020e+000
1.452043e+003,-3.254311e+000
1.453007e+003,-4.874825e+000
1.453971e+003,-4.110275e+000
1.454936e+003,-1.424194e+000
1.455900e+003,-5.834656e-001
1.456864e+003,-2.931931e+000
1.457828e+003,-5.060318e+000
1.458792e+003,-4.439644e+000
1.459757e+003,-3.381653e+000
1.460721e+003,-4.111687e+000
1.461685e+003,-5.765984e+000
1.462649e+003,-6.339508e+000
1.463614e+003,-5.346825e+000
1.464578e+003,-4.028419e+000
1.465542e+003,-3.505020e+000
1.466506e+003,-3.483994e+000
1.467471e+003,-2.939522e+000
1.468435e+003,-1.573822e+000
1.469399e+003,-8.451004e-001
1.470363e+003,-1.387009e+000
1.471328e+003,-1.945702e+000
1.472292e+003,-2.589546e+000
1.473256e+003,-2.946075e+000
1.474220e+003,-2.071350e+000
1.475184e+003,-8.033218e-001
1.476149e+003,-1.122566e+000
1.477113e+003,-3.414696e+000
1.478077e+003,-5.628853e+000
1.479041e+003,-5.705879e+000
1.480006e+003,-4.298454e+000
1.480970e+003,-3.715546e+000
1.481934e+003,-4.460365e+000
1.482898e+003,-4.083672e+000
1.483863e+003,-1.291405e+000
1.484827e+003,6.450806e-001
1.485791e+003,3.282013e-001
1.486755e+003,-6.381683e-001
1.487719e+003,-7.860489e-001
1.488684e+003,-3.688660e-001
1.489648e+003,-5.712433e-001
1.490612e+003,-1.707130e+000
1.491576e+003,-2.413589e+000
1.492541e+003,-1.472534e+000
1.493505e+003,3.521881e-001
1.494469e+003,1.545647e+000
1.495433e+003,2.109863e+000
1.496398e+003,2.200279e+000
1.497362e+003,1.710754e+000
1.498326e+003,1.445656e+000
1.499290e+003,1.785866e+000
1.500255e+003,2.589493e+000
1.501219e+003,3.950638e+000
1.502183e+003,5.653572e+000
1.503147e+003,6.522720e+000
1.504111e+003,6.137650e+000
1.505076e+003,5.747131e+000
1.506040e+003,5.939781e+000
1.507004e+003,6.631943e+000
1.507968e+003,7.761909e+000
1.508933e+003,9.245049e+000
1.509897e+003,1.086591e+001
1.510861e+003,1.267574e+001
1.511825e+003,1.515015e+001
1.512790e+003,1.886273e+001
1.513754e+003,2.281522e+001
1.514718e+003,2.471603e+001
1.515682e+003,2.454263e+001
1.516646e+003,2.629073e+001
1.517611e+003,3.151434e+001
1.518575e+003,3.580966e+001
1.519539e+003,3.749892e+001
1.520503e+003,3.832202e+001
1.521468e+003,3.897791e+001
1.522432e+003,3.936619e+001
1.523396e+003,3.930106e+001
1.524360e+003,3.872407e+001
1.525325e+003,3.757480e+001
1.526289e+003,3.583250e+001
1.527253e+003,3.382877e+001
1.528217e+003,3.215889e+001
1.529182e+003,3.087183e+001
1.530146e+003,2.918743e+001
1.531110e+003,2.716802e+001
1.532074e+003,2.450887e+001
1.533039e+003,2.043628e+001
1.534003e+003,1.646319e+001
1.534967e+003,1.326439e+001
1.535931e+003,1.070975e+001
1.536896e+003,8.575264e+000
1.537860e+003,6.846016e+000
1.538824e+003,5.677025e+000
1.539788e+003,5.094574e+000
1.540752e+003,4.759872e+000
1.541717e+003,4.272156e+000
1.542681e+003,3.713722e+000
1.543645e+003,3.448296e+000
1.544609e+003,3.571831e+000
1.545573e+003,3.940979e+000
1.546538e+003,5.091797e+000
1.547502e+003,5.612961e+000
1.548466e+003,4.212143e+000
1.549430e+003,2.721153e+000
1.550395e+003,3.637299e+000
1.551359e+003,6.008514e+000
1.552323e+003,6.332748e+000
1.553287e+003,3.562523e+000
1.554252e+003,9.778595e-001
1.555216e+003,1.526039e+000
1.556180e+003,3.974831e+000
1.557144e+003,5.769135e+000
1.558109e+003,6.881569e+000
1.559073e+003,6.613617e+000
1.560037e+003,4.099075e+000
1.561001e+003,1.823715e+000
1.561966e+003,4.603806e-001
1.562930e+003,-5.017090e-002
1.563894e+003,5.291061e-001
1.564858e+003,1.765434e+000
1.565823e+003,2.874268e+000
1.566787e+003,3.647568e+000
1.567751e+003,3.617378e+000
1.568715e+003,2.236008e+000
1.569679e+003,8.890152e-001
1.570644e+003,1.723785e+000
1.571608e+003,3.784256e+000
1.572572e+003,4.246552e+000
1.573536e+003,3.033379e+000
1.574500e+003,2.078232e+000
1.575465e+003,1.996826e+000
1.576429e+003,2.324760e+000
1.577393e+003,2.455124e+000
1.578357e+003,2.801743e+000
1.579322e+003,4.799034e+000
1.580286e+003,8.300209e+000
1.581250e+003,1.012791e+001
1.582214e+003,8.980370e+000
1.583179e+003,7.238190e+000
1.584143e+003,6.307152e+000
1.585107e+003,5.977974e+000
1.586071e+003,6.170731e+000
1.587036e+003,6.767593e+000
1.588000e+003,7.258415e+000
1.588964e+003,7.504539e+000
1.589928e+003,7.422668e+000
1.590893e+003,6.516487e+000
1.591857e+003,5.697769e+000
1.592821e+003,6.780441e+000
1.593785e+003,9.334549e+000
1.594750e+003,1.068604e+001
1.595714e+003,1.032391e+001
1.596678e+003,9.803596e+000
1.597642e+003,9.727791e+000
1.598606e+003,9.716614e+000
1.599571e+003,9.466148e+000
1.600535e+003,9.131584e+000
1.601499e+003,8.681900e+000
1.602463e+003,8.262840e+000
1.603427e+003,8.637245e+000
1.604392e+003,1.020966e+001
1.605356e+003,1.192052e+001
1.606320e+003,1.264925e+001
1.607284e+003,1.271196e+001
1.608249e+003,1.309785e+001
1.609213e+003,1.383066e+001
1.610177e+003,1.404893e+001
1.611141e+003,1.345026e+001
1.612106e+003,1.273907e+001
1.613070e+003,1.219862e+001
1.614034e+003,1.170362e+001
1.614998e+003,1.080132e+001
1.615963e+003,1.003858e+001
1.616927e+003,1.049070e+001
1.617891e+003,1.217539e+001
1.618855e+003,1.414435e+001
1.619820e+003,1.596417e+001
1.620784e+003,1.696689e+001
1.621748e+003,1.564285e+001
1.622712e+003,1.265033e+001
1.623677e+003,1.185097e+001
1.624641e+003,1.368994e+001
1.625605e+003,1.534583e+001
1.626569e+003,1.641946e+001
1.627533e+003,1.657301e+001
1.628498e+003,1.469661e+001
1.629462e+003,1.285300e+001
1.630426e+003,1.290452e+001
1.631390e+003,1.433974e+001
1.632354e+003,1.606933e+001
1.633319e+003,1.767907e+001
1.634283e+003,1.865105e+001
1.635247e+003,1.854561e+001
1.636211e+003,1.773004e+001
1.637176e+003,1.670106e+001
1.638140e+003,1.553345e+001
1.639104e+003,1.502939e+001
1.640068e+003,1.544595e+001
1.641033e+003,1.546198e+001
1.641997e+003,1.406454e+001
1.642961e+003,1.326622e+001
1.643925e+003,1.483340e+001
1.644890e+003,1.678917e+001
1.645854e+003,1.690688e+001
1.646818e+003,1.573948e+001
1.647782e+003,1.534430e+001
1.648747e+003,1.627425e+001
1.649711e+003,1.684283e+001
1.650675e+003,1.550323e+001
1.651639e+003,1.337318e+001
1.652604e+003,1.277151e+001
1.653568e+003,1.360576e+001
1.654532e+003,1.428062e+001
1.655496e+003,1.473778e+001
1.656460e+003,1.496088e+001
1.657425e+003,1.484672e+001
1.658389e+003,1.466727e+001
1.659353e+003,1.477808e+001
1.660317e+003,1.474668e+001
1.661281e+003,1.378188e+001
1.662246e+003,1.226443e+001
1.663210e+003,1.157096e+001
1.664174e+003,1.212668e+001
1.665138e+003,1.254336e+001
1.666103e+003,1.136401e+001
1.667067e+003,9.670631e+000
1.668031e+003,1.003380e+001
1.668995e+003,1.226478e+001
1.669960e+003,1.327935e+001
1.670924e+003,1.259148e+001
1.671888e+003,1.190542e+001
1.672852e+003,1.182840e+001
1.673817e+003,1.167585e+001
1.674781e+003,1.073469e+001
1.675745e+003,9.692307e+000
1.676709e+003,9.411659e+000
1.677674e+003,9.703781e+000
1.678638e+003,9.784721e+000
1.679602e+003,9.415794e+000
1.680566e+003,9.024948e+000
1.681531e+003,8.978912e+000
1.682495e+003,9.130424e+000
1.683459e+003,9.347710e+000
1.684423e+003,9.499535e+000
1.685387e+003,8.669487e+000
1.686352e+003,6.561569e+000
1.687316e+003,5.498955e+000
1.688280e+003,6.790466e+000
1.689244e+003,8.209274e+000
1.690208e+003,7.936195e+000
1.691173e+003,7.004707e+000
1.692137e+003,6.297974e+000
1.693101e+003,5.969238e+000
1.694065e+003,6.476028e+000
1.695030e+003,7.944672e+000
1.695994e+003,8.583061e+000
1.696958e+003,6.647110e+000
1.697922e+003,4.163437e+000
1.698887e+003,3.915855e+000
1.699851e+003,5.159988e+000
1.700815e+003,5.566032e+000
1.701779e+003,4.917351e+000
1.702744e+003,4.073456e+000
1.703708e+003,3.193947e+000
1.704672e+003,2.880249e+000
1.705636e+003,3.883522e+000
1.706601e+003,5.233612e+000
1.707565e+003,5.541267e+000
1.708529e+003,5.101997e+000
1.709493e+003,4.707848e+000
1.710458e+003,4.464706e+000
1.711422e+003,4.031059e+000
1.712386e+003,2.957695e+000
1.713350e+003,2.097145e+000
1.714314e+003,2.375336e+000
1.715279e+003,3.073273e+000
1.716243e+003,2.855293e+000
1.717207e+003,1.893776e+000
1.718171e+003,1.544060e+000
1.719135e+003,2.190193e+000
1.720100e+003,2.863663e+000
1.721064e+003,2.878822e+000
1.722028e+003,2.666695e+000
1.722992e+003,2.987076e+000
1.723957e+003,3.711021e+000
1.724921e+003,3.822723e+000
1.725885e+003,3.221581e+000
1.726849e+003,2.213715e+000
1.727814e+003,-2.270432e-001
1.728778e+003,-1.434296e+000
1.729742e+003,6.731110e-001
1.730706e+003,3.643127e+000
1.731671e+003,5.535088e+000
1.732635e+003,6.136436e+000
1.733599e+003,4.964584e+000
1.734563e+003,2.532257e+000
1.735528e+003,1.537224e+000
1.736492e+003,3.362465e+000
1.737456e+003,5.453789e+000
1.738420e+003,4.720917e+000
1.739385e+003,1.933334e+000
1.740349e+003,-1.261902e-002
1.741313e+003,-1.188805e+000
1.742277e+003,-9.169464e-001
1.743241e+003,2.864670e+000
1.744206e+003,4.867424e+000
1.745170e+003,2.930542e+000
1.746134e+003,7.415619e-001
1.747098e+003,3.408203e-001
1.748063e+003,7.711258e-001
1.749027e+003,7.675095e-001
1.749991e+003,4.402313e-001
1.750955e+003,8.867264e-001
1.751919e+003,2.234283e+000
1.752884e+003,2.781563e+000
1.753848e+003,1.087173e+000
1.754812e+003,-1.464882e+000
1.755776e+003,-1.951866e+000
1.756741e+003,-4.149628e-001
1.757705e+003,3.598175e-001
1.758669e+003,6.293488e-002
1.759633e+003,-2.184296e-001
1.760598e+003,-6.428375e-001
1.761562e+003,-7.245102e-001
1.762526e+003,3.351135e-001
1.763490e+003,1.204308e+000
1.764455e+003,6.469650e-001
1.765419e+003,-5.643463e-001
1.766383e+003,-1.280518e+000
1.767347e+003,-1.341377e+000
1.768312e+003,-1.018082e+000
1.769276e+003,-4.409485e-001
1.770240e+003,3.140259e-002
1.771204e+003,-7.233429e-002
1.772168e+003,-3.050690e-001
1.773133e+003,6.639709e-001
1.774097e+003,2.589027e+000
1.775061e+003,2.605721e+000
1.776025e+003,3.356934e-003
1.776990e+003,-1.524994e+000
1.777954e+003,-2.490692e-001
1.778918e+003,1.390282e+000
1.779882e+003,1.462547e+000
1.780846e+003,9.674911e-001
1.781811e+003,1.750183e+000
1.782775e+003,3.174713e+000
1.783739e+003,2.711578e+000
1.784703e+003,-2.071609e-001
1.785668e+003,-2.255714e+000
1.786632e+003,-1.559364e+000
1.787596e+003,-3.796921e-001
1.788560e+003,-1.670990e-001
1.789525e+003,-4.854279e-001
1.790489e+003,-1.097443e+000
1.791453e+003,-1.737762e+000
1.792417e+003,-1.534729e+000
1.793382e+003,-4.104843e-001
1.794346e+003,5.585632e-001
1.795310e+003,8.157959e-001
1.796274e+003,3.954010e-001
1.797239e+003,-8.137436e-001
1.798203e+003,-2.273232e+000
1.799167e+003,-2.351280e+000
1.800131e+003,-8.559799e-001
1.801095e+003,6.271362e-002
1.802060e+003,4.856491e-001
1.803024e+003,4.471283e-001
1.803988e+003,-9.454498e-001
1.804952e+003,-1.764427e+000
1.805917e+003,-5.906143e-001
1.806881e+003,1.159203e+000
1.807845e+003,2.319618e+000
1.808809e+003,2.795334e+000
1.809773e+003,2.450485e+000
1.810738e+003,1.584991e+000
1.811702e+003,1.556198e+000
1.812666e+003,3.170265e+000
1.813630e+003,4.980186e+000
1.814595e+003,4.956871e+000
1.815559e+003,3.597824e+000
1.816523e+003,3.129974e+000
1.817487e+003,3.722191e+000
1.818452e+003,3.357681e+000
1.819416e+003,1.497658e+000
1.820380e+003,1.030197e-001
1.821344e+003,-1.830750e-001
1.822309e+003,-1.428375e-001
1.823273e+003,-3.499146e-001
1.824237e+003,-3.212814e-001
1.825201e+003,7.094727e-001
1.826166e+003,2.299728e+000
1.827130e+003,3.246124e+000
1.828094e+003,3.336395e+000
1.829058e+003,3.368210e+000
1.830022e+003,3.890511e+000
1.830987e+003,4.171417e+000
1.831951e+003,3.485062e+000
1.832915e+003,2.280754e+000
1.833879e+003,1.079704e+000
1.834844e+003,-5.532074e-002
1.835808e+003,-1.186157e+000
1.836772e+003,-2.246521e+000
1.837736e+003,-2.717461e+000
1.838700e+003,-2.383942e+000
1.839665e+003,-1.602066e+000
1.840629e+003,-6.068954e-001
1.841593e+003,4.589767e-001
1.842557e+003,1.230949e+000
1.843522e+003,1.713333e+000
1.844486e+003,2.490425e+000
1.845450e+003,4.392891e+000
1.846414e+003,5.057518e+000
1.847379e+003,3.230087e+000
1.848343e+003,1.741661e+000
1.849307e+003,1.847183e+000
1.850271e+003,2.172112e+000
1.851236e+003,1.690987e+000
1.852200e+003,8.399048e-001
1.853164e+003,1.032333e-001
1.854128e+003,-3.595200e-001
1.855093e+003,-2.940979e-001
1.856057e+003,3.692245e-001
1.857021e+003,1.114677e+000
1.857985e+003,1.476936e+000
1.858949e+003,1.696243e+000
1.859914e+003,2.275002e+000
1.860878e+003,3.123901e+000
1.861842e+003,3.591942e+000
1.862806e+003,3.645164e+000
1.863771e+003,4.061348e+000
1.864735e+003,5.158997e+000
1.865699e+003,5.607391e+000
1.866663e+003,4.617165e+000
1.867627e+003,3.273491e+000
1.868592e+003,2.102852e+000
1.869556e+003,1.398277e+000
1.870520e+003,2.250481e+000
1.871484e+003,4.286026e+000
1.872449e+003,4.890221e+000
1.873413e+003,3.529755e+000
1.874377e+003,2.387314e+000
1.875341e+003,1.715271e+000
1.876306e+003,1.641327e+000
1.877270e+003,2.850449e+000
1.878234e+003,4.106064e+000
1.879198e+003,3.758644e+000
1.880163e+003,2.750755e+000
1.881127e+003,3.323189e+000
1.882091e+003,5.242508e+000
1.883055e+003,5.963097e+000
1.884020e+003,4.558800e+000
1.884984e+003,3.083893e+000
1.885948e+003,3.424271e+000
1.886912e+003,4.699799e+000
1.887876e+003,5.172989e+000
1.888841e+003,4.910568e+000
1.889805e+003,4.695648e+000
1.890769e+003,4.624535e+000
1.891733e+003,3.950371e+000
1.892698e+003,1.932274e+000
1.893662e+003,8.813019e-001
1.894626e+003,2.098122e+000
1.895590e+003,3.869591e+000
1.896554e+003,5.748199e+000
1.897519e+003,7.061531e+000
1.898483e+003,6.471710e+000
1.899447e+003,4.524895e+000
1.900411e+003,3.235588e+000
1.901376e+003,2.957069e+000
1.902340e+003,3.142433e+000
1.903304e+003,4.128761e+000
1.904268e+003,4.653748e+000
1.905233e+003,3.237633e+000
1.906197e+003,1.695869e+000
1.907161e+003,2.267853e+000
1.908125e+003,3.928024e+000
1.909090e+003,4.583679e+000
1.910054e+003,4.204903e+000
1.911018e+003,4.148186e+000
1.911982e+003,4.814041e+000
1.912947e+003,5.086052e+000
1.913911e+003,4.128426e+000
1.914875e+003,2.938751e+000
1.915839e+003,3.105881e+000
1.916803e+003,4.284348e+000
1.917768e+003,4.873131e+000
1.918732e+003,4.798149e+000
1.919696e+003,4.859787e+000
1.920660e+003,5.218513e+000
1.921625e+003,5.359604e+000
1.922589e+003,5.005478e+000
1.923553e+003,4.621437e+000
1.924517e+003,4.125557e+000
1.925481e+003,4.016037e+000
1.926446e+003,5.220459e+000
1.927410e+003,6.948395e+000
1.928374e+003,7.494888e+000
1.929338e+003,6.813835e+000
1.930303e+003,6.445946e+000
1.931267e+003,6.989075e+000
1.932231e+003,7.401588e+000
1.933195e+003,7.066643e+000
1.934160e+003,6.516441e+000
1.935124e+003,5.851219e+000
1.936088e+003,5.393845e+000
1.937052e+003,5.908875e+000
1.938017e+003,6.870949e+000
1.938981e+003,6.912857e+000
1.939945e+003,6.009796e+000
1.940909e+003,5.358116e+000
1.941874e+003,5.476669e+000
1.942838e+003,5.742264e+000
1.943802e+003,5.607338e+000
1.944766e+003,5.336250e+000
1.945730e+003,5.361549e+000
1.946695e+003,5.629364e+000
1.947659e+003,5.985283e+000
1.948623e+003,6.435905e+000
1.949587e+003,6.758919e+000
1.950552e+003,6.914787e+000
1.951516e+003,7.125420e+000
1.952480e+003,7.527657e+000
1.953444e+003,7.850761e+000
1.954408e+003,7.773865e+000
1.955373e+003,7.588577e+000
1.956337e+003,7.852928e+000
1.957301e+003,8.441757e+000
1.958265e+003,8.717972e+000
1.959230e+003,8.631546e+000
1.960194e+003,8.597588e+000
1.961158e+003,8.828606e+000
1.962122e+003,8.721260e+000
1.963087e+003,7.892685e+000
1.964051e+003,6.991402e+000
1.965015e+003,5.986588e+000
1.965979e+003,5.525101e+000
1.966944e+003,6.787590e+000
1.967908e+003,8.718452e+000
1.968872e+003,9.342468e+000
1.969836e+003,8.583961e+000
1.970801e+003,7.684738e+000
1.971765e+003,7.232941e+000
1.972729e+003,7.354576e+000
1.973693e+003,8.270569e+000
1.974657e+003,9.449341e+000
1.975622e+003,1.033556e+001
1.976586e+003,1.074329e+001
1.977550e+003,9.587273e+000
1.978514e+003,7.424698e+000
1.979479e+003,7.895439e+000
1.980443e+003,1.127785e+001
1.981407e+003,1.279463e+001
1.982371e+003,1.059838e+001
1.983335e+003,8.075287e+000
1.984300e+003,7.743156e+000
1.985264e+003,8.370163e+000
1.986228e+003,8.041122e+000
1.987192e+003,7.121239e+000
1.988157e+003,7.613976e+000
1.989121e+003,1.000659e+001
1.990085e+003,1.138227e+001
1.991049e+003,1.152591e+001
1.992014e+003,1.113158e+001
1.992978e+003,9.175606e+000
1.993942e+003,8.155533e+000
1.994906e+003,9.983627e+000
1.995871e+003,1.195114e+001
1.996835e+003,1.173109e+001
1.997799e+003,1.062530e+001
1.998763e+003,1.061591e+001
1.999728e+003,1.158939e+001
