5.003444e+002,4.179085e+001
5.013087e+002,3.952417e+001
5.022729e+002,3.690033e+001
5.032371e+002,3.461649e+001
5.042014e+002,3.432130e+001
5.051656e+002,3.573608e+001
5.061298e+002,3.747606e+001
5.070941e+002,3.826837e+001
5.080583e+002,3.782967e+001
5.090225e+002,3.758595e+001
5.099868e+002,3.792567e+001
5.109510e+002,3.800443e+001
5.119152e+002,3.725719e+001
5.128795e+002,3.561380e+001
5.138437e+002,3.414259e+001
5.148079e+002,3.250627e+001
5.157722e+002,3.178250e+001
5.167364e+002,3.338094e+001
5.177006e+002,3.679079e+001
5.186649e+002,3.948985e+001
5.196291e+002,3.757922e+001
5.205933e+002,3.393581e+001
5.215576e+002,3.161880e+001
5.225218e+002,3.084267e+001
5.234860e+002,3.060014e+001
5.244503e+002,2.914618e+001
5.254145e+002,2.607454e+001
5.263787e+002,2.441156e+001
5.273430e+002,2.500270e+001
5.283072e+002,2.641893e+001
5.292714e+002,2.652588e+001
5.302357e+002,2.409361e+001
5.311999e+002,2.267435e+001
5.321641e+002,2.329962e+001
5.331284e+002,2.467773e+001
5.340926e+002,2.598354e+001
5.350568e+002,2.689975e+001
5.360211e+002,2.706885e+001
5.369853e+002,2.594283e+001
5.379495e+002,2.438577e+001
5.389138e+002,2.279388e+001
5.398780e+002,2.141902e+001
5.408422e+002,2.048604e+001
5.418065e+002,2.108780e+001
5.427707e+002,2.294188e+001
5.437349e+002,2.394116e+001
5.446992e+002,2.330040e+001
5.456634e+002,2.154434e+001
5.466276e+002,2.057483e+001
5.475919e+002,2.146774e+001
5.485561e+002,2.197581e+001
5.495203e+002,2.148239e+001
5.504846e+002,2.064034e+001
5.514488e+002,2.059035e+001
5.524130e+002,2.233743e+001
5.533773e+002,2.365854e+001
5.543415e+002,2.357899e+001
5.553057e+002,2.255679e+001
5.562700e+002,2.062463e+001
5.572342e+002,1.781522e+001
5.581984e+002,1.509312e+001
5.591627e+002,1.538455e+001
5.601269e+002,1.761763e+001
5.610911e+002,1.957484e+001
5.620554e+002,2.006659e+001
5.630196e+002,1.925053e+001
5.639838e+002,1.893692e+001
5.649481e+002,2.033066e+001
5.659123e+002,2.051488e+001
5.668765e+002,1.842010e+001
5.678408e+002,1.488408e+001
5.688050e+002,1.208768e+001
5.697692e+002,1.055486e+001
5.707335e+002,9.593445e+000
5.716977e+002,9.318161e+000
5.726619e+002,9.410919e+000
5.736262e+002,9.469223e+000
5.745904e+002,9.201508e+000
5.755546e+002,9.006790e+000
5.765189e+002,9.628647e+000
5.774831e+002,1.057010e+001
5.784473e+002,1.104204e+001
5.794116e+002,1.055516e+001
5.803758e+002,9.281464e+000
5.813400e+002,8.483841e+000
5.823043e+002,7.858765e+000
5.832685e+002,7.793503e+000
5.842327e+002,9.213364e+000
5.851970e+002,1.178255e+001
5.861612e+002,1.280869e+001
5.871254e+002,9.253815e+000
5.880897e+002,6.921783e+000
5.890539e+002,7.960251e+000
5.900181e+002,1.070181e+001
5.909824e+002,1.225269e+001
5.919466e+002,1.057399e+001
5.929108e+002,7.706726e+000
5.938751e+002,5.622299e+000
5.948393e+002,4.213272e+000
5.958035e+002,3.268799e+000
5.967678e+002,2.650970e+000
5.977320e+002,2.515198e+000
5.986962e+002,4.419144e+000
5.996605e+002,8.352753e+000
6.006247e+002,1.145560e+001
6.015889e+002,1.226952e+001
6.025532e+002,1.093822e+001
6.035174e+002,9.546555e+000
6.044816e+002,7.149780e+000
6.054459e+002,5.858566e+000
6.064101e+002,6.528336e+000
6.073743e+002,8.426697e+000
6.083386e+002,1.045848e+001
6.093028e+002,1.264064e+001
6.102670e+002,1.355678e+001
6.112313e+002,1.149924e+001
6.121955e+002,8.082504e+000
6.131597e+002,5.374222e+000
6.141240e+002,4.784363e+000
6.150882e+002,5.780151e+000
6.160524e+002,6.302505e+000
6.170167e+002,6.484589e+000
6.179809e+002,6.569000e+000
6.189451e+002,6.628906e+000
6.199094e+002,6.590179e+000
6.208736e+002,6.263824e+000
6.218378e+002,5.217300e+000
6.228021e+002,4.605484e+000
6.237663e+002,4.658463e+000
6.247305e+002,5.208420e+000
6.256948e+002,6.036179e+000
6.266590e+002,7.242493e+000
6.276232e+002,8.007599e+000
6.285875e+002,7.995743e+000
6.295517e+002,7.508286e+000
6.305159e+002,6.564423e+000
6.314802e+002,5.220932e+000
6.324444e+002,3.904297e+000
6.334086e+002,4.642746e+000
6.343729e+002,6.721359e+000
6.353371e+002,7.665756e+000
6.363013e+002,6.333801e+000
6.372656e+002,3.546829e+000
6.382298e+002,2.356857e+000
6.391940e+002,4.662689e+000
6.401583e+002,6.125748e+000
6.411225e+002,6.859665e+000
6.420867e+002,6.881165e+000
6.430510e+002,5.859665e+000
6.440152e+002,3.158539e+000
6.449794e+002,8.816833e-001
6.459437e+002,1.718445e-001
6.469079e+002,1.786194e-001
6.478721e+002,4.193420e-001
6.488364e+002,6.830444e-001
6.498006e+002,1.020538e+000
6.507648e+002,1.612610e+000
6.517291e+002,2.245804e+000
6.526933e+002,2.331772e+000
6.536575e+002,1.716232e+000
6.546218e+002,8.722382e-001
6.555860e+002,7.158966e-001
6.565502e+002,1.564377e+000
6.575145e+002,2.533295e+000
6.584787e+002,4.459885e+000
6.594429e+002,5.870300e+000
6.604072e+002,5.139847e+000
6.613714e+002,1.774918e+000
6.623356e+002,-8.921661e-001
6.632999e+002,-7.899780e-001
6.642641e+002,-1.532440e-001
6.652283e+002,-1.933289e-002
6.661926e+002,-4.230499e-001
6.671568e+002,-7.054901e-001
6.681210e+002,-1.112366e-001
6.690853e+002,1.116638e+000
6.700495e+002,2.253159e+000
6.710137e+002,3.306702e+000
6.719780e+002,4.597153e+000
6.729422e+002,6.614609e+000
6.739064e+002,9.763062e+000
6.748707e+002,1.067267e+001
6.758349e+002,8.365723e+000
6.767991e+002,5.649384e+000
6.777634e+002,3.276398e+000
6.787276e+002,1.460770e+000
6.796918e+002,9.041443e-001
6.806561e+002,3.547012e+000
6.816203e+002,5.460114e+000
6.825845e+002,4.316772e+000
6.835488e+002,1.568924e+000
6.845130e+002,-1.702728e-001
6.854772e+002,1.171310e+000
6.864415e+002,4.022278e+000
6.874057e+002,4.736694e+000
6.883699e+002,3.761444e+000
6.893342e+002,2.120346e+000
6.902984e+002,3.249512e-001
6.912626e+002,-1.468582e+000
6.922269e+002,-2.407776e+000
6.931911e+002,-1.570084e+000
6.941553e+002,-8.392029e-001
6.951196e+002,-8.559265e-001
6.960838e+002,-1.055801e+000
6.970480e+002,-2.540436e-001
6.980123e+002,2.509369e+000
6.989765e+002,4.525116e+000
6.999407e+002,4.869995e+000
7.009050e+002,4.107162e+000
7.018692e+002,1.898880e+000
7.028334e+002,-1.474335e+000
7.037977e+002,-4.263870e+000
7.047619e+002,-2.648636e+000
7.057261e+002,1.430023e+000
7.066904e+002,3.753036e+000
7.076546e+002,3.638977e+000
7.086188e+002,2.414383e+000
7.095831e+002,2.169601e+000
7.105473e+002,3.346451e+000
7.115115e+002,3.965012e+000
7.124758e+002,3.735641e+000
7.134400e+002,3.304230e+000
7.144042e+002,3.106750e+000
7.153685e+002,3.192734e+000
7.163327e+002,3.203430e+000
7.172969e+002,3.169113e+000
7.182612e+002,2.829819e+000
7.192254e+002,1.626953e+000
7.201896e+002,-3.509521e-003
7.211539e+002,-1.220963e+000
7.221181e+002,-1.301239e+000
7.230823e+002,-5.129089e-001
7.240466e+002,6.679230e-001
7.250108e+002,2.129700e+000
7.259750e+002,2.859131e+000
7.269393e+002,2.059784e+000
7.279035e+002,-1.219940e-001
7.288677e+002,-1.619934e+000
7.298320e+002,-2.058487e+000
7.307962e+002,-1.784607e+000
7.317604e+002,-4.335327e-001
7.327247e+002,1.502151e+000
7.336889e+002,3.450317e+000
7.346531e+002,5.356598e+000
7.356174e+002,6.268860e+000
7.365816e+002,5.439270e+000
7.375458e+002,4.122482e+000
7.385101e+002,3.130585e+000
7.394743e+002,2.731262e+000
7.404385e+002,2.707932e+000
7.414028e+002,2.774979e+000
7.423670e+002,2.714386e+000
7.433312e+002,2.432144e+000
7.442955e+002,2.040558e+000
7.452597e+002,1.810043e+000
7.462239e+002,2.048294e+000
7.471882e+002,2.925049e+000
7.481524e+002,3.302399e+000
7.491166e+002,2.504959e+000
7.500809e+002,1.791412e+000
7.510451e+002,1.737991e+000
7.520093e+002,2.197433e+000
7.529736e+002,2.536636e+000
7.539378e+002,2.497498e+000
7.549020e+002,2.469757e+000
7.558663e+002,2.881592e+000
7.568306e+002,3.378784e+000
7.577948e+002,3.276077e+000
7.587590e+002,2.190353e+000
7.597233e+002,6.406708e-001
7.606875e+002,7.116241e-001
7.616517e+002,2.230499e+000
7.626160e+002,2.970459e+000
7.635802e+002,2.133835e+000
7.645444e+002,5.093384e-001
7.655087e+002,-3.071136e-001
7.664729e+002,-1.058350e-001
7.674371e+002,5.105286e-001
7.684014e+002,1.863892e+000
7.693656e+002,3.176849e+000
7.703298e+002,4.017258e+000
7.712941e+002,4.331207e+000
7.722583e+002,4.313324e+000
7.732225e+002,3.928558e+000
7.741868e+002,3.381683e+000
7.751510e+002,2.706131e+000
7.761152e+002,2.021759e+000
7.770795e+002,1.462479e+000
7.780437e+002,1.130692e+000
7.790079e+002,1.048386e+000
7.799722e+002,2.023422e+000
7.809364e+002,4.266541e+000
7.819006e+002,5.725800e+000
7.828649e+002,5.059448e+000
7.838291e+002,3.088425e+000
7.847933e+002,2.493851e+000
7.857576e+002,4.239609e+000
7.867218e+002,5.644836e+000
7.876860e+002,6.442413e+000
7.886503e+002,6.809509e+000
7.896145e+002,6.779022e+000
7.905787e+002,6.403778e+000
7.915430e+002,5.970520e+000
7.925072e+002,5.711456e+000
7.934714e+002,5.438232e+000
7.944357e+002,5.026764e+000
7.953999e+002,4.560303e+000
7.963641e+002,4.143265e+000
7.973284e+002,3.822525e+000
7.982926e+002,3.554932e+000
7.992568e+002,4.588409e+000
8.002211e+002,8.018066e+000
8.011853e+002,1.019153e+001
8.021495e+002,9.500214e+000
8.031138e+002,6.716888e+000
8.040780e+002,3.993149e+000
8.050422e+002,6.105042e-001
8.060065e+002,-9.267273e-001
8.069707e+002,9.758911e-001
8.079349e+002,4.193497e+000
8.088992e+002,7.031723e+000
8.098634e+002,8.796539e+000
8.108276e+002,9.602417e+000
8.117919e+002,8.983566e+000
8.127561e+002,7.461273e+000
8.137203e+002,6.415451e+000
8.146846e+002,6.110153e+000
8.156488e+002,6.267426e+000
8.166130e+002,6.523071e+000
8.175773e+002,6.908188e+000
8.185415e+002,7.017731e+000
8.195057e+002,6.681686e+000
8.204700e+002,6.164108e+000
8.214342e+002,5.376724e+000
8.223984e+002,4.482010e+000
8.233627e+002,3.871460e+000
8.243269e+002,3.705246e+000
8.252911e+002,3.916702e+000
8.262554e+002,4.450806e+000
8.272196e+002,5.198502e+000
8.281838e+002,6.242386e+000
8.291481e+002,7.485382e+000
8.301123e+002,8.457169e+000
8.310765e+002,8.182556e+000
8.320408e+002,6.739594e+000
8.330050e+002,5.887527e+000
8.339692e+002,5.901779e+000
8.349335e+002,6.022186e+000
8.358977e+002,5.319809e+000
8.368619e+002,3.611557e+000
8.378262e+002,2.859482e+000
8.387904e+002,3.804764e+000
8.397546e+002,4.763977e+000
8.407189e+002,5.398849e+000
8.416831e+002,5.774323e+000
8.426473e+002,6.143936e+000
8.436116e+002,6.688141e+000
8.445758e+002,7.006714e+000
8.455400e+002,6.260208e+000
8.465043e+002,5.073914e+000
8.474685e+002,4.218765e+000
8.484327e+002,4.007706e+000
8.493970e+002,4.353027e+000
8.503612e+002,5.015579e+000
8.513254e+002,6.039810e+000
8.522897e+002,6.664017e+000
8.532539e+002,6.290344e+000
8.542181e+002,6.194519e+000
8.551824e+002,7.659363e+000
8.561466e+002,1.050664e+001
8.571108e+002,1.240251e+001
8.580751e+002,1.179012e+001
8.590393e+002,1.104379e+001
8.600035e+002,1.110771e+001
8.609678e+002,1.153354e+001
8.619320e+002,1.175308e+001
8.628962e+002,1.152138e+001
8.638605e+002,1.105249e+001
8.648247e+002,1.056389e+001
8.657889e+002,1.011948e+001
8.667532e+002,9.968964e+000
8.677174e+002,1.014468e+001
8.686816e+002,1.034827e+001
8.696459e+002,1.013583e+001
8.706101e+002,9.341003e+000
8.715743e+002,9.858093e+000
8.725386e+002,1.296889e+001
8.735028e+002,1.565169e+001
8.744670e+002,1.698616e+001
8.754313e+002,1.729054e+001
8.763955e+002,1.732602e+001
8.773597e+002,1.737444e+001
8.783240e+002,1.720404e+001
8.792882e+002,1.587064e+001
8.802524e+002,1.466653e+001
8.812167e+002,1.518286e+001
8.821809e+002,1.741730e+001
8.831451e+002,1.985960e+001
8.841094e+002,2.052106e+001
8.850736e+002,1.955290e+001
8.860378e+002,1.961603e+001
8.870021e+002,2.092845e+001
8.879663e+002,2.213411e+001
8.889305e+002,2.224344e+001
8.898948e+002,2.149850e+001
8.908590e+002,2.131282e+001
8.918232e+002,2.210146e+001
8.927875e+002,2.315506e+001
8.937517e+002,2.436534e+001
8.947159e+002,2.570944e+001
8.956802e+002,2.752444e+001
8.966444e+002,2.958504e+001
8.976086e+002,3.060400e+001
8.985729e+002,2.869684e+001
8.995371e+002,2.565695e+001
9.005013e+002,2.464032e+001
9.014656e+002,2.542123e+001
9.024298e+002,2.619743e+001
9.033940e+002,2.549852e+001
9.043583e+002,2.353133e+001
9.053225e+002,2.258340e+001
9.062867e+002,2.370535e+001
9.072510e+002,2.441530e+001
9.082152e+002,2.446423e+001
9.091794e+002,2.442671e+001
9.101437e+002,2.487392e+001
9.111079e+002,2.588875e+001
9.120721e+002,2.696591e+001
9.130364e+002,2.810428e+001
9.140006e+002,2.874924e+001
9.149648e+002,2.829366e+001
9.159291e+002,2.723422e+001
9.168933e+002,2.656383e+001
9.178575e+002,2.691817e+001
9.188218e+002,2.775082e+001
9.197860e+002,2.707156e+001
9.207502e+002,2.475050e+001
9.217145e+002,2.374289e+001
9.226787e+002,2.556630e+001
9.236429e+002,2.826036e+001
9.246072e+002,2.890874e+001
9.255714e+002,2.695139e+001
9.265356e+002,2.553195e+001
9.274999e+002,2.579617e+001
9.284641e+002,2.590166e+001
9.294283e+002,2.509302e+001
9.303926e+002,2.377040e+001
9.313568e+002,2.260744e+001
9.323210e+002,2.191704e+001
9.332853e+002,2.173210e+001
9.342495e+002,2.287097e+001
9.352137e+002,2.437350e+001
9.361780e+002,2.462560e+001
9.371422e+002,2.336644e+001
9.381064e+002,2.149992e+001
9.390707e+002,2.007870e+001
9.400349e+002,1.897638e+001
9.409991e+002,1.849216e+001
9.419634e+002,1.935420e+001
9.429276e+002,1.977193e+001
9.438918e+002,1.882156e+001
9.448561e+002,1.731830e+001
9.458203e+002,1.678918e+001
9.467845e+002,1.787686e+001
9.477488e+002,1.896303e+001
9.487130e+002,1.890843e+001
9.496772e+002,1.825409e+001
9.506415e+002,1.686082e+001
9.516057e+002,1.513110e+001
9.525699e+002,1.424059e+001
9.535342e+002,1.536525e+001
9.544984e+002,1.807906e+001
9.554626e+002,1.882458e+001
9.564269e+002,1.745821e+001
9.573911e+002,1.615781e+001
9.583553e+002,1.548170e+001
9.593196e+002,1.514136e+001
9.602838e+002,1.463695e+001
9.612480e+002,1.380348e+001
9.622123e+002,1.329469e+001
9.631765e+002,1.408516e+001
9.641407e+002,1.452193e+001
9.651050e+002,1.318976e+001
9.660692e+002,1.088687e+001
9.670334e+002,9.480423e+000
9.679977e+002,1.019563e+001
9.689619e+002,1.209904e+001
9.699261e+002,1.316002e+001
9.708904e+002,1.355806e+001
9.718546e+002,1.370717e+001
9.728188e+002,1.346858e+001
9.737831e+002,1.380490e+001
9.747473e+002,1.648958e+001
9.757115e+002,2.231459e+001
9.766758e+002,2.632397e+001
9.776400e+002,2.872818e+001
9.786042e+002,2.920430e+001
9.795685e+002,2.621376e+001
9.805327e+002,2.168335e+001
9.814969e+002,1.815079e+001
9.824612e+002,1.652840e+001
9.834254e+002,1.561600e+001
9.843896e+002,1.433382e+001
9.853539e+002,1.290103e+001
9.863181e+002,1.122366e+001
9.872823e+002,9.504501e+000
9.882466e+002,8.846054e+000
9.892108e+002,1.036678e+001
9.901750e+002,1.361891e+001
9.911393e+002,1.431111e+001
9.921035e+002,9.086075e+000
9.930677e+002,6.255051e+000
9.940320e+002,7.946091e+000
9.949962e+002,1.092046e+001
9.959604e+002,1.226845e+001
9.969247e+002,1.181224e+001
9.978889e+002,1.126984e+001
9.988531e+002,1.132027e+001
9.998174e+002,1.133022e+001
1.000782e+003,1.102948e+001
1.001746e+003,1.054686e+001
1.002710e+003,1.005659e+001
1.003674e+003,9.613419e+000
1.004639e+003,9.043533e+000
1.005603e+003,7.934906e+000
1.006567e+003,6.197723e+000
1.007531e+003,6.118454e+000
1.008495e+003,8.512970e+000
1.009460e+003,1.087555e+001
1.010424e+003,1.199956e+001
1.011388e+003,1.195757e+001
1.012352e+003,1.072565e+001
1.013317e+003,7.304977e+000
1.014281e+003,4.616211e+000
1.015245e+003,3.616013e+000
1.016209e+003,3.347061e+000
1.017174e+003,3.363174e+000
1.018138e+003,3.461197e+000
1.019102e+003,3.490158e+000
1.020066e+003,3.324921e+000
1.021031e+003,3.145065e+000
1.021995e+003,3.206772e+000
1.022959e+003,3.424850e+000
1.023923e+003,4.232437e+000
1.024887e+003,6.246140e+000
1.025852e+003,8.051788e+000
1.026816e+003,6.947128e+000
1.027780e+003,1.990952e+000
1.028744e+003,-1.059433e+000
1.029709e+003,-6.062775e-001
1.030673e+003,3.591919e-001
1.031637e+003,1.393143e+000
1.032601e+003,2.193726e+000
1.033566e+003,2.452469e+000
1.034530e+003,2.103287e+000
1.035494e+003,1.592010e+000
1.036458e+003,1.422699e+000
1.037422e+003,1.309982e+000
1.038387e+003,6.646118e-001
1.039351e+003,-4.667664e-001
1.040315e+003,-1.404449e+000
1.041279e+003,-1.616409e+000
1.042244e+003,-1.164230e+000
1.043208e+003,-4.813690e-001
1.044172e+003,6.723633e-001
1.045136e+003,1.445251e+000
1.046101e+003,1.922607e+000
1.047065e+003,2.038391e+000
1.048029e+003,1.358856e+000
1.048993e+003,1.910858e-001
1.049958e+003,-3.309937e-001
1.050922e+003,5.182648e-001
1.051886e+003,1.812195e+000
1.052850e+003,2.983337e+000
1.053814e+003,3.784058e+000
1.054779e+003,3.592209e+000
1.055743e+003,2.400787e+000
1.056707e+003,1.075882e+000
1.057671e+003,6.753235e-001
1.058636e+003,1.188919e+000
1.059600e+003,1.496796e+000
1.060564e+003,2.201279e+000
1.061528e+003,2.071091e+000
1.062493e+003,-2.646179e-001
1.063457e+003,-2.896393e+000
1.064421e+003,-3.362244e+000
1.065385e+003,-1.403961e+000
1.066349e+003,4.113770e-001
1.067314e+003,8.039246e-001
1.068278e+003,6.191254e-001
1.069242e+003,-1.405792e-001
1.070206e+003,-7.758942e-001
1.071171e+003,6.590271e-002
1.072135e+003,2.715714e+000
1.073099e+003,5.721359e+000
1.074063e+003,6.680771e+000
1.075028e+003,5.420715e+000
1.075992e+003,4.229935e+000
1.076956e+003,3.026260e+000
1.077920e+003,1.861481e+000
1.078885e+003,5.388794e-001
1.079849e+003,-5.503082e-001
1.080813e+003,-5.859833e-001
1.081777e+003,7.476654e-001
1.082741e+003,2.054321e+000
1.083706e+003,2.680695e+000
1.084670e+003,2.851990e+000
1.085634e+003,2.485611e+000
1.086598e+003,1.776566e+000
1.087563e+003,9.513702e-001
1.088527e+003,2.156219e-001
1.089491e+003,-1.737213e-001
1.090455e+003,2.150116e-001
1.091420e+003,1.419937e+000
1.092384e+003,2.565475e+000
1.093348e+003,3.993393e+000
1.094312e+003,4.656647e+000
1.095276e+003,3.436874e+000
1.096241e+003,1.102692e+000
1.097205e+003,7.720947e-003
1.098169e+003,8.749542e-001
1.099133e+003,1.454224e+000
1.100098e+003,5.866241e-001
1.101062e+003,-4.454651e-001
1.102026e+003,-8.931427e-001
1.102990e+003,-8.068695e-001
1.103955e+003,-5.253143e-001
1.104919e+003,-2.821655e-001
1.105883e+003,-1.665039e-001
1.106847e+003,-3.364258e-001
1.107812e+003,-8.197327e-001
1.108776e+003,-1.452530e+000
1.109740e+003,-2.437057e+000
1.110704e+003,-3.138641e+000
1.111668e+003,-2.879471e+000
1.112633e+003,-1.832626e+000
1.113597e+003,-9.489288e-001
1.114561e+003,-3.273163e-001
1.115525e+003,-2.687073e-002
1.116490e+003,-3.032990e-001
1.117454e+003,-6.492615e-001
1.118418e+003,-5.959625e-001
1.119382e+003,-2.421875e-001
1.120347e+003,-7.997131e-002
1.121311e+003,-4.741974e-001
1.122275e+003,-1.175507e+000
1.123239e+003,-1.446716e+000
1.124203e+003,-1.218353e+000
1.125168e+003,-1.096771e+000
1.126132e+003,-1.242310e+000
1.127096e+003,-1.117645e+000
1.128060e+003,2.038574e-002
1.129025e+003,1.789413e+000
1.129989e+003,2.364105e+000
1.130953e+003,9.676514e-001
1.131917e+003,-2.229767e-001
1.132882e+003,-5.561218e-001
1.133846e+003,-5.361023e-001
1.134810e+003,-4.712677e-001
1.135774e+003,-3.033600e-001
1.136739e+003,3.547668e-001
1.137703e+003,1.690781e+000
1.138667e+003,2.975021e+000
1.139631e+003,2.606049e+000
1.140595e+003,9.107513e-001
1.141560e+003,9.374542e-001
1.142524e+003,3.261368e+000
1.143488e+003,5.967102e+000
1.144452e+003,7.535767e+000
1.145417e+003,8.415375e+000
1.146381e+003,1.039372e+001
1.147345e+003,1.404967e+001
1.148309e+003,1.727956e+001
1.149274e+003,1.973679e+001
1.150238e+003,2.159676e+001
1.151202e+003,2.236543e+001
1.152166e+003,2.280829e+001
1.153130e+003,2.445457e+001
1.154095e+003,2.782314e+001
1.155059e+003,3.116925e+001
1.156023e+003,3.199695e+001
1.156987e+003,3.059662e+001
1.157952e+003,2.994412e+001
1.158916e+003,3.058099e+001
1.159880e+003,2.985315e+001
1.160844e+003,2.475311e+001
1.161809e+003,1.755380e+001
1.162773e+003,1.414655e+001
1.163737e+003,1.571532e+001
1.164701e+003,1.584058e+001
1.165666e+003,1.089525e+001
1.166630e+003,6.413651e+000
1.167594e+003,4.665756e+000
1.168558e+003,4.511932e+000
1.169522e+003,4.191391e+000
1.170487e+003,3.190018e+000
1.171451e+003,2.496033e+000
1.172415e+003,3.291550e+000
1.173379e+003,5.201126e+000
1.174344e+003,6.377686e+000
1.175308e+003,6.881226e+000
1.176272e+003,6.984573e+000
1.177236e+003,6.741531e+000
1.178201e+003,6.218994e+000
1.179165e+003,5.325363e+000
1.180129e+003,3.995346e+000
1.181093e+003,2.874329e+000
1.182057e+003,2.080048e+000
1.183022e+003,1.648544e+000
1.183986e+003,1.762192e+000
1.184950e+003,2.081055e+000
1.185914e+003,2.349625e+000
1.186879e+003,2.516693e+000
1.187843e+003,2.634323e+000
1.188807e+003,2.723083e+000
1.189771e+003,2.734100e+000
1.190736e+003,2.587296e+000
1.191700e+003,2.253967e+000
1.192664e+003,1.975967e+000
1.193628e+003,1.806320e+000
1.194593e+003,1.747284e+000
1.195557e+003,2.077087e+000
1.196521e+003,2.510498e+000
1.197485e+003,1.865585e+000
1.198449e+003,-5.106812e-001
1.199414e+003,-2.394348e+000
1.200378e+003,-2.416306e+000
1.201342e+003,-1.942032e+000
1.202306e+003,-1.533218e+000
1.203271e+003,-1.399490e+000
1.204235e+003,-1.620407e+000
1.205199e+003,-2.237976e+000
1.206163e+003,-3.445816e+000
1.207128e+003,-5.781921e+000
1.208092e+003,-9.370483e+000
1.209056e+003,-9.986984e+000
1.210020e+003,-5.746674e+000
1.210984e+003,-2.808578e+000
1.211949e+003,-3.733414e+000
1.212913e+003,-6.419586e+000
1.213877e+003,-8.378006e+000
1.214841e+003,-9.382431e+000
1.215806e+003,-9.790771e+000
1.216770e+003,-9.278656e+000
1.217734e+003,-8.974442e+000
1.218698e+003,-1.013554e+001
1.219663e+003,-1.169781e+001
1.220627e+003,-1.218773e+001
1.221591e+003,-1.148450e+001
1.222555e+003,-1.063885e+001
1.223520e+003,-1.060788e+001
1.224484e+003,-1.121620e+001
1.225448e+003,-1.176028e+001
1.226412e+003,-1.223085e+001
1.227376e+003,-1.268156e+001
1.228341e+003,-1.341408e+001
1.229305e+003,-1.384343e+001
1.230269e+003,-1.343674e+001
1.231233e+003,-1.256860e+001
1.232198e+003,-1.194380e+001
1.233162e+003,-1.170911e+001
1.234126e+003,-1.166772e+001
1.235090e+003,-1.175555e+001
1.236055e+003,-1.201776e+001
1.237019e+003,-1.267874e+001
1.237983e+003,-1.353569e+001
1.238947e+003,-1.392325e+001
1.239911e+003,-1.353979e+001
1.240876e+003,-1.296217e+001
1.241840e+003,-1.316493e+001
1.242804e+003,-1.422696e+001
1.243768e+003,-1.454597e+001
1.244733e+003,-1.313519e+001
1.245697e+003,-1.227203e+001
1.246661e+003,-1.269196e+001
1.247625e+003,-1.333031e+001
1.248590e+003,-1.319321e+001
1.249554e+003,-1.247159e+001
1.250518e+003,-1.220134e+001
1.251482e+003,-1.293608e+001
1.252447e+003,-1.375122e+001
1.253411e+003,-1.328452e+001
1.254375e+003,-1.211818e+001
1.255339e+003,-1.169391e+001
1.256303e+003,-1.199991e+001
1.257268e+003,-1.195673e+001
1.258232e+003,-1.088808e+001
1.259196e+003,-9.365295e+000
1.260160e+003,-8.520355e+000
1.261125e+003,-8.473969e+000
1.262089e+003,-7.981827e+000
1.263053e+003,-6.138672e+000
1.264017e+003,-4.984131e+000
1.264982e+003,-5.255402e+000
1.265946e+003,-6.169144e+000
1.266910e+003,-7.168793e+000
1.267874e+003,-8.054291e+000
1.268839e+003,-8.795197e+000
1.269803e+003,-9.366943e+000
1.270767e+003,-9.636993e+000
1.271731e+003,-9.135376e+000
1.272695e+003,-7.907272e+000
1.273660e+003,-7.699982e+000
1.274624e+003,-9.004547e+000
1.275588e+003,-1.041858e+001
1.276552e+003,-1.121352e+001
1.277517e+003,-1.150119e+001
1.278481e+003,-1.153955e+001
1.279445e+003,-1.135657e+001
1.280409e+003,-1.102216e+001
1.281374e+003,-1.030258e+001
1.282338e+003,-9.772751e+000
1.283302e+003,-9.848557e+000
1.284266e+003,-1.019969e+001
1.285230e+003,-1.043764e+001
1.286195e+003,-1.053015e+001
1.287159e+003,-1.079034e+001
1.288123e+003,-1.145139e+001
1.289087e+003,-1.212660e+001
1.290052e+003,-1.169180e+001
1.291016e+003,-9.551346e+000
1.291980e+003,-8.707184e+000
1.292944e+003,-1.003296e+001
1.293909e+003,-1.150812e+001
1.294873e+003,-1.261050e+001
1.295837e+003,-1.317783e+001
1.296801e+003,-1.285099e+001
1.297766e+003,-1.166483e+001
1.298730e+003,-1.042776e+001
1.299694e+003,-9.445602e+000
1.300658e+003,-8.902817e+000
1.301622e+003,-9.238281e+000
1.302587e+003,-9.949402e+000
1.303551e+003,-1.025972e+001
1.304515e+003,-1.002484e+001
1.305479e+003,-9.603424e+000
1.306444e+003,-9.299164e+000
1.307408e+003,-9.104843e+000
1.308372e+003,-8.920074e+000
1.309336e+003,-8.793839e+000
1.310301e+003,-8.538559e+000
1.311265e+003,-7.522003e+000
1.312229e+003,-7.073090e+000
1.313193e+003,-8.131836e+000
1.314157e+003,-9.619431e+000
1.315122e+003,-1.043022e+001
1.316086e+003,-1.045436e+001
1.317050e+003,-1.020013e+001
1.318014e+003,-9.949142e+000
1.318979e+003,-9.723770e+000
1.319943e+003,-9.561523e+000
1.320907e+003,-9.474335e+000
1.321871e+003,-9.834381e+000
1.322836e+003,-1.100070e+001
1.323800e+003,-1.169839e+001
1.324764e+003,-1.097610e+001
1.325728e+003,-9.481857e+000
1.326693e+003,-8.065033e+000
1.327657e+003,-6.774643e+000
1.328621e+003,-6.745575e+000
1.329585e+003,-9.178314e+000
1.330549e+003,-1.101653e+001
1.331514e+003,-1.024985e+001
1.332478e+003,-8.860504e+000
1.333442e+003,-8.961212e+000
1.334406e+003,-1.023907e+001
1.335371e+003,-1.061296e+001
1.336335e+003,-8.891510e+000
1.337299e+003,-6.730911e+000
1.338263e+003,-7.490921e+000
1.339228e+003,-1.176294e+001
1.340192e+003,-1.331400e+001
1.341156e+003,-9.694778e+000
1.342120e+003,-7.167130e+000
1.343084e+003,-7.109299e+000
1.344049e+003,-8.118042e+000
1.345013e+003,-9.543411e+000
1.345977e+003,-1.090262e+001
1.346941e+003,-1.128691e+001
1.347906e+003,-1.034866e+001
1.348870e+003,-8.879395e+000
1.349834e+003,-7.473145e+000
1.350798e+003,-6.147232e+000
1.351763e+003,-4.499420e+000
1.352727e+003,-2.731537e+000
1.353691e+003,-2.299942e+000
1.354655e+003,-4.053635e+000
1.355620e+003,-6.131561e+000
1.356584e+003,-5.751068e+000
1.357548e+003,-3.359512e+000
1.358512e+003,-3.588379e+000
1.359476e+003,-8.216324e+000
1.360441e+003,-1.141983e+001
1.361405e+003,-1.069952e+001
1.362369e+003,-9.302826e+000
1.363333e+003,-8.461334e+000
1.364298e+003,-8.097794e+000
1.365262e+003,-8.005264e+000
1.366226e+003,-8.029083e+000
1.367190e+003,-7.892822e+000
1.368155e+003,-7.338516e+000
1.369119e+003,-6.598373e+000
1.370083e+003,-6.412674e+000
1.371047e+003,-6.923096e+000
1.372011e+003,-7.283478e+000
1.372976e+003,-7.329178e+000
1.373940e+003,-7.590576e+000
1.374904e+003,-8.632507e+000
1.375868e+003,-9.701004e+000
1.376833e+003,-9.665993e+000
1.377797e+003,-8.620041e+000
1.378761e+003,-7.880569e+000
1.379725e+003,-8.088318e+000
1.380690e+003,-8.408081e+000
1.381654e+003,-7.514282e+000
1.382618e+003,-6.414063e+000
1.383582e+003,-6.942429e+000
1.384547e+003,-8.896667e+000
1.385511e+003,-1.017373e+001
1.386475e+003,-9.703484e+000
1.387439e+003,-8.229584e+000
1.388403e+003,-6.544571e+000
1.389368e+003,-4.660278e+000
1.390332e+003,-3.845062e+000
1.391296e+003,-4.614548e+000
1.392260e+003,-5.413452e+000
1.393225e+003,-5.914352e+000
1.394189e+003,-6.348541e+000
1.395153e+003,-7.056732e+000
1.396117e+003,-7.686844e+000
1.397082e+003,-7.453445e+000
1.398046e+003,-6.340881e+000
1.399010e+003,-5.459869e+000
1.399974e+003,-5.894287e+000
1.400938e+003,-7.161697e+000
1.401903e+003,-7.503006e+000
1.402867e+003,-6.458145e+000
1.403831e+003,-5.614685e+000
1.404795e+003,-5.378555e+000
1.405760e+003,-4.953079e+000
1.406724e+003,-3.628937e+000
1.407688e+003,-2.499176e+000
1.408652e+003,-2.880692e+000
1.409617e+003,-4.574692e+000
1.410581e+003,-6.496384e+000
1.411545e+003,-8.389420e+000
1.412509e+003,-9.520126e+000
1.413474e+003,-8.800682e+000
1.414438e+003,-7.150436e+000
1.415402e+003,-5.686188e+000
1.416366e+003,-4.496628e+000
1.417330e+003,-4.264542e+000
1.418295e+003,-5.469894e+000
1.419259e+003,-6.906097e+000
1.420223e+003,-7.183678e+000
1.421187e+003,-6.500977e+000
1.422152e+003,-5.812378e+000
1.423116e+003,-5.024292e+000
1.424080e+003,-4.359253e+000
1.425044e+003,-3.719482e+000
1.426009e+003,-3.552536e+000
1.426973e+003,-4.681458e+000
1.427937e+003,-6.019989e+000
1.428901e+003,-5.931503e+000
1.429865e+003,-4.578110e+000
1.430830e+003,-3.800919e+000
1.431794e+003,-4.820297e+000
1.432758e+003,-6.459885e+000
1.433722e+003,-6.228058e+000
1.434687e+003,-3.807785e+000
1.435651e+003,-2.396027e+000
1.436615e+003,-2.972809e+000
1.437579e+003,-3.540359e+000
1.438544e+003,-3.897415e+000
1.439508e+003,-4.171371e+000
1.440472e+003,-4.500214e+000
1.441436e+003,-4.711639e+000
1.442401e+003,-4.436935e+000
1.443365e+003,-3.663834e+000
1.444329e+003,-2.962219e+000
1.445293e+003,-2.767258e+000
1.446257e+003,-2.754669e+000
1.447222e+003,-2.216248e+000
1.448186e+003,-1.324097e+000
1.449150e+003,-1.033325e+000
1.450114e+003,-1.520737e+000
1.451079e+003,-2.303299e+000
1.452043e+003,-3.713364e+000
1.453007e+003,-4.792557e+000
1.453971e+003,-3.785660e+000
1.454936e+003,-1.064362e+000
1.455900e+003,6.800537e-001
1.456864e+003,8.100128e-001
1.457828e+003,3.514709e-001
1.458792e+003,-2.968597e-001
1.459757e+003,-1.249786e+000
1.460721e+003,-3.182587e+000
1.461685e+003,-5.329521e+000
1.462649e+003,-5.987541e+000
1.463614e+003,-4.791748e+000
1.464578e+003,-3.109039e+000
1.465542e+003,-2.045700e+000
1.466506e+003,-1.662003e+000
1.467471e+003,-2.369186e+000
1.468435e+003,-4.613083e+000
1.469399e+003,-5.301880e+000
1.470363e+003,-2.988571e+000
1.471328e+003,-1.066635e+000
1.472292e+003,-2.908325e-001
1.473256e+003,-2.605286e-001
1.474220e+003,-8.280334e-001
1.475184e+003,-1.681396e+000
1.476149e+003,-2.548447e+000
1.477113e+003,-3.317963e+000
1.478077e+003,-3.959976e+000
1.479041e+003,-4.407364e+000
1.480006e+003,-4.433289e+000
1.480970e+003,-3.330338e+000
1.481934e+003,-6.644592e-001
1.482898e+003,9.520264e-001
1.483863e+003,1.185257e+000
1.484827e+003,9.329071e-001
1.485791e+003,-4.936218e-002
1.486755e+003,-9.006195e-001
1.487719e+003,-5.962372e-001
1.488684e+003,3.999481e-001
1.489648e+003,6.489105e-001
1.490612e+003,-2.457123e-001
1.491576e+003,-9.826202e-001
1.492541e+003,-5.178986e-001
1.493505e+003,7.272949e-001
1.494469e+003,2.131012e+000
1.495433e+003,3.533340e+000
1.496398e+003,4.236664e+000
1.497362e+003,4.174164e+000
1.498326e+003,3.729416e+000
1.499290e+003,2.430832e+000
1.500255e+003,1.310211e+000
1.501219e+003,1.949509e+000
1.502183e+003,4.098694e+000
1.503147e+003,6.287491e+000
1.504111e+003,8.234283e+000
1.505076e+003,1.003363e+001
1.506040e+003,1.203650e+001
1.507004e+003,1.358661e+001
1.507968e+003,1.328889e+001
1.508933e+003,1.232668e+001
1.509897e+003,1.339433e+001
1.510861e+003,1.698433e+001
1.511825e+003,2.101808e+001
1.512790e+003,2.403946e+001
1.513754e+003,2.641527e+001
1.514718e+003,2.889644e+001
1.515682e+003,3.143245e+001
1.516646e+003,3.395102e+001
1.517611e+003,3.670914e+001
1.518575e+003,3.902553e+001
1.519539e+003,4.107257e+001
1.520503e+003,4.233525e+001
1.521468e+003,4.204082e+001
1.522432e+003,4.095966e+001
1.523396e+003,4.015826e+001
1.524360e+003,3.975790e+001
1.525325e+003,3.922913e+001
1.526289e+003,3.824161e+001
1.527253e+003,3.681242e+001
1.528217e+003,3.492125e+001
1.529182e+003,3.261041e+001
1.530146e+003,3.008801e+001
1.531110e+003,2.712453e+001
1.532074e+003,2.428131e+001
1.533039e+003,2.120061e+001
1.534003e+003,1.843404e+001
1.534967e+003,1.658070e+001
1.535931e+003,1.515320e+001
1.536896e+003,1.364203e+001
1.537860e+003,1.195308e+001
1.538824e+003,9.925018e+000
1.539788e+003,7.534729e+000
1.540752e+003,5.827667e+000
1.541717e+003,6.401031e+000
1.542681e+003,8.654922e+000
1.543645e+003,8.499985e+000
1.544609e+003,4.403915e+000
1.545573e+003,2.001709e+000
1.546538e+003,1.778320e+000
1.547502e+003,2.347305e+000
1.548466e+003,3.866821e+000
1.549430e+003,5.579941e+000
1.550395e+003,6.935501e+000
1.551359e+003,7.707535e+000
1.552323e+003,7.427307e+000
1.553287e+003,6.028809e+000
1.554252e+003,4.627258e+000
1.555216e+003,4.208954e+000
1.556180e+003,4.387894e+000
1.557144e+003,4.279236e+000
1.558109e+003,3.897980e+000
1.559073e+003,3.804443e+000
1.560037e+003,4.314346e+000
1.561001e+003,4.237640e+000
1.561966e+003,2.509872e+000
1.562930e+003,8.475952e-001
1.563894e+003,1.080460e+000
1.564858e+003,2.496246e+000
1.565823e+003,3.228134e+000
1.566787e+003,2.932236e+000
1.567751e+003,2.629074e+000
1.568715e+003,2.879135e+000
1.569679e+003,3.477661e+000
1.570644e+003,4.344559e+000
1.571608e+003,5.225449e+000
1.572572e+003,5.479309e+000
1.573536e+003,5.116333e+000
1.574500e+003,4.826538e+000
1.575465e+003,4.803940e+000
1.576429e+003,4.909851e+000
1.577393e+003,5.136726e+000
1.578357e+003,5.327927e+000
1.579322e+003,5.084213e+000
1.580286e+003,4.464798e+000
1.581250e+003,4.285629e+000
1.582214e+003,4.887367e+000
1.583179e+003,5.613884e+000
1.584143e+003,5.975868e+000
1.585107e+003,6.137932e+000
1.586071e+003,6.865952e+000
1.587036e+003,7.732285e+000
1.588000e+003,6.617004e+000
1.588964e+003,2.815094e+000
1.589928e+003,2.050323e-001
1.590893e+003,2.220985e+000
1.591857e+003,6.050041e+000
1.592821e+003,7.313576e+000
1.593785e+003,6.510506e+000
1.594750e+003,6.677231e+000
1.595714e+003,8.381866e+000
1.596678e+003,9.494659e+000
1.597642e+003,8.950638e+000
1.598606e+003,7.879524e+000
1.599571e+003,6.699455e+000
1.600535e+003,5.887871e+000
1.601499e+003,6.292656e+000
1.602463e+003,7.723091e+000
1.603427e+003,9.147781e+000
1.604392e+003,1.020351e+001
1.605356e+003,1.079091e+001
1.606320e+003,1.051816e+001
1.607284e+003,9.804588e+000
1.608249e+003,1.002833e+001
1.609213e+003,1.123847e+001
1.610177e+003,1.175066e+001
1.611141e+003,1.096347e+001
1.612106e+003,1.028148e+001
1.613070e+003,1.039662e+001
1.614034e+003,1.085048e+001
1.614998e+003,1.150053e+001
1.615963e+003,1.219582e+001
1.616927e+003,1.261042e+001
1.617891e+003,1.274445e+001
1.618855e+003,1.312814e+001
1.619820e+003,1.416071e+001
1.620784e+003,1.493500e+001
1.621748e+003,1.388330e+001
1.622712e+003,1.151186e+001
1.623677e+003,1.036341e+001
1.624641e+003,1.050236e+001
1.625605e+003,1.177116e+001
1.626569e+003,1.513578e+001
1.627533e+003,1.759790e+001
1.628498e+003,1.737442e+001
1.629462e+003,1.616328e+001
1.630426e+003,1.498540e+001
1.631390e+003,1.404218e+001
1.632354e+003,1.352879e+001
1.633319e+003,1.345048e+001
1.634283e+003,1.352688e+001
1.635247e+003,1.353455e+001
1.636211e+003,1.358260e+001
1.637176e+003,1.407022e+001
1.638140e+003,1.495950e+001
1.639104e+003,1.510818e+001
1.640068e+003,1.421839e+001
1.641033e+003,1.349187e+001
1.641997e+003,1.343148e+001
1.642961e+003,1.336222e+001
1.643925e+003,1.269353e+001
1.644890e+003,1.203900e+001
1.645854e+003,1.198492e+001
1.646818e+003,1.245290e+001
1.647782e+003,1.328829e+001
1.648747e+003,1.436657e+001
1.649711e+003,1.500681e+001
1.650675e+003,1.458656e+001
1.651639e+003,1.365603e+001
1.652604e+003,1.320299e+001
1.653568e+003,1.318231e+001
1.654532e+003,1.355055e+001
1.655496e+003,1.459583e+001
1.656460e+003,1.497474e+001
1.657425e+003,1.379856e+001
1.658389e+003,1.260526e+001
1.659353e+003,1.238970e+001
1.660317e+003,1.244704e+001
1.661281e+003,1.201442e+001
1.662246e+003,1.114223e+001
1.663210e+003,1.011159e+001
1.664174e+003,9.072685e+000
1.665138e+003,8.598686e+000
1.666103e+003,9.275673e+000
1.667067e+003,1.056283e+001
1.668031e+003,1.166839e+001
1.668995e+003,1.254938e+001
1.669960e+003,1.211469e+001
1.670924e+003,9.800461e+000
1.671888e+003,8.351181e+000
1.672852e+003,9.086983e+000
1.673817e+003,1.012826e+001
1.674781e+003,1.032269e+001
1.675745e+003,1.013950e+001
1.676709e+003,1.015445e+001
1.677674e+003,1.024710e+001
1.678638e+003,9.842896e+000
1.679602e+003,8.774078e+000
1.680566e+003,7.617760e+000
1.681531e+003,6.658745e+000
1.682495e+003,6.176292e+000
1.683459e+003,6.804008e+000
1.684423e+003,8.311470e+000
1.685387e+003,9.532166e+000
1.686352e+003,1.041832e+001
1.687316e+003,1.076344e+001
1.688280e+003,1.050685e+001
1.689244e+003,9.678795e+000
1.690208e+003,7.751503e+000
1.691173e+003,5.599419e+000
1.692137e+003,3.875862e+000
1.693101e+003,2.843163e+000
1.694065e+003,3.443336e+000
1.695030e+003,5.948196e+000
1.695994e+003,7.578049e+000
1.696958e+003,6.047234e+000
1.697922e+003,3.538620e+000
1.698887e+003,2.814369e+000
1.699851e+003,3.350456e+000
1.700815e+003,3.556389e+000
1.701779e+003,3.262169e+000
1.702744e+003,2.670815e+000
1.703708e+003,1.723312e+000
1.704672e+003,1.304398e+000
1.705636e+003,2.422714e+000
1.706601e+003,3.880829e+000
1.707565e+003,3.536926e+000
1.708529e+003,2.177994e+000
1.709493e+003,2.501640e+000
1.710458e+003,5.062614e+000
1.711422e+003,6.836014e+000
1.712386e+003,6.110313e+000
1.713350e+003,4.837013e+000
1.714314e+003,4.519112e+000
1.715279e+003,4.589340e+000
1.716243e+003,3.792015e+000
1.717207e+003,2.446030e+000
1.718171e+003,2.820557e+000
1.719135e+003,5.550232e+000
1.720100e+003,7.310745e+000
1.721064e+003,5.582504e+000
1.722028e+003,2.590691e+000
1.722992e+003,1.545746e+000
1.723957e+003,2.165733e+000
1.724921e+003,2.461975e+000
1.725885e+003,2.303299e+000
1.726849e+003,2.048637e+000
1.727814e+003,1.684097e+000
1.728778e+003,1.546768e+000
1.729742e+003,2.177986e+000
1.730706e+003,2.700600e+000
1.731671e+003,1.570442e+000
1.732635e+003,-2.045059e-001
1.733599e+003,2.461243e-002
1.734563e+003,2.402061e+000
1.735528e+003,4.476677e+000
1.736492e+003,4.928352e+000
1.737456e+003,4.237053e+000
1.738420e+003,2.833466e+000
1.739385e+003,9.859848e-001
1.740349e+003,-2.011566e-001
1.741313e+003,-8.386688e-001
1.742277e+003,1.706696e-002
1.743241e+003,5.051872e+000
1.744206e+003,7.408173e+000
1.745170e+003,3.681488e+000
1.746134e+003,-4.598999e-002
1.747098e+003,1.539001e-001
1.748063e+003,1.722519e+000
1.749027e+003,1.351456e+000
1.749991e+003,-5.560532e-001
1.750955e+003,-1.774193e+000
1.751919e+003,-1.522980e+000
1.752884e+003,-4.386520e-001
1.753848e+003,9.795990e-001
1.754812e+003,2.169731e+000
1.755776e+003,1.896027e+000
1.756741e+003,2.777023e-001
1.757705e+003,-3.718872e-001
1.758669e+003,3.018188e-001
1.759633e+003,7.523422e-001
1.760598e+003,2.629471e-001
1.761562e+003,2.808533e-001
1.762526e+003,2.383789e+000
1.763490e+003,4.073456e+000
1.764455e+003,2.799484e+000
1.765419e+003,3.526154e-001
1.766383e+003,-2.168884e-001
1.767347e+003,1.146889e+000
1.768312e+003,2.316925e+000
1.769276e+003,2.282448e+000
1.770240e+003,1.505257e+000
1.771204e+003,2.194748e-001
1.772168e+003,-1.057266e+000
1.773133e+003,-1.065842e+000
1.774097e+003,3.933716e-002
1.775061e+003,7.036209e-001
1.776025e+003,6.768723e-001
1.776990e+003,5.066223e-001
1.777954e+003,3.485260e-001
1.778918e+003,3.417969e-001
1.779882e+003,6.583099e-001
1.780846e+003,1.016899e+000
1.781811e+003,9.724045e-001
1.782775e+003,7.215958e-001
1.783739e+003,9.125824e-001
1.784703e+003,1.688263e+000
1.785668e+003,2.526268e+000
1.786632e+003,3.386658e+000
1.787596e+003,3.865852e+000
1.788560e+003,3.645935e+000
1.789525e+003,3.039291e+000
1.790489e+003,2.046181e+000
1.791453e+003,9.993744e-001
1.792417e+003,1.155609e+000
1.793382e+003,2.601563e+000
1.794346e+003,3.425995e+000
1.795310e+003,2.563919e+000
1.796274e+003,1.251877e+000
1.797239e+003,9.235611e-001
1.798203e+003,1.362045e+000
1.799167e+003,1.663521e+000
1.800131e+003,1.671181e+000
1.801095e+003,1.781403e+000
1.802060e+003,2.621002e+000
1.803024e+003,2.782143e+000
1.803988e+003,9.546814e-001
1.804952e+003,-2.122269e-001
1.805917e+003,1.464539e+000
1.806881e+003,3.610794e+000
1.807845e+003,3.581841e+000
1.808809e+003,2.173286e+000
1.809773e+003,1.584099e+000
1.810738e+003,2.206657e+000
1.811702e+003,2.615837e+000
1.812666e+003,1.933144e+000
1.813630e+003,1.179298e+000
1.814595e+003,1.799126e+000
1.815559e+003,3.386772e+000
1.816523e+003,4.453506e+000
1.817487e+003,5.034836e+000
1.818452e+003,4.685387e+000
1.819416e+003,2.927277e+000
1.820380e+003,1.770111e+000
1.821344e+003,2.235306e+000
1.822309e+003,2.619690e+000
1.823273e+003,1.463661e+000
1.824237e+003,1.813736e-001
1.825201e+003,2.031631e-001
1.826166e+003,1.254936e+000
1.827130e+003,2.767899e+000
1.828094e+003,4.563866e+000
1.829058e+003,5.372330e+000
1.830022e+003,4.312904e+000
1.830987e+003,2.784286e+000
1.831951e+003,1.806648e+000
1.832915e+003,1.164551e+000
1.833879e+003,4.835663e-001
1.834844e+003,-1.373367e-001
1.835808e+003,-3.209229e-001
1.836772e+003,-3.292847e-002
1.837736e+003,3.651123e-001
1.838700e+003,6.869736e-001
1.839665e+003,1.180138e+000
1.840629e+003,2.199364e+000
1.841593e+003,3.260155e+000
1.842557e+003,3.176651e+000
1.843522e+003,1.971085e+000
1.844486e+003,1.604744e+000
1.845450e+003,2.865395e+000
1.846414e+003,3.593384e+000
1.847379e+003,3.206200e+000
1.848343e+003,2.900093e+000
1.849307e+003,3.660477e+000
1.850271e+003,4.022453e+000
1.851236e+003,2.065819e+000
1.852200e+003,-3.575668e-001
1.853164e+003,-2.800598e-001
1.854128e+003,1.776390e+000
1.855093e+003,2.976143e+000
1.856057e+003,2.330406e+000
1.857021e+003,1.246017e+000
1.857985e+003,8.294830e-001
1.858949e+003,7.766190e-001
1.859914e+003,3.201599e-001
1.860878e+003,-2.487564e-001
1.861842e+003,1.082504e+000
1.862806e+003,4.371582e+000
1.863771e+003,6.188354e+000
1.864735e+003,5.794426e+000
1.865699e+003,4.513260e+000
1.866663e+003,2.455894e+000
1.867627e+003,6.649475e-001
1.868592e+003,6.269073e-002
1.869556e+003,2.266235e-001
1.870520e+003,5.510406e-001
1.871484e+003,9.974518e-001
1.872449e+003,1.278908e+000
1.873413e+003,1.327332e+000
1.874377e+003,2.000275e+000
1.875341e+003,4.135933e+000
1.876306e+003,5.917351e+000
1.877270e+003,6.492302e+000
1.878234e+003,6.110199e+000
1.879198e+003,4.238724e+000
1.880163e+003,2.043022e+000
1.881127e+003,1.857292e+000
1.882091e+003,3.466835e+000
1.883055e+003,4.509293e+000
1.884020e+003,4.023674e+000
1.884984e+003,3.243744e+000
1.885948e+003,3.304855e+000
1.886912e+003,3.663986e+000
1.887876e+003,3.108200e+000
1.888841e+003,1.796738e+000
1.889805e+003,1.820641e+000
1.890769e+003,3.547951e+000
1.891733e+003,4.581291e+000
1.892698e+003,4.352325e+000
1.893662e+003,4.159004e+000
1.894626e+003,4.518593e+000
1.895590e+003,4.968925e+000
1.896554e+003,5.380409e+000
1.897519e+003,5.633362e+000
1.898483e+003,5.261436e+000
1.899447e+003,4.517365e+000
1.900411e+003,4.606522e+000
1.901376e+003,5.822617e+000
1.902340e+003,6.429214e+000
1.903304e+003,5.407799e+000
1.904268e+003,4.179520e+000
1.905233e+003,3.484642e+000
1.906197e+003,3.158638e+000
1.907161e+003,3.061234e+000
1.908125e+003,3.213158e+000
1.909090e+003,3.694244e+000
1.910054e+003,4.410439e+000
1.911018e+003,5.249565e+000
1.911982e+003,6.125839e+000
1.912947e+003,6.603668e+000
1.913911e+003,6.348923e+000
1.914875e+003,5.783623e+000
1.915839e+003,5.540535e+000
1.916803e+003,5.518196e+000
1.917768e+003,5.443069e+000
1.918732e+003,5.369316e+000
1.919696e+003,5.128311e+000
1.920660e+003,4.677254e+000
1.921625e+003,4.241882e+000
1.922589e+003,3.537529e+000
1.923553e+003,3.317940e+000
1.924517e+003,4.481537e+000
1.925481e+003,5.877365e+000
1.926446e+003,6.613884e+000
1.927410e+003,6.813019e+000
1.928374e+003,6.604034e+000
1.929338e+003,6.024872e+000
1.930303e+003,5.613487e+000
1.931267e+003,5.588905e+000
1.932231e+003,5.737106e+000
1.933195e+003,6.106201e+000
1.934160e+003,6.324997e+000
1.935124e+003,6.000267e+000
1.936088e+003,5.440956e+000
1.937052e+003,5.147545e+000
1.938017e+003,4.984695e+000
1.938981e+003,4.355598e+000
1.939945e+003,3.337051e+000
1.940909e+003,2.645500e+000
1.941874e+003,2.636703e+000
1.942838e+003,3.479538e+000
1.943802e+003,5.462074e+000
1.944766e+003,7.735527e+000
1.945730e+003,8.427696e+000
1.946695e+003,7.690239e+000
1.947659e+003,6.888184e+000
1.948623e+003,5.907753e+000
1.949587e+003,6.265739e+000
1.950552e+003,8.774162e+000
1.951516e+003,9.936569e+000
1.952480e+003,7.854950e+000
1.953444e+003,5.748909e+000
1.954408e+003,5.928383e+000
1.955373e+003,7.177757e+000
1.956337e+003,8.307892e+000
1.957301e+003,9.166618e+000
1.958265e+003,8.841911e+000
1.959230e+003,7.154594e+000
1.960194e+003,5.722702e+000
1.961158e+003,3.963272e+000
1.962122e+003,3.522446e+000
1.963087e+003,6.326218e+000
1.964051e+003,8.763206e+000
1.965015e+003,8.290993e+000
1.965979e+003,6.974792e+000
1.966944e+003,6.907799e+000
1.967908e+003,7.621674e+000
1.968872e+003,7.922264e+000
1.969836e+003,7.642586e+000
1.970801e+003,7.267624e+000
1.971765e+003,7.012497e+000
1.972729e+003,6.651932e+000
1.973693e+003,5.829239e+000
1.974657e+003,5.265488e+000
1.975622e+003,6.446350e+000
1.976586e+003,8.556747e+000
1.977550e+003,9.372353e+000
1.978514e+003,9.075470e+000
1.979479e+003,8.884346e+000
1.980443e+003,8.967819e+000
1.981407e+003,8.968697e+000
1.982371e+003,8.757202e+000
1.983335e+003,8.934135e+000
1.984300e+003,1.004922e+001
1.985264e+003,1.106628e+001
1.986228e+003,1.026437e+001
1.987192e+003,8.176277e+000
1.988157e+003,7.657539e+000
1.989121e+003,9.167419e+000
1.990085e+003,9.991112e+000
1.991049e+003,9.839516e+000
1.992014e+003,9.651474e+000
1.992978e+003,9.404526e+000
1.993942e+003,9.251991e+000
1.994906e+003,9.431160e+000
1.995871e+003,9.538734e+000
1.996835e+003,9.135773e+000
1.997799e+003,8.595734e+000
1.998763e+003,8.482193e+000
1.999728e+003,8.709061e+000
