5.003444e+002,3.233588e+001
5.013087e+002,3.150250e+001
5.022729e+002,3.176550e+001
5.032371e+002,3.306989e+001
5.042014e+002,3.351166e+001
5.051656e+002,3.330194e+001
5.061298e+002,3.296332e+001
5.070941e+002,3.289282e+001
5.080583e+002,3.301636e+001
5.090225e+002,3.237750e+001
5.099868e+002,3.059363e+001
5.109510e+002,2.868677e+001
5.119152e+002,2.698737e+001
5.128795e+002,2.551862e+001
5.138437e+002,2.492035e+001
5.148079e+002,2.632990e+001
5.157722e+002,2.800604e+001
5.167364e+002,2.929053e+001
5.177006e+002,2.986810e+001
5.186649e+002,2.973322e+001
5.196291e+002,2.917065e+001
5.205933e+002,2.847626e+001
5.215576e+002,2.683081e+001
5.225218e+002,2.411432e+001
5.234860e+002,2.130933e+001
5.244503e+002,2.068719e+001
5.254145e+002,2.372223e+001
5.263787e+002,2.546521e+001
5.273430e+002,2.521014e+001
5.283072e+002,2.416260e+001
5.292714e+002,2.393256e+001
5.302357e+002,2.482843e+001
5.311999e+002,2.438800e+001
5.321641e+002,2.240247e+001
5.331284e+002,2.017401e+001
5.340926e+002,1.849011e+001
5.350568e+002,1.744196e+001
5.360211e+002,1.617987e+001
5.369853e+002,1.341443e+001
5.379495e+002,1.117590e+001
5.389138e+002,1.153662e+001
5.398780e+002,1.498828e+001
5.408422e+002,2.002252e+001
5.418065e+002,2.305157e+001
5.427707e+002,2.419971e+001
5.437349e+002,2.331281e+001
5.446992e+002,1.945526e+001
5.456634e+002,1.390100e+001
5.466276e+002,1.132959e+001
5.475919e+002,1.554382e+001
5.485561e+002,1.870575e+001
5.495203e+002,2.032501e+001
5.504846e+002,2.045374e+001
5.514488e+002,1.909070e+001
5.524130e+002,1.555164e+001
5.533773e+002,1.270862e+001
5.543415e+002,1.255078e+001
5.553057e+002,1.341071e+001
5.562700e+002,1.321344e+001
5.572342e+002,1.065643e+001
5.581984e+002,7.321106e+000
5.591627e+002,8.058655e+000
5.601269e+002,1.149347e+001
5.610911e+002,1.442401e+001
5.620554e+002,1.507477e+001
5.630196e+002,1.351050e+001
5.639838e+002,1.174353e+001
5.649481e+002,9.793457e+000
5.659123e+002,7.673279e+000
5.668765e+002,5.441833e+000
5.678408e+002,3.599487e+000
5.688050e+002,2.939941e+000
5.697692e+002,3.725037e+000
5.707335e+002,4.425720e+000
5.716977e+002,5.588562e+000
5.726619e+002,6.405273e+000
5.736262e+002,5.467041e+000
5.745904e+002,1.477783e+000
5.755546e+002,-2.760437e+000
5.765189e+002,-3.410522e+000
5.774831e+002,-1.834167e+000
5.784473e+002,5.869141e-001
5.794116e+002,3.072327e+000
5.803758e+002,5.806641e+000
5.813400e+002,7.210999e+000
5.823043e+002,6.669922e+000
5.832685e+002,5.314636e+000
5.842327e+002,3.378662e+000
5.851970e+002,1.330811e+000
5.861612e+002,4.553223e-001
5.871254e+002,1.869873e+000
5.880897e+002,2.861572e+000
5.890539e+002,2.151245e+000
5.900181e+002,5.778809e-001
5.909824e+002,-2.934570e-001
5.919466e+002,7.206421e-001
5.929108e+002,2.837585e+000
5.938751e+002,5.891052e+000
5.948393e+002,8.947876e+000
5.958035e+002,1.029059e+001
5.967678e+002,8.781433e+000
5.977320e+002,5.198547e+000
5.986962e+002,4.619202e+000
5.996605e+002,6.526367e+000
6.006247e+002,8.127197e+000
6.015889e+002,8.334290e+000
6.025532e+002,7.240845e+000
6.035174e+002,5.573425e+000
6.044816e+002,1.423767e+000
6.054459e+002,-9.673462e-001
6.064101e+002,1.812134e-001
6.073743e+002,3.287292e+000
6.083386e+002,5.638733e+000
6.093028e+002,6.026611e+000
6.102670e+002,5.096130e+000
6.112313e+002,2.585510e+000
6.121955e+002,-4.017334e-001
6.131597e+002,-2.481201e+000
6.141240e+002,-2.717163e+000
6.150882e+002,-1.504150e+000
6.160524e+002,3.088379e-002
6.170167e+002,2.021729e+000
6.179809e+002,4.271484e+000
6.189451e+002,6.708740e+000
6.199094e+002,8.971985e+000
6.208736e+002,9.847168e+000
6.218378e+002,9.146790e+000
6.228021e+002,7.956177e+000
6.237663e+002,5.438538e+000
6.247305e+002,2.852661e+000
6.256948e+002,2.373596e+000
6.266590e+002,5.729736e+000
6.276232e+002,8.106079e+000
6.285875e+002,6.966309e+000
6.295517e+002,4.055542e+000
6.305159e+002,3.543091e-001
6.314802e+002,-3.526184e+000
6.324444e+002,-6.893188e+000
6.334086e+002,-6.203735e+000
6.343729e+002,-2.444702e+000
6.353371e+002,1.517517e+000
6.363013e+002,4.826294e+000
6.372656e+002,7.069214e+000
6.382298e+002,7.079773e+000
6.391940e+002,1.942261e+000
6.401583e+002,-2.073608e+000
6.411225e+002,-4.437744e+000
6.420867e+002,-5.036255e+000
6.430510e+002,-3.436279e+000
6.440152e+002,1.184143e+000
6.449794e+002,4.023621e+000
6.459437e+002,1.536743e+000
6.469079e+002,-2.524902e+000
6.478721e+002,-5.262573e+000
6.488364e+002,-5.552124e+000
6.498006e+002,-4.545471e+000
6.507648e+002,-4.451782e+000
6.517291e+002,-4.957153e+000
6.526933e+002,-4.896484e+000
6.536575e+002,-4.053894e+000
6.546218e+002,-2.826782e+000
6.555860e+002,-1.949036e+000
6.565502e+002,-1.717346e+000
6.575145e+002,-1.353821e+000
6.584787e+002,-5.007324e-001
6.594429e+002,2.554321e-001
6.604072e+002,3.381348e-002
6.613714e+002,-1.485046e+000
6.623356e+002,-1.669250e+000
6.632999e+002,2.765137e+000
6.642641e+002,6.548035e+000
6.652283e+002,6.649902e+000
6.661926e+002,3.481384e+000
6.671568e+002,-1.889038e-001
6.681210e+002,-1.473877e+000
6.690853e+002,-9.586182e-001
6.700495e+002,1.461792e-001
6.710137e+002,1.747620e+000
6.719780e+002,3.101013e+000
6.729422e+002,3.298767e+000
6.739064e+002,1.863953e+000
6.748707e+002,1.142151e+000
6.758349e+002,2.048706e+000
6.767991e+002,2.253662e+000
6.777634e+002,4.208374e-001
6.787276e+002,-2.768921e+000
6.796918e+002,-4.258545e+000
6.806561e+002,-1.824951e+000
6.816203e+002,5.763550e-001
6.825845e+002,2.033508e+000
6.835488e+002,2.310669e+000
6.845130e+002,7.973022e-001
6.854772e+002,-3.214233e+000
6.864415e+002,-7.170105e+000
6.874057e+002,-5.353210e+000
6.883699e+002,-1.440430e-002
6.893342e+002,4.532898e+000
6.902984e+002,6.033508e+000
6.912626e+002,4.921082e+000
6.922269e+002,3.332581e+000
6.931911e+002,-8.776855e-002
6.941553e+002,-7.753906e-001
6.951196e+002,3.592041e+000
6.960838e+002,9.506897e+000
6.970480e+002,1.132959e+001
6.980123e+002,6.335083e+000
6.989765e+002,1.761719e+000
6.999407e+002,4.706421e-001
7.009050e+002,6.618652e-001
7.018692e+002,1.305359e+000
7.028334e+002,1.805176e+000
7.037977e+002,1.813293e+000
7.047619e+002,7.243042e-001
7.057261e+002,-7.091675e-001
7.066904e+002,-1.621582e+000
7.076546e+002,-1.901245e+000
7.086188e+002,-1.829407e+000
7.095831e+002,-1.903259e+000
7.105473e+002,-2.667847e+000
7.115115e+002,-2.428833e+000
7.124758e+002,-2.833252e-001
7.134400e+002,1.496338e+000
7.144042e+002,1.399536e+000
7.153685e+002,-4.071655e-001
7.163327e+002,-1.638306e+000
7.172969e+002,-2.772827e-001
7.182612e+002,1.074036e+000
7.192254e+002,7.705688e-001
7.201896e+002,-5.950928e-001
7.211539e+002,-1.294739e+000
7.221181e+002,3.478394e-001
7.230823e+002,2.909058e+000
7.240466e+002,1.708923e+000
7.250108e+002,-1.861755e+000
7.259750e+002,-3.185730e+000
7.269393e+002,5.145264e-001
7.279035e+002,7.867249e+000
7.288677e+002,1.111395e+001
7.298320e+002,8.123901e+000
7.307962e+002,5.143982e+000
7.317604e+002,1.352539e+000
7.327247e+002,-1.645447e+000
7.336889e+002,-1.164429e+000
7.346531e+002,4.359253e+000
7.356174e+002,7.463257e+000
7.365816e+002,3.313782e+000
7.375458e+002,-2.399292e+000
7.385101e+002,-5.894287e+000
7.394743e+002,-5.970947e+000
7.404385e+002,-3.729309e+000
7.414028e+002,-4.799805e-001
7.423670e+002,2.682007e+000
7.433312e+002,4.919617e+000
7.442955e+002,6.849426e+000
7.452597e+002,8.525513e+000
7.462239e+002,9.523560e+000
7.471882e+002,9.279053e+000
7.481524e+002,9.911133e+000
7.491166e+002,1.175714e+001
7.500809e+002,1.268646e+001
7.510451e+002,1.163019e+001
7.520093e+002,8.974915e+000
7.529736e+002,6.244446e+000
7.539378e+002,4.629517e+000
7.549020e+002,3.509399e+000
7.558663e+002,1.868164e+000
7.568306e+002,4.155273e-001
7.577948e+002,2.548218e-001
7.587590e+002,1.824463e+000
7.597233e+002,4.032349e+000
7.606875e+002,4.240906e+000
7.616517e+002,3.040649e+000
7.626160e+002,2.810852e+000
7.635802e+002,4.704773e+000
7.645444e+002,7.509949e+000
7.655087e+002,8.444397e+000
7.664729e+002,6.214844e+000
7.674371e+002,4.530457e+000
7.684014e+002,3.181396e+000
7.693656e+002,2.613892e+000
7.703298e+002,3.371948e+000
7.712941e+002,5.471252e+000
7.722583e+002,8.222900e+000
7.732225e+002,1.276306e+001
7.741868e+002,1.596436e+001
7.751510e+002,1.424487e+001
7.761152e+002,9.096191e+000
7.770795e+002,4.144897e+000
7.780437e+002,2.534363e+000
7.790079e+002,3.715759e+000
7.799722e+002,4.142883e+000
7.809364e+002,3.871216e+000
7.819006e+002,3.142639e+000
7.828649e+002,1.575684e+000
7.838291e+002,2.612305e-002
7.847933e+002,1.026367e+000
7.857576e+002,7.201111e+000
7.867218e+002,1.002563e+001
7.876860e+002,6.420898e+000
7.886503e+002,1.389648e+000
7.896145e+002,-8.088379e-001
7.905787e+002,8.615112e-001
7.915430e+002,3.368591e+000
7.925072e+002,2.470337e+000
7.934714e+002,5.480347e-001
7.944357e+002,1.331177e+000
7.953999e+002,4.897766e+000
7.963641e+002,8.678833e+000
7.973284e+002,9.568481e+000
7.982926e+002,7.316772e+000
7.992568e+002,6.925537e+000
8.002211e+002,8.134583e+000
8.011853e+002,9.018372e+000
8.021495e+002,1.018884e+001
8.031138e+002,1.181012e+001
8.040780e+002,1.224323e+001
8.050422e+002,9.070374e+000
8.060065e+002,6.883667e+000
8.069707e+002,7.494385e+000
8.079349e+002,8.917786e+000
8.088992e+002,9.463135e+000
8.098634e+002,8.693909e+000
8.108276e+002,7.533936e+000
8.117919e+002,6.432617e+000
8.127561e+002,5.149780e+000
8.137203e+002,5.012756e+000
8.146846e+002,6.600342e+000
8.156488e+002,8.815552e+000
8.166130e+002,9.991760e+000
8.175773e+002,9.823547e+000
8.185415e+002,9.652771e+000
8.195057e+002,8.488403e+000
8.204700e+002,7.666931e+000
8.214342e+002,7.903809e+000
8.223984e+002,8.853394e+000
8.233627e+002,9.614807e+000
8.243269e+002,1.008197e+001
8.252911e+002,1.027356e+001
8.262554e+002,1.029089e+001
8.272196e+002,9.996399e+000
8.281838e+002,8.555420e+000
8.291481e+002,6.038696e+000
8.301123e+002,4.271118e+000
8.310765e+002,7.301697e+000
8.320408e+002,1.424432e+001
8.330050e+002,1.609924e+001
8.339692e+002,1.143127e+001
8.349335e+002,5.037903e+000
8.358977e+002,1.652710e+000
8.368619e+002,1.759888e+000
8.378262e+002,3.193176e+000
8.387904e+002,7.400024e+000
8.397546e+002,1.041565e+001
8.407189e+002,1.079510e+001
8.416831e+002,9.515686e+000
8.426473e+002,8.196045e+000
8.436116e+002,7.458252e+000
8.445758e+002,7.566162e+000
8.455400e+002,8.252563e+000
8.465043e+002,9.142761e+000
8.474685e+002,1.095721e+001
8.484327e+002,1.395740e+001
8.493970e+002,1.716522e+001
8.503612e+002,1.834100e+001
8.513254e+002,1.687762e+001
8.522897e+002,1.556647e+001
8.532539e+002,1.340411e+001
8.542181e+002,1.201532e+001
8.551824e+002,1.314063e+001
8.561466e+002,1.695239e+001
8.571108e+002,2.131836e+001
8.580751e+002,2.607385e+001
8.590393e+002,2.849768e+001
8.600035e+002,2.760376e+001
8.609678e+002,2.496503e+001
8.619320e+002,2.168353e+001
8.628962e+002,1.833069e+001
8.638605e+002,1.561639e+001
8.648247e+002,1.462897e+001
8.657889e+002,1.525806e+001
8.667532e+002,1.851776e+001
8.677174e+002,2.450641e+001
8.686816e+002,2.964703e+001
8.696459e+002,2.949329e+001
8.706101e+002,2.321185e+001
8.715743e+002,1.974048e+001
8.725386e+002,2.071490e+001
8.735028e+002,2.217584e+001
8.744670e+002,2.225964e+001
8.754313e+002,2.174591e+001
8.763955e+002,2.283368e+001
8.773597e+002,2.689764e+001
8.783240e+002,3.124475e+001
8.792882e+002,3.555896e+001
8.802524e+002,3.788300e+001
8.812167e+002,3.464288e+001
8.821809e+002,2.650006e+001
8.831451e+002,1.855835e+001
8.841094e+002,1.767657e+001
8.850736e+002,2.395959e+001
8.860378e+002,2.836224e+001
8.870021e+002,3.038715e+001
8.879663e+002,3.173260e+001
8.889305e+002,3.313593e+001
8.898948e+002,3.435352e+001
8.908590e+002,3.479980e+001
8.918232e+002,3.441614e+001
8.927875e+002,3.398297e+001
8.937517e+002,3.346033e+001
8.947159e+002,3.314178e+001
8.956802e+002,3.275757e+001
8.966444e+002,3.217889e+001
8.976086e+002,3.212024e+001
8.985729e+002,3.465674e+001
8.995371e+002,3.780420e+001
9.005013e+002,3.693005e+001
9.014656e+002,3.300562e+001
9.024298e+002,3.030798e+001
9.033940e+002,3.198224e+001
9.043583e+002,3.697852e+001
9.053225e+002,3.960077e+001
9.062867e+002,3.668555e+001
9.072510e+002,3.473395e+001
9.082152e+002,3.563263e+001
9.091794e+002,3.737183e+001
9.101437e+002,3.723572e+001
9.111079e+002,3.471429e+001
9.120721e+002,3.370123e+001
9.130364e+002,3.899054e+001
9.140006e+002,4.349463e+001
9.149648e+002,4.238409e+001
9.159291e+002,3.779968e+001
9.168933e+002,3.424304e+001
9.178575e+002,3.466241e+001
9.188218e+002,3.767322e+001
9.197860e+002,3.964624e+001
9.207502e+002,4.047467e+001
9.217145e+002,3.931580e+001
9.226787e+002,3.517261e+001
9.236429e+002,3.076941e+001
9.246072e+002,2.990082e+001
9.255714e+002,3.320599e+001
9.265356e+002,3.485138e+001
9.274999e+002,3.197363e+001
9.284641e+002,2.899493e+001
9.294283e+002,2.749249e+001
9.303926e+002,2.730914e+001
9.313568e+002,2.775867e+001
9.323210e+002,2.848175e+001
9.332853e+002,2.930847e+001
9.342495e+002,3.016577e+001
9.352137e+002,3.080988e+001
9.361780e+002,3.135345e+001
9.371422e+002,3.212701e+001
9.381064e+002,3.262299e+001
9.390707e+002,3.154297e+001
9.400349e+002,2.795355e+001
9.409991e+002,2.594690e+001
9.419634e+002,2.541949e+001
9.429276e+002,2.609290e+001
9.438918e+002,2.948761e+001
9.448561e+002,3.371735e+001
9.458203e+002,3.527124e+001
9.467845e+002,3.276215e+001
9.477488e+002,3.049353e+001
9.487130e+002,3.172974e+001
9.496772e+002,3.431384e+001
9.506415e+002,3.751654e+001
9.516057e+002,4.060345e+001
9.525699e+002,4.200549e+001
9.535342e+002,4.006616e+001
9.544984e+002,3.526025e+001
9.554626e+002,3.345428e+001
9.564269e+002,3.546741e+001
9.573911e+002,3.845221e+001
9.583553e+002,4.261151e+001
9.593196e+002,4.663135e+001
9.602838e+002,4.800989e+001
9.612480e+002,4.577557e+001
9.622123e+002,4.394977e+001
9.631765e+002,4.445764e+001
9.641407e+002,4.517969e+001
9.651050e+002,4.524408e+001
9.660692e+002,4.439471e+001
9.670334e+002,4.264185e+001
9.679977e+002,4.022009e+001
9.689619e+002,3.795319e+001
9.699261e+002,3.670532e+001
9.708904e+002,3.597412e+001
9.718546e+002,3.564246e+001
9.728188e+002,3.553595e+001
9.737831e+002,3.556787e+001
9.747473e+002,3.597034e+001
9.757115e+002,3.711237e+001
9.766758e+002,3.742664e+001
9.776400e+002,3.587122e+001
9.786042e+002,3.549695e+001
9.795685e+002,3.793231e+001
9.805327e+002,4.097064e+001
9.814969e+002,4.156018e+001
9.824612e+002,3.894745e+001
9.834254e+002,3.665497e+001
9.843896e+002,3.864612e+001
9.853539e+002,4.175458e+001
9.863181e+002,4.242377e+001
9.872823e+002,4.053900e+001
9.882466e+002,3.820068e+001
9.892108e+002,3.758966e+001
9.901750e+002,3.920605e+001
9.911393e+002,4.216321e+001
9.921035e+002,4.628802e+001
9.930677e+002,4.947620e+001
9.940320e+002,5.075702e+001
9.949962e+002,5.265607e+001
9.959604e+002,5.827032e+001
9.969247e+002,6.765668e+001
9.978889e+002,7.594373e+001
9.988531e+002,7.966730e+001
9.998174e+002,8.156146e+001
1.000782e+003,8.303064e+001
1.001746e+003,8.484149e+001
1.002710e+003,8.821307e+001
1.003674e+003,9.330878e+001
1.004639e+003,9.832477e+001
1.005603e+003,1.000610e+002
1.006567e+003,9.794537e+001
1.007531e+003,9.530322e+001
1.008495e+003,9.128802e+001
1.009460e+003,8.852673e+001
1.010424e+003,8.972522e+001
1.011388e+003,9.382324e+001
1.012352e+003,9.605951e+001
1.013317e+003,9.527765e+001
1.014281e+003,9.303296e+001
1.015245e+003,8.935114e+001
1.016209e+003,8.477582e+001
1.017174e+003,7.976019e+001
1.018138e+003,7.446039e+001
1.019102e+003,6.870752e+001
1.020066e+003,6.237793e+001
1.021031e+003,5.615173e+001
1.021995e+003,5.078796e+001
1.022959e+003,4.580341e+001
1.023923e+003,4.239471e+001
1.024887e+003,4.153571e+001
1.025852e+003,4.120428e+001
1.026816e+003,3.780646e+001
1.027780e+003,3.047302e+001
1.028744e+003,2.600641e+001
1.029709e+003,2.695465e+001
1.030673e+003,2.818549e+001
1.031637e+003,2.790198e+001
1.032601e+003,2.684100e+001
1.033566e+003,2.672510e+001
1.034530e+003,2.823566e+001
1.035494e+003,2.954578e+001
1.036458e+003,2.808990e+001
1.037422e+003,2.500616e+001
1.038387e+003,2.194159e+001
1.039351e+003,1.904889e+001
1.040315e+003,1.725018e+001
1.041279e+003,1.745990e+001
1.042244e+003,1.956000e+001
1.043208e+003,2.214087e+001
1.044172e+003,2.560150e+001
1.045136e+003,2.779974e+001
1.046101e+003,2.860107e+001
1.047065e+003,2.878479e+001
1.048029e+003,2.859497e+001
1.048993e+003,2.800049e+001
1.049958e+003,2.698700e+001
1.050922e+003,2.560498e+001
1.051886e+003,2.446277e+001
1.052850e+003,2.363831e+001
1.053814e+003,2.342883e+001
1.054779e+003,2.513934e+001
1.055743e+003,2.850452e+001
1.056707e+003,3.049573e+001
1.057671e+003,2.719019e+001
1.058636e+003,1.844348e+001
1.059600e+003,1.500629e+001
1.060564e+003,2.232068e+001
1.061528e+003,2.791028e+001
1.062493e+003,2.857831e+001
1.063457e+003,2.691498e+001
1.064421e+003,2.610730e+001
1.065385e+003,2.669342e+001
1.066349e+003,2.664923e+001
1.067314e+003,2.461920e+001
1.068278e+003,2.202576e+001
1.069242e+003,1.911066e+001
1.070206e+003,1.684369e+001
1.071171e+003,1.694330e+001
1.072135e+003,1.965863e+001
1.073099e+003,2.280487e+001
1.074063e+003,2.299463e+001
1.075028e+003,2.004877e+001
1.075992e+003,1.842126e+001
1.076956e+003,1.807220e+001
1.077920e+003,1.802466e+001
1.078885e+003,1.860858e+001
1.079849e+003,1.965308e+001
1.080813e+003,2.051959e+001
1.081777e+003,2.113739e+001
1.082741e+003,2.191858e+001
1.083706e+003,2.258881e+001
1.084670e+003,2.293311e+001
1.085634e+003,2.281268e+001
1.086598e+003,2.228851e+001
1.087563e+003,2.158423e+001
1.088527e+003,2.104535e+001
1.089491e+003,2.097198e+001
1.090455e+003,2.128851e+001
1.091420e+003,2.167279e+001
1.092384e+003,2.218677e+001
1.093348e+003,2.278528e+001
1.094312e+003,2.291461e+001
1.095276e+003,2.256464e+001
1.096241e+003,2.204944e+001
1.097205e+003,2.116254e+001
1.098169e+003,1.876050e+001
1.099133e+003,1.821924e+001
1.100098e+003,2.306873e+001
1.101062e+003,2.834570e+001
1.102026e+003,3.120349e+001
1.102990e+003,3.185968e+001
1.103955e+003,3.141901e+001
1.104919e+003,3.051477e+001
1.105883e+003,2.955072e+001
1.106847e+003,2.975507e+001
1.107812e+003,3.108838e+001
1.108776e+003,3.212054e+001
1.109740e+003,3.295270e+001
1.110704e+003,3.317407e+001
1.111668e+003,3.241711e+001
1.112633e+003,3.130188e+001
1.113597e+003,3.128418e+001
1.114561e+003,3.238715e+001
1.115525e+003,3.395654e+001
1.116490e+003,3.623303e+001
1.117454e+003,3.828241e+001
1.118418e+003,3.960754e+001
1.119382e+003,4.070294e+001
1.120347e+003,4.232300e+001
1.121311e+003,4.456250e+001
1.122275e+003,4.649323e+001
1.123239e+003,4.726147e+001
1.124203e+003,4.762524e+001
1.125168e+003,4.961597e+001
1.126132e+003,5.438654e+001
1.127096e+003,5.856763e+001
1.128060e+003,5.828125e+001
1.129025e+003,5.463763e+001
1.129989e+003,5.393384e+001
1.130953e+003,5.760559e+001
1.131917e+003,6.148138e+001
1.132882e+003,6.546735e+001
1.133846e+003,6.870398e+001
1.134810e+003,6.927881e+001
1.135774e+003,6.889703e+001
1.136739e+003,7.142511e+001
1.137703e+003,7.894690e+001
1.138667e+003,8.877319e+001
1.139631e+003,9.656006e+001
1.140595e+003,1.022940e+002
1.141560e+003,1.075201e+002
1.142524e+003,1.118876e+002
1.143488e+003,1.186183e+002
1.144452e+003,1.298757e+002
1.145417e+003,1.450584e+002
1.146381e+003,1.622208e+002
1.147345e+003,1.816922e+002
1.148309e+003,2.016979e+002
1.149274e+003,2.225669e+002
1.150238e+003,2.435336e+002
1.151202e+003,2.652142e+002
1.152166e+003,2.869383e+002
1.153130e+003,3.082822e+002
1.154095e+003,3.282809e+002
1.155059e+003,3.434965e+002
1.156023e+003,3.497167e+002
1.156987e+003,3.470652e+002
1.157952e+003,3.391274e+002
1.158916e+003,3.260614e+002
1.159880e+003,3.122858e+002
1.160844e+003,2.999924e+002
1.161809e+003,2.869559e+002
1.162773e+003,2.689290e+002
1.163737e+003,2.446158e+002
1.164701e+003,2.214211e+002
1.165666e+003,2.003718e+002
1.166630e+003,1.824384e+002
1.167594e+003,1.684127e+002
1.168558e+003,1.574775e+002
1.169522e+003,1.487227e+002
1.170487e+003,1.418182e+002
1.171451e+003,1.372153e+002
1.172415e+003,1.354828e+002
1.173379e+003,1.360968e+002
1.174344e+003,1.376157e+002
1.175308e+003,1.405234e+002
1.176272e+003,1.410048e+002
1.177236e+003,1.362432e+002
1.178201e+003,1.299996e+002
1.179165e+003,1.272395e+002
1.180129e+003,1.276649e+002
1.181093e+003,1.261796e+002
1.182057e+003,1.209766e+002
1.183022e+003,1.153192e+002
1.183986e+003,1.088726e+002
1.184950e+003,1.037375e+002
1.185914e+003,1.026001e+002
1.186879e+003,1.051890e+002
1.187843e+003,1.088341e+002
1.188807e+003,1.112366e+002
1.189771e+003,1.126373e+002
1.190736e+003,1.144612e+002
1.191700e+003,1.168027e+002
1.192664e+003,1.178156e+002
1.193628e+003,1.178046e+002
1.194593e+003,1.164492e+002
1.195557e+003,1.128188e+002
1.196521e+003,1.074505e+002
1.197485e+003,1.022816e+002
1.198449e+003,9.732379e+001
1.199414e+003,9.377417e+001
1.200378e+003,9.448749e+001
1.201342e+003,9.475916e+001
1.202306e+003,9.053046e+001
1.203271e+003,8.332184e+001
1.204235e+003,7.676166e+001
1.205199e+003,7.282886e+001
1.206163e+003,7.097260e+001
1.207128e+003,7.041022e+001
1.208092e+003,7.133612e+001
1.209056e+003,6.921484e+001
1.210020e+003,6.288281e+001
1.210984e+003,5.654681e+001
1.211949e+003,5.104175e+001
1.212913e+003,4.616907e+001
1.213877e+003,4.207623e+001
1.214841e+003,3.885034e+001
1.215806e+003,3.551416e+001
1.216770e+003,3.112616e+001
1.217734e+003,2.724982e+001
1.218698e+003,2.428119e+001
1.219663e+003,2.228741e+001
1.220627e+003,2.240204e+001
1.221591e+003,2.408087e+001
1.222555e+003,2.424823e+001
1.223520e+003,2.002356e+001
1.224484e+003,1.287738e+001
1.225448e+003,8.952454e+000
1.226412e+003,9.501953e+000
1.227376e+003,1.067639e+001
1.228341e+003,1.388202e+001
1.229305e+003,1.581128e+001
1.230269e+003,1.375995e+001
1.231233e+003,9.353760e+000
1.232198e+003,5.726929e+000
1.233162e+003,3.811951e+000
1.234126e+003,4.088806e+000
1.235090e+003,8.322510e+000
1.236055e+003,1.299023e+001
1.237019e+003,1.413519e+001
1.237983e+003,1.254626e+001
1.238947e+003,1.089545e+001
1.239911e+003,1.052466e+001
1.240876e+003,1.072577e+001
1.241840e+003,1.002521e+001
1.242804e+003,8.288208e+000
1.243768e+003,8.547180e+000
1.244733e+003,1.418915e+001
1.245697e+003,1.730591e+001
1.246661e+003,1.413641e+001
1.247625e+003,1.026465e+001
1.248590e+003,1.067719e+001
1.249554e+003,1.470142e+001
1.250518e+003,1.841248e+001
1.251482e+003,1.986414e+001
1.252447e+003,1.965137e+001
1.253411e+003,1.826959e+001
1.254375e+003,1.648706e+001
1.255339e+003,1.537506e+001
1.256303e+003,1.519983e+001
1.257268e+003,1.600085e+001
1.258232e+003,1.739166e+001
1.259196e+003,1.925476e+001
1.260160e+003,2.228198e+001
1.261125e+003,2.708319e+001
1.262089e+003,3.168231e+001
1.263053e+003,3.531165e+001
1.264017e+003,3.850073e+001
1.264982e+003,4.314374e+001
1.265946e+003,4.648151e+001
1.266910e+003,4.446222e+001
1.267874e+003,3.836469e+001
1.268839e+003,3.386951e+001
1.269803e+003,3.479504e+001
1.270767e+003,3.847156e+001
1.271731e+003,3.996100e+001
1.272695e+003,3.946259e+001
1.273660e+003,3.912720e+001
1.274624e+003,3.862048e+001
1.275588e+003,3.735785e+001
1.276552e+003,3.547107e+001
1.277517e+003,3.321735e+001
1.278481e+003,3.038544e+001
1.279445e+003,2.676746e+001
1.280409e+003,2.319104e+001
1.281374e+003,1.902106e+001
1.282338e+003,1.646387e+001
1.283302e+003,1.775287e+001
1.284266e+003,2.031183e+001
1.285230e+003,2.161047e+001
1.286195e+003,2.094519e+001
1.287159e+003,1.837952e+001
1.288123e+003,1.412469e+001
1.289087e+003,9.690369e+000
1.290052e+003,9.004272e+000
1.291016e+003,1.340442e+001
1.291980e+003,1.553534e+001
1.292944e+003,1.327875e+001
1.293909e+003,1.093213e+001
1.294873e+003,1.090582e+001
1.295837e+003,1.199524e+001
1.296801e+003,1.231897e+001
1.297766e+003,1.164471e+001
1.298730e+003,1.083350e+001
1.299694e+003,1.009393e+001
1.300658e+003,9.129639e+000
1.301622e+003,7.125244e+000
1.302587e+003,5.249023e+000
1.303551e+003,5.916077e+000
1.304515e+003,9.378723e+000
1.305479e+003,1.227588e+001
1.306444e+003,1.131775e+001
1.307408e+003,7.942566e+000
1.308372e+003,8.064209e+000
1.309336e+003,1.355719e+001
1.310301e+003,1.661627e+001
1.311265e+003,1.628815e+001
1.312229e+003,1.475214e+001
1.313193e+003,1.039435e+001
1.314157e+003,6.398132e+000
1.315122e+003,7.319458e+000
1.316086e+003,1.224585e+001
1.317050e+003,1.491962e+001
1.318014e+003,1.120673e+001
1.318979e+003,5.398132e+000
1.319943e+003,5.117493e+000
1.320907e+003,9.962402e+000
1.321871e+003,1.367670e+001
1.322836e+003,1.534399e+001
1.323800e+003,1.624030e+001
1.324764e+003,1.771118e+001
1.325728e+003,1.866833e+001
1.326693e+003,1.635419e+001
1.327657e+003,1.039532e+001
1.328621e+003,5.536621e+000
1.329585e+003,3.749329e+000
1.330549e+003,4.605713e+000
1.331514e+003,7.651978e+000
1.332478e+003,1.106549e+001
1.333442e+003,1.368866e+001
1.334406e+003,1.555219e+001
1.335371e+003,1.712701e+001
1.336335e+003,1.867041e+001
1.337299e+003,1.978906e+001
1.338263e+003,1.953693e+001
1.339228e+003,1.775989e+001
1.340192e+003,1.621454e+001
1.341156e+003,1.448798e+001
1.342120e+003,1.351886e+001
1.343084e+003,1.347040e+001
1.344049e+003,1.342041e+001
1.345013e+003,1.314435e+001
1.345977e+003,1.279968e+001
1.346941e+003,1.200916e+001
1.347906e+003,1.048993e+001
1.348870e+003,1.029108e+001
1.349834e+003,1.452087e+001
1.350798e+003,1.998389e+001
1.351763e+003,2.056409e+001
1.352727e+003,1.719281e+001
1.353691e+003,1.508032e+001
1.354655e+003,1.660828e+001
1.355620e+003,1.844061e+001
1.356584e+003,1.633148e+001
1.357548e+003,1.090784e+001
1.358512e+003,6.263000e+000
1.359476e+003,1.346008e+000
1.360441e+003,-1.203125e+000
1.361405e+003,2.008606e+000
1.362369e+003,5.202454e+000
1.363333e+003,4.747070e+000
1.364298e+003,2.922363e+000
1.365262e+003,4.092163e+000
1.366226e+003,8.517273e+000
1.367190e+003,1.118903e+001
1.368155e+003,7.514771e+000
1.369119e+003,5.050049e-001
1.370083e+003,6.109619e-002
1.371047e+003,8.966797e+000
1.372011e+003,1.362231e+001
1.372976e+003,1.019739e+001
1.373940e+003,6.841125e+000
1.374904e+003,7.341309e+000
1.375868e+003,9.401794e+000
1.376833e+003,9.674255e+000
1.377797e+003,8.061523e+000
1.378761e+003,7.266357e+000
1.379725e+003,8.754456e+000
1.380690e+003,1.074164e+001
1.381654e+003,1.182013e+001
1.382618e+003,1.220984e+001
1.383582e+003,1.153168e+001
1.384547e+003,1.007831e+001
1.385511e+003,9.752930e+000
1.386475e+003,1.154242e+001
1.387439e+003,1.404285e+001
1.388403e+003,1.535205e+001
1.389368e+003,1.542419e+001
1.390332e+003,1.465942e+001
1.391296e+003,1.186652e+001
1.392260e+003,1.138611e+001
1.393225e+003,1.658112e+001
1.394189e+003,2.131073e+001
1.395153e+003,2.212244e+001
1.396117e+003,2.015942e+001
1.397082e+003,1.677167e+001
1.398046e+003,1.315356e+001
1.399010e+003,1.157178e+001
1.399974e+003,1.398462e+001
1.400938e+003,1.793695e+001
1.401903e+003,1.682825e+001
1.402867e+003,9.833496e+000
1.403831e+003,6.993286e+000
1.404795e+003,9.559753e+000
1.405760e+003,1.319971e+001
1.406724e+003,1.692230e+001
1.407688e+003,1.912097e+001
1.408652e+003,1.794873e+001
1.409617e+003,1.453137e+001
1.410581e+003,1.303802e+001
1.411545e+003,1.550922e+001
1.412509e+003,1.793018e+001
1.413474e+003,1.477222e+001
1.414438e+003,9.418457e+000
1.415402e+003,8.950439e+000
1.416366e+003,1.307422e+001
1.417330e+003,1.676392e+001
1.418295e+003,1.803082e+001
1.419259e+003,1.843451e+001
1.420223e+003,1.979456e+001
1.421187e+003,2.149133e+001
1.422152e+003,2.081818e+001
1.423116e+003,1.667670e+001
1.424080e+003,1.538098e+001
1.425044e+003,2.235010e+001
1.426009e+003,2.756232e+001
1.426973e+003,2.519263e+001
1.427937e+003,1.970905e+001
1.428901e+003,1.642639e+001
1.429865e+003,1.625409e+001
1.430830e+003,1.710010e+001
1.431794e+003,1.735950e+001
1.432758e+003,1.756329e+001
1.433722e+003,1.939563e+001
1.434687e+003,2.368115e+001
1.435651e+003,2.777808e+001
1.436615e+003,3.013507e+001
1.437579e+003,3.151947e+001
1.438544e+003,3.167200e+001
1.439508e+003,3.159436e+001
1.440472e+003,3.287531e+001
1.441436e+003,3.467480e+001
1.442401e+003,3.473627e+001
1.443365e+003,3.250067e+001
1.444329e+003,2.955017e+001
1.445293e+003,2.689679e+001
1.446257e+003,2.522223e+001
1.447222e+003,2.612439e+001
1.448186e+003,2.901770e+001
1.449150e+003,3.122302e+001
1.450114e+003,3.258105e+001
1.451079e+003,3.235828e+001
1.452043e+003,2.972559e+001
1.453007e+003,2.623633e+001
1.453971e+003,2.296875e+001
1.454936e+003,2.005621e+001
1.455900e+003,2.009161e+001
1.456864e+003,2.486823e+001
1.457828e+003,2.907605e+001
1.458792e+003,2.832324e+001
1.459757e+003,2.632855e+001
1.460721e+003,2.631189e+001
1.461685e+003,2.736658e+001
1.462649e+003,2.739154e+001
1.463614e+003,2.608789e+001
1.464578e+003,2.500018e+001
1.465542e+003,2.548511e+001
1.466506e+003,2.654633e+001
1.467471e+003,2.536066e+001
1.468435e+003,2.152972e+001
1.469399e+003,2.014575e+001
1.470363e+003,2.171130e+001
1.471328e+003,2.444409e+001
1.472292e+003,2.936096e+001
1.473256e+003,3.303131e+001
1.474220e+003,3.289801e+001
1.475184e+003,3.072443e+001
1.476149e+003,2.945007e+001
1.477113e+003,2.982098e+001
1.478077e+003,3.077362e+001
1.479041e+003,3.170459e+001
1.480006e+003,3.256561e+001
1.480970e+003,3.203986e+001
1.481934e+003,2.870502e+001
1.482898e+003,2.810516e+001
1.483863e+003,3.209595e+001
1.484827e+003,3.566406e+001
1.485791e+003,3.760168e+001
1.486755e+003,3.926233e+001
1.487719e+003,4.189209e+001
1.488684e+003,4.481091e+001
1.489648e+003,4.600012e+001
1.490612e+003,4.515057e+001
1.491576e+003,4.566199e+001
1.492541e+003,5.060059e+001
1.493505e+003,5.756494e+001
1.494469e+003,6.097412e+001
1.495433e+003,6.107440e+001
1.496398e+003,6.255743e+001
1.497362e+003,6.694794e+001
1.498326e+003,7.211108e+001
1.499290e+003,7.681055e+001
1.500255e+003,8.158246e+001
1.501219e+003,8.618860e+001
1.502183e+003,9.104065e+001
1.503147e+003,9.964417e+001
1.504111e+003,1.135458e+002
1.505076e+003,1.270260e+002
1.506040e+003,1.352195e+002
1.507004e+003,1.434622e+002
1.507968e+003,1.572458e+002
1.508933e+003,1.749135e+002
1.509897e+003,1.931058e+002
1.510861e+003,2.118395e+002
1.511825e+003,2.328463e+002
1.512790e+003,2.567138e+002
1.513754e+003,2.830741e+002
1.514718e+003,3.128446e+002
1.515682e+003,3.455590e+002
1.516646e+003,3.762330e+002
1.517611e+003,4.062106e+002
1.518575e+003,4.313650e+002
1.519539e+003,4.489503e+002
1.520503e+003,4.638339e+002
1.521468e+003,4.794370e+002
1.522432e+003,4.929161e+002
1.523396e+003,5.015048e+002
1.524360e+003,5.037391e+002
1.525325e+003,4.974518e+002
1.526289e+003,4.813411e+002
1.527253e+003,4.595797e+002
1.528217e+003,4.394845e+002
1.529182e+003,4.215026e+002
1.530146e+003,3.993743e+002
1.531110e+003,3.715770e+002
1.532074e+003,3.414039e+002
1.533039e+003,3.071635e+002
1.534003e+003,2.711703e+002
1.534967e+003,2.325578e+002
1.535931e+003,1.958782e+002
1.536896e+003,1.657419e+002
1.537860e+003,1.423322e+002
1.538824e+003,1.233253e+002
1.539788e+003,1.071249e+002
1.540752e+003,9.280396e+001
1.541717e+003,7.929895e+001
1.542681e+003,6.737433e+001
1.543645e+003,6.021619e+001
1.544609e+003,6.088153e+001
1.545573e+003,5.998993e+001
1.546538e+003,5.573779e+001
1.547502e+003,5.097736e+001
1.548466e+003,4.665228e+001
1.549430e+003,4.359021e+001
1.550395e+003,4.283453e+001
1.551359e+003,4.335535e+001
1.552323e+003,4.273053e+001
1.553287e+003,4.023871e+001
1.554252e+003,3.742615e+001
1.555216e+003,3.553400e+001
1.556180e+003,3.429254e+001
1.557144e+003,3.317731e+001
1.558109e+003,3.238013e+001
1.559073e+003,3.210913e+001
1.560037e+003,3.205988e+001
1.561001e+003,3.161224e+001
1.561966e+003,3.119305e+001
1.562930e+003,3.102600e+001
1.563894e+003,3.141711e+001
1.564858e+003,3.159283e+001
1.565823e+003,2.930328e+001
1.566787e+003,2.432758e+001
1.567751e+003,2.107849e+001
1.568715e+003,2.262750e+001
1.569679e+003,2.572778e+001
1.570644e+003,2.573053e+001
1.571608e+003,2.371472e+001
1.572572e+003,2.411664e+001
1.573536e+003,2.742590e+001
1.574500e+003,3.010168e+001
1.575465e+003,3.085455e+001
1.576429e+003,3.047119e+001
1.577393e+003,2.893036e+001
1.578357e+003,2.664526e+001
1.579322e+003,2.449768e+001
1.580286e+003,2.278656e+001
1.581250e+003,2.231293e+001
1.582214e+003,2.346417e+001
1.583179e+003,2.535168e+001
1.584143e+003,2.815344e+001
1.585107e+003,3.005725e+001
1.586071e+003,2.821350e+001
1.587036e+003,2.459106e+001
1.588000e+003,2.422791e+001
1.588964e+003,2.807074e+001
1.589928e+003,3.145001e+001
1.590893e+003,3.071576e+001
1.591857e+003,2.851471e+001
1.592821e+003,2.910193e+001
1.593785e+003,3.201294e+001
1.594750e+003,3.395142e+001
1.595714e+003,3.416980e+001
1.596678e+003,3.424823e+001
1.597642e+003,3.490869e+001
1.598606e+003,3.560284e+001
1.599571e+003,3.598590e+001
1.600535e+003,3.637952e+001
1.601499e+003,3.712994e+001
1.602463e+003,3.805591e+001
1.603427e+003,3.878448e+001
1.604392e+003,3.925842e+001
1.605356e+003,3.907397e+001
1.606320e+003,3.750665e+001
1.607284e+003,3.511676e+001
1.608249e+003,3.341638e+001
1.609213e+003,3.243317e+001
1.610177e+003,3.152655e+001
1.611141e+003,3.049609e+001
1.612106e+003,2.981732e+001
1.613070e+003,3.029584e+001
1.614034e+003,3.057227e+001
1.614998e+003,2.946893e+001
1.615963e+003,2.760052e+001
1.616927e+003,2.557043e+001
1.617891e+003,2.361670e+001
1.618855e+003,2.282422e+001
1.619820e+003,2.392169e+001
1.620784e+003,2.462445e+001
1.621748e+003,2.168079e+001
1.622712e+003,1.654944e+001
1.623677e+003,1.460980e+001
1.624641e+003,1.638214e+001
1.625605e+003,1.884357e+001
1.626569e+003,2.039764e+001
1.627533e+003,2.185492e+001
1.628498e+003,2.551282e+001
1.629462e+003,2.867157e+001
1.630426e+003,2.824695e+001
1.631390e+003,2.543640e+001
1.632354e+003,2.303674e+001
1.633319e+003,2.178107e+001
1.634283e+003,2.114026e+001
1.635247e+003,2.074432e+001
1.636211e+003,2.037195e+001
1.637176e+003,1.954584e+001
1.638140e+003,1.858636e+001
1.639104e+003,1.980096e+001
1.640068e+003,2.417389e+001
1.641033e+003,2.621240e+001
1.641997e+003,2.271405e+001
1.642961e+003,1.972821e+001
1.643925e+003,2.092712e+001
1.644890e+003,2.339124e+001
1.645854e+003,2.397980e+001
1.646818e+003,2.320514e+001
1.647782e+003,2.341516e+001
1.648747e+003,2.522821e+001
1.649711e+003,2.704260e+001
1.650675e+003,2.796735e+001
1.651639e+003,2.804669e+001
1.652604e+003,2.630188e+001
1.653568e+003,2.258850e+001
1.654532e+003,2.015887e+001
1.655496e+003,1.965417e+001
1.656460e+003,1.875732e+001
1.657425e+003,1.649103e+001
1.658389e+003,1.452130e+001
1.659353e+003,1.352936e+001
1.660317e+003,1.333368e+001
1.661281e+003,1.386707e+001
1.662246e+003,1.484326e+001
1.663210e+003,1.610193e+001
1.664174e+003,1.770502e+001
1.665138e+003,1.876563e+001
1.666103e+003,1.806561e+001
1.667067e+003,1.651733e+001
1.668031e+003,1.634485e+001
1.668995e+003,1.756049e+001
1.669960e+003,1.899744e+001
1.670924e+003,2.104108e+001
1.671888e+003,2.181201e+001
1.672852e+003,1.988513e+001
1.673817e+003,1.722900e+001
1.674781e+003,1.348907e+001
1.675745e+003,1.079248e+001
1.676709e+003,1.292877e+001
1.677674e+003,1.813190e+001
1.678638e+003,2.044598e+001
1.679602e+003,1.804285e+001
1.680566e+003,1.467639e+001
1.681531e+003,1.341351e+001
1.682495e+003,1.326868e+001
1.683459e+003,1.183319e+001
1.684423e+003,9.202393e+000
1.685387e+003,7.871277e+000
1.686352e+003,8.410522e+000
1.687316e+003,8.547302e+000
1.688280e+003,7.091736e+000
1.689244e+003,5.912048e+000
1.690208e+003,6.268005e+000
1.691173e+003,7.494629e+000
1.692137e+003,9.574036e+000
1.693101e+003,1.240326e+001
1.694065e+003,1.509387e+001
1.695030e+003,1.708289e+001
1.695994e+003,1.685321e+001
1.696958e+003,1.192780e+001
1.697922e+003,6.699097e+000
1.698887e+003,7.685120e+000
1.699851e+003,1.279382e+001
1.700815e+003,1.540729e+001
1.701779e+003,1.473199e+001
1.702744e+003,1.206262e+001
1.703708e+003,7.501282e+000
1.704672e+003,4.398315e+000
1.705636e+003,5.354431e+000
1.706601e+003,7.692200e+000
1.707565e+003,8.186035e+000
1.708529e+003,7.643799e+000
1.709493e+003,7.603699e+000
1.710458e+003,8.232971e+000
1.711422e+003,8.734314e+000
1.712386e+003,9.685181e+000
1.713350e+003,1.003442e+001
1.714314e+003,7.529968e+000
1.715279e+003,3.848145e+000
1.716243e+003,2.575073e+000
1.717207e+003,3.425537e+000
1.718171e+003,3.537476e+000
1.719135e+003,2.220276e+000
1.720100e+003,-2.128906e-001
1.721064e+003,-4.366882e+000
1.722028e+003,-7.807251e+000
1.722992e+003,-5.822815e+000
1.723957e+003,7.537842e-001
1.724921e+003,4.324463e+000
1.725885e+003,3.866699e+000
1.726849e+003,2.483887e+000
1.727814e+003,4.962158e-001
1.728778e+003,-4.609375e-001
1.729742e+003,7.063599e-001
1.730706e+003,2.535950e+000
1.731671e+003,3.087280e+000
1.732635e+003,2.513245e+000
1.733599e+003,2.815308e+000
1.734563e+003,4.385620e+000
1.735528e+003,4.612244e+000
1.736492e+003,1.929626e+000
1.737456e+003,-8.172607e-001
1.738420e+003,-1.093140e-001
1.739385e+003,2.605835e+000
1.740349e+003,3.272644e+000
1.741313e+003,1.700745e+000
1.742277e+003,7.506104e-001
1.743241e+003,1.216431e+000
1.744206e+003,1.753235e+000
1.745170e+003,1.971130e+000
1.746134e+003,1.997192e+000
1.747098e+003,1.889343e+000
1.748063e+003,1.567993e+000
1.749027e+003,9.759521e-001
1.749991e+003,2.068481e-001
1.750955e+003,-8.922119e-001
1.751919e+003,-2.281982e+000
1.752884e+003,-3.137756e+000
1.753848e+003,-2.766907e+000
1.754812e+003,-1.754822e+000
1.755776e+003,-9.255981e-001
1.756741e+003,1.106567e-001
1.757705e+003,1.173218e+000
1.758669e+003,1.955505e+000
1.759633e+003,2.591492e+000
1.760598e+003,3.449219e+000
1.761562e+003,2.894958e+000
1.762526e+003,-6.868896e-001
1.763490e+003,-3.804810e+000
1.764455e+003,-3.785461e+000
1.765419e+003,-1.652405e+000
1.766383e+003,8.781128e-001
1.767347e+003,3.097656e+000
1.768312e+003,4.973022e+000
1.769276e+003,6.396301e+000
1.770240e+003,6.007568e+000
1.771204e+003,1.981018e+000
1.772168e+003,-3.096985e+000
1.773133e+003,-3.498352e+000
1.774097e+003,1.291504e-001
1.775061e+003,7.911377e-001
1.776025e+003,-3.315430e+000
1.776990e+003,-5.051697e+000
1.777954e+003,-2.420044e-001
1.778918e+003,4.965454e+000
1.779882e+003,5.719360e+000
1.780846e+003,3.853027e+000
1.781811e+003,1.830078e+000
1.782775e+003,-3.106689e-002
1.783739e+003,-1.149536e+000
1.784703e+003,-1.309570e+000
1.785668e+003,-4.506226e-001
1.786632e+003,2.355103e+000
1.787596e+003,3.863098e+000
1.788560e+003,8.970947e-001
1.789525e+003,-3.030823e+000
1.790489e+003,-3.019775e+000
1.791453e+003,-4.213867e-001
1.792417e+003,1.403809e-001
1.793382e+003,-2.111938e+000
1.794346e+003,-4.548523e+000
1.795310e+003,-5.943787e+000
1.796274e+003,-5.716003e+000
1.797239e+003,-2.571411e+000
1.798203e+003,2.831726e+000
1.799167e+003,6.753235e+000
1.800131e+003,8.260620e+000
1.801095e+003,8.061401e+000
1.802060e+003,5.446960e+000
1.803024e+003,4.215759e+000
1.803988e+003,5.980164e+000
1.804952e+003,7.001099e+000
1.805917e+003,4.115845e+000
1.806881e+003,7.911377e-001
1.807845e+003,1.354736e+000
1.808809e+003,4.367615e+000
1.809773e+003,6.178711e+000
1.810738e+003,5.834717e+000
1.811702e+003,4.329651e+000
1.812666e+003,2.291199e+000
1.813630e+003,4.449463e-001
1.814595e+003,-2.571411e-001
1.815559e+003,-3.515625e-002
1.816523e+003,1.196960e+000
1.817487e+003,3.820801e+000
1.818452e+003,4.007080e+000
1.819416e+003,6.304321e-001
1.820380e+003,-1.095337e+000
1.821344e+003,6.840820e-001
1.822309e+003,2.884827e+000
1.823273e+003,4.091736e+000
1.824237e+003,5.171082e+000
1.825201e+003,7.466553e+000
1.826166e+003,9.842957e+000
1.827130e+003,8.957886e+000
1.828094e+003,4.212097e+000
1.829058e+003,3.570557e-001
1.830022e+003,2.637939e-001
1.830987e+003,1.165771e+000
1.831951e+003,1.065186e+000
1.832915e+003,3.766479e-001
1.833879e+003,-4.494019e-001
1.834844e+003,-1.368530e+000
1.835808e+003,-2.512817e+000
1.836772e+003,-3.738892e+000
1.837736e+003,-4.349121e+000
1.838700e+003,-4.261169e+000
1.839665e+003,-3.282166e+000
1.840629e+003,-6.718750e-001
1.841593e+003,2.159546e+000
1.842557e+003,1.583435e+000
1.843522e+003,-2.354309e+000
1.844486e+003,-4.309021e+000
1.845450e+003,-2.448914e+000
1.846414e+003,-9.481201e-001
1.847379e+003,-7.866821e-001
1.848343e+003,-1.148315e+000
1.849307e+003,-2.074646e+000
1.850271e+003,-2.633179e+000
1.851236e+003,-9.929199e-001
1.852200e+003,1.119385e+000
1.853164e+003,1.833496e-001
1.854128e+003,-3.448547e+000
1.855093e+003,-6.256287e+000
1.856057e+003,-6.484802e+000
1.857021e+003,-5.027954e+000
1.857985e+003,-2.652039e+000
1.858949e+003,-4.460449e-001
1.859914e+003,-5.536499e-001
1.860878e+003,-2.300903e+000
1.861842e+003,-2.548828e+000
1.862806e+003,-1.411987e+000
1.863771e+003,1.926270e-001
1.864735e+003,2.097534e+000
1.865699e+003,3.793945e+000
1.866663e+003,5.964478e+000
1.867627e+003,6.926392e+000
1.868592e+003,3.739014e+000
1.869556e+003,-1.595947e+000
1.870520e+003,-4.566467e+000
1.871484e+003,-5.478455e+000
1.872449e+003,-6.110474e+000
1.873413e+003,-5.718567e+000
1.874377e+003,-3.448669e+000
1.875341e+003,1.875000e+000
1.876306e+003,5.705322e+000
1.877270e+003,4.440491e+000
1.878234e+003,1.310791e+000
1.879198e+003,-8.026123e-001
1.880163e+003,-1.753235e+000
1.881127e+003,-1.421143e+000
1.882091e+003,-2.471313e-001
1.883055e+003,9.509277e-002
1.884020e+003,-9.821167e-001
1.884984e+003,-1.707703e+000
1.885948e+003,-4.091797e-001
1.886912e+003,1.869690e+000
1.887876e+003,3.143127e+000
1.888841e+003,3.512573e+000
1.889805e+003,3.511719e+000
1.890769e+003,3.117004e+000
1.891733e+003,2.426758e+000
1.892698e+003,8.439331e-001
1.893662e+003,-4.249878e-001
1.894626e+003,-4.989624e-001
1.895590e+003,-4.132690e-001
1.896554e+003,-1.597351e+000
1.897519e+003,-2.065552e+000
1.898483e+003,1.278870e+000
1.899447e+003,6.709595e+000
1.900411e+003,9.273621e+000
1.901376e+003,8.180054e+000
1.902340e+003,7.035095e+000
1.903304e+003,7.044373e+000
1.904268e+003,7.376892e+000
1.905233e+003,8.301147e+000
1.906197e+003,8.927063e+000
1.907161e+003,8.017090e+000
1.908125e+003,6.481812e+000
1.909090e+003,5.289368e+000
1.910054e+003,4.576721e+000
1.911018e+003,5.096741e+000
1.911982e+003,7.092163e+000
1.912947e+003,9.115723e+000
1.913911e+003,9.981445e+000
1.914875e+003,9.989929e+000
1.915839e+003,9.331787e+000
1.916803e+003,7.954773e+000
1.917768e+003,7.666687e+000
1.918732e+003,9.229492e+000
1.919696e+003,8.692566e+000
1.920660e+003,4.847107e+000
1.921625e+003,3.114807e+000
1.922589e+003,5.852295e+000
1.923553e+003,8.306152e+000
1.924517e+003,7.378052e+000
1.925481e+003,5.749817e+000
1.926446e+003,6.239075e+000
1.927410e+003,7.604980e+000
1.928374e+003,6.636963e+000
1.929338e+003,3.175293e+000
1.930303e+003,1.377991e+000
1.931267e+003,3.423889e+000
1.932231e+003,5.752441e+000
1.933195e+003,6.303528e+000
1.934160e+003,6.150269e+000
1.935124e+003,5.860657e+000
1.936088e+003,5.222107e+000
1.937052e+003,4.456665e+000
1.938017e+003,3.679749e+000
1.938981e+003,2.323608e+000
1.939945e+003,5.594482e-001
1.940909e+003,-2.987061e-001
1.941874e+003,1.898804e-001
1.942838e+003,1.137817e+000
1.943802e+003,2.160095e+000
1.944766e+003,3.187866e+000
1.945730e+003,2.926880e+000
1.946695e+003,1.384155e+000
1.947659e+003,1.298218e+000
1.948623e+003,2.672607e+000
1.949587e+003,4.361206e+000
1.950552e+003,6.911438e+000
1.951516e+003,7.894409e+000
1.952480e+003,5.544800e+000
1.953444e+003,3.477112e+000
1.954408e+003,4.616638e+000
1.955373e+003,6.457092e+000
1.956337e+003,6.339966e+000
1.957301e+003,4.858459e+000
1.958265e+003,1.626099e+000
1.959230e+003,-3.899597e+000
1.960194e+003,-5.863403e+000
1.961158e+003,-1.345459e+000
1.962122e+003,2.028748e+000
1.963087e+003,2.052368e+000
1.964051e+003,9.965820e-001
1.965015e+003,-4.688721e-001
1.965979e+003,-9.863892e-001
1.966944e+003,8.945923e-001
1.967908e+003,3.739929e+000
1.968872e+003,5.299316e+000
1.969836e+003,5.469543e+000
1.970801e+003,5.388428e+000
1.971765e+003,5.669556e+000
1.972729e+003,6.878479e+000
1.973693e+003,9.914551e+000
1.974657e+003,1.272797e+001
1.975622e+003,1.130487e+001
1.976586e+003,7.262085e+000
1.977550e+003,5.439575e+000
1.978514e+003,5.819885e+000
1.979479e+003,6.543640e+000
1.980443e+003,7.264832e+000
1.981407e+003,9.339539e+000
1.982371e+003,1.358514e+001
1.983335e+003,1.694867e+001
1.984300e+003,1.679987e+001
1.985264e+003,1.446594e+001
1.986228e+003,1.210992e+001
1.987192e+003,9.839539e+000
1.988157e+003,8.352722e+000
1.989121e+003,8.103821e+000
1.990085e+003,7.170776e+000
1.991049e+003,4.608765e+000
1.992014e+003,3.821594e+000
1.992978e+003,6.607727e+000
1.993942e+003,8.801270e+000
1.994906e+003,8.469238e+000
1.995871e+003,7.622131e+000
1.996835e+003,8.079346e+000
1.997799e+003,9.044617e+000
1.998763e+003,8.366638e+000
1.999728e+003,6.491333e+000
