5.003444e+002,1.847715e+002
5.013087e+002,1.863398e+002
5.022729e+002,1.833145e+002
5.032371e+002,1.773491e+002
5.042014e+002,1.726520e+002
5.051656e+002,1.691653e+002
5.061298e+002,1.658691e+002
5.070941e+002,1.615008e+002
5.080583e+002,1.549982e+002
5.090225e+002,1.523328e+002
5.099868e+002,1.556913e+002
5.109510e+002,1.592277e+002
5.119152e+002,1.602023e+002
5.128795e+002,1.584368e+002
5.138437e+002,1.555768e+002
5.148079e+002,1.510938e+002
5.157722e+002,1.469097e+002
5.167364e+002,1.434280e+002
5.177006e+002,1.407048e+002
5.186649e+002,1.386658e+002
5.196291e+002,1.380688e+002
5.205933e+002,1.387793e+002
5.215576e+002,1.402872e+002
5.225218e+002,1.419413e+002
5.234860e+002,1.428835e+002
5.244503e+002,1.421321e+002
5.254145e+002,1.398105e+002
5.263787e+002,1.372229e+002
5.273430e+002,1.340288e+002
5.283072e+002,1.307911e+002
5.292714e+002,1.281077e+002
5.302357e+002,1.254058e+002
5.311999e+002,1.229424e+002
5.321641e+002,1.220898e+002
5.331284e+002,1.216302e+002
5.340926e+002,1.201320e+002
5.350568e+002,1.167172e+002
5.360211e+002,1.129846e+002
5.369853e+002,1.115638e+002
5.379495e+002,1.109465e+002
5.389138e+002,1.096104e+002
5.398780e+002,1.069254e+002
5.408422e+002,1.034797e+002
5.418065e+002,1.010985e+002
5.427707e+002,9.963257e+001
5.437349e+002,9.819250e+001
5.446992e+002,9.657556e+001
5.456634e+002,9.467474e+001
5.466276e+002,9.225916e+001
5.475919e+002,8.835730e+001
5.485561e+002,8.562640e+001
5.495203e+002,8.453558e+001
5.504846e+002,8.413348e+001
5.514488e+002,8.312445e+001
5.524130e+002,8.083209e+001
5.533773e+002,7.934491e+001
5.543415e+002,8.049817e+001
5.553057e+002,8.242236e+001
5.562700e+002,8.298834e+001
5.572342e+002,8.083649e+001
5.581984e+002,7.714313e+001
5.591627e+002,7.546014e+001
5.601269e+002,7.515894e+001
5.610911e+002,7.397449e+001
5.620554e+002,7.047327e+001
5.630196e+002,6.494666e+001
5.639838e+002,6.183264e+001
5.649481e+002,6.308136e+001
5.659123e+002,6.392755e+001
5.668765e+002,6.451367e+001
5.678408e+002,6.485980e+001
5.688050e+002,6.409192e+001
5.697692e+002,5.985333e+001
5.707335e+002,5.587109e+001
5.716977e+002,5.368738e+001
5.726619e+002,5.267139e+001
5.736262e+002,5.195526e+001
5.745904e+002,5.106879e+001
5.755546e+002,5.028131e+001
5.765189e+002,4.902496e+001
5.774831e+002,4.751550e+001
5.784473e+002,4.719104e+001
5.794116e+002,4.921155e+001
5.803758e+002,5.346228e+001
5.813400e+002,5.396875e+001
5.823043e+002,4.891614e+001
5.832685e+002,4.424689e+001
5.842327e+002,4.262286e+001
5.851970e+002,4.390576e+001
5.861612e+002,4.518335e+001
5.871254e+002,4.551520e+001
5.880897e+002,4.578082e+001
5.890539e+002,4.627319e+001
5.900181e+002,4.651703e+001
5.909824e+002,4.572821e+001
5.919466e+002,4.319116e+001
5.929108e+002,4.046149e+001
5.938751e+002,3.956927e+001
5.948393e+002,3.950513e+001
5.958035e+002,3.850665e+001
5.967678e+002,3.538153e+001
5.977320e+002,3.090344e+001
5.986962e+002,3.016559e+001
5.996605e+002,3.259387e+001
6.006247e+002,3.470648e+001
6.015889e+002,3.486414e+001
6.025532e+002,3.325848e+001
6.035174e+002,3.199200e+001
6.044816e+002,3.093805e+001
6.054459e+002,3.064111e+001
6.064101e+002,3.251251e+001
6.073743e+002,3.494019e+001
6.083386e+002,3.473285e+001
6.093028e+002,2.875488e+001
6.102670e+002,2.318469e+001
6.112313e+002,2.281836e+001
6.121955e+002,2.549030e+001
6.131597e+002,2.852893e+001
6.141240e+002,3.007043e+001
6.150882e+002,3.043719e+001
6.160524e+002,3.153766e+001
6.170167e+002,3.345068e+001
6.179809e+002,3.477704e+001
6.189451e+002,3.452594e+001
6.199094e+002,3.267480e+001
6.208736e+002,3.076965e+001
6.218378e+002,2.961505e+001
6.228021e+002,2.840619e+001
6.237663e+002,2.707275e+001
6.247305e+002,2.579083e+001
6.256948e+002,2.473035e+001
6.266590e+002,2.378723e+001
6.276232e+002,2.228064e+001
6.285875e+002,1.941046e+001
6.295517e+002,1.673749e+001
6.305159e+002,1.598267e+001
6.314802e+002,1.787762e+001
6.324444e+002,2.106274e+001
6.334086e+002,2.292828e+001
6.343729e+002,2.398450e+001
6.353371e+002,2.376636e+001
6.363013e+002,2.175238e+001
6.372656e+002,1.843292e+001
6.382298e+002,1.594055e+001
6.391940e+002,1.469849e+001
6.401583e+002,1.356799e+001
6.411225e+002,1.355817e+001
6.420867e+002,1.406549e+001
6.430510e+002,1.397559e+001
6.440152e+002,1.245551e+001
6.449794e+002,1.052740e+001
6.459437e+002,8.806458e+000
6.469079e+002,7.001038e+000
6.478721e+002,4.699829e+000
6.488364e+002,2.014832e+000
6.498006e+002,-1.079102e-001
6.507648e+002,3.286133e-001
6.517291e+002,2.241760e+000
6.526933e+002,3.324768e+000
6.536575e+002,3.091309e+000
6.546218e+002,2.114502e+000
6.555860e+002,1.477600e+000
6.565502e+002,1.017151e+000
6.575145e+002,1.330994e+000
6.584787e+002,3.219299e+000
6.594429e+002,5.209290e+000
6.604072e+002,6.081726e+000
6.613714e+002,5.598022e+000
6.623356e+002,5.000488e+000
6.632999e+002,4.169678e+000
6.642641e+002,3.411133e+000
6.652283e+002,3.400513e+000
6.661926e+002,4.202087e+000
6.671568e+002,5.254944e+000
6.681210e+002,5.494080e+000
6.690853e+002,5.334961e+000
6.700495e+002,6.684875e+000
6.710137e+002,9.461365e+000
6.719780e+002,1.191565e+001
6.729422e+002,1.200830e+001
6.739064e+002,8.926453e+000
6.748707e+002,7.352783e+000
6.758349e+002,8.063354e+000
6.767991e+002,8.726318e+000
6.777634e+002,8.593811e+000
6.787276e+002,8.056946e+000
6.796918e+002,8.207947e+000
6.806561e+002,9.735107e+000
6.816203e+002,1.084131e+001
6.825845e+002,1.084595e+001
6.835488e+002,9.991028e+000
6.845130e+002,8.543152e+000
6.854772e+002,6.630615e+000
6.864415e+002,5.353699e+000
6.874057e+002,6.824646e+000
6.883699e+002,9.744324e+000
6.893342e+002,1.211804e+001
6.902984e+002,1.300043e+001
6.912626e+002,1.257800e+001
6.922269e+002,1.122156e+001
6.931911e+002,8.279236e+000
6.941553e+002,6.547485e+000
6.951196e+002,5.999939e+000
6.960838e+002,6.090515e+000
6.970480e+002,6.442200e+000
6.980123e+002,7.486877e+000
6.989765e+002,8.072754e+000
6.999407e+002,7.038574e+000
7.009050e+002,5.790833e+000
7.018692e+002,5.782715e+000
7.028334e+002,7.255798e+000
7.037977e+002,8.636169e+000
7.047619e+002,7.196655e+000
7.057261e+002,4.438843e+000
7.066904e+002,2.675171e+000
7.076546e+002,2.252502e+000
7.086188e+002,2.761902e+000
7.095831e+002,3.593933e+000
7.105473e+002,4.628601e+000
7.115115e+002,5.663025e+000
7.124758e+002,7.793091e+000
7.134400e+002,8.645142e+000
7.144042e+002,6.062500e+000
7.153685e+002,3.081055e-001
7.163327e+002,-4.027527e+000
7.172969e+002,-4.278015e+000
7.182612e+002,-2.888733e+000
7.192254e+002,4.808960e-001
7.201896e+002,4.449219e+000
7.211539e+002,6.681030e+000
7.221181e+002,5.044739e+000
7.230823e+002,1.360901e+000
7.240466e+002,1.199768e+000
7.250108e+002,3.992615e+000
7.259750e+002,5.992798e+000
7.269393e+002,4.356506e+000
7.279035e+002,-6.622314e-001
7.288677e+002,-3.241516e+000
7.298320e+002,7.520142e-001
7.307962e+002,3.881531e+000
7.317604e+002,4.732849e+000
7.327247e+002,4.951477e+000
7.336889e+002,7.009583e+000
7.346531e+002,1.188599e+001
7.356174e+002,1.445276e+001
7.365816e+002,1.231946e+001
7.375458e+002,8.460815e+000
7.385101e+002,3.971497e+000
7.394743e+002,-2.268677e-001
7.404385e+002,-2.773438e+000
7.414028e+002,-9.479980e-001
7.423670e+002,3.273743e+000
7.433312e+002,4.314148e+000
7.442955e+002,2.235657e+000
7.452597e+002,-3.770752e-001
7.462239e+002,-1.125793e+000
7.471882e+002,-1.076050e-001
7.481524e+002,2.644836e+000
7.491166e+002,8.671265e+000
7.500809e+002,1.316028e+001
7.510451e+002,1.418799e+001
7.520093e+002,1.215509e+001
7.529736e+002,8.625061e+000
7.539378e+002,2.814331e+000
7.549020e+002,-6.541138e-001
7.558663e+002,2.467896e+000
7.568306e+002,8.722168e+000
7.577948e+002,1.319080e+001
7.587590e+002,1.284149e+001
7.597233e+002,9.247009e+000
7.606875e+002,7.799133e+000
7.616517e+002,8.549133e+000
7.626160e+002,9.967712e+000
7.635802e+002,1.236572e+001
7.645444e+002,1.475256e+001
7.655087e+002,1.464703e+001
7.664729e+002,1.007452e+001
7.674371e+002,7.002869e+000
7.684014e+002,5.244324e+000
7.693656e+002,5.122070e+000
7.703298e+002,8.286011e+000
7.712941e+002,1.430847e+001
7.722583e+002,1.846429e+001
7.732225e+002,1.454254e+001
7.741868e+002,9.936890e+000
7.751510e+002,1.128790e+001
7.761152e+002,1.708649e+001
7.770795e+002,2.267737e+001
7.780437e+002,2.388721e+001
7.790079e+002,2.121265e+001
7.799722e+002,1.979486e+001
7.809364e+002,1.950885e+001
7.819006e+002,1.981555e+001
7.828649e+002,2.155371e+001
7.838291e+002,2.422266e+001
7.847933e+002,2.527319e+001
7.857576e+002,2.270001e+001
7.867218e+002,2.038696e+001
7.876860e+002,1.984045e+001
7.886503e+002,2.002686e+001
7.896145e+002,1.990991e+001
7.905787e+002,1.925238e+001
7.915430e+002,1.896649e+001
7.925072e+002,2.014948e+001
7.934714e+002,2.143365e+001
7.944357e+002,2.196149e+001
7.953999e+002,2.189520e+001
7.963641e+002,2.141077e+001
7.973284e+002,2.046002e+001
7.982926e+002,1.894696e+001
7.992568e+002,1.939020e+001
8.002211e+002,2.238214e+001
8.011853e+002,2.390466e+001
8.021495e+002,2.236572e+001
8.031138e+002,1.928986e+001
8.040780e+002,1.829333e+001
8.050422e+002,2.055933e+001
8.060065e+002,2.286682e+001
8.069707e+002,2.349799e+001
8.079349e+002,2.352014e+001
8.088992e+002,2.467206e+001
8.098634e+002,2.752032e+001
8.108276e+002,3.018616e+001
8.117919e+002,2.860626e+001
8.127561e+002,2.426666e+001
8.137203e+002,2.197607e+001
8.146846e+002,2.269568e+001
8.156488e+002,2.428467e+001
8.166130e+002,2.365363e+001
8.175773e+002,1.994165e+001
8.185415e+002,1.850281e+001
8.195057e+002,2.040027e+001
8.204700e+002,2.197876e+001
8.214342e+002,2.151935e+001
8.223984e+002,1.984540e+001
8.233627e+002,1.938171e+001
8.243269e+002,2.171472e+001
8.252911e+002,2.421332e+001
8.262554e+002,2.572217e+001
8.272196e+002,2.628772e+001
8.281838e+002,2.559943e+001
8.291481e+002,2.372003e+001
8.301123e+002,2.135944e+001
8.310765e+002,1.978137e+001
8.320408e+002,1.885724e+001
8.330050e+002,1.788531e+001
8.339692e+002,1.688849e+001
8.349335e+002,1.605493e+001
8.358977e+002,1.577252e+001
8.368619e+002,1.635284e+001
8.378262e+002,1.699768e+001
8.387904e+002,1.645526e+001
8.397546e+002,1.670764e+001
8.407189e+002,1.902039e+001
8.416831e+002,2.236957e+001
8.426473e+002,2.498566e+001
8.436116e+002,2.607892e+001
8.445758e+002,2.660657e+001
8.455400e+002,2.664856e+001
8.465043e+002,2.631787e+001
8.474685e+002,2.637366e+001
8.484327e+002,2.731793e+001
8.493970e+002,2.911902e+001
8.503612e+002,3.123865e+001
8.513254e+002,3.362842e+001
8.522897e+002,3.476355e+001
8.532539e+002,3.300201e+001
8.542181e+002,3.167358e+001
8.551824e+002,3.389185e+001
8.561466e+002,3.954248e+001
8.571108e+002,4.402386e+001
8.580751e+002,4.355029e+001
8.590393e+002,4.342712e+001
8.600035e+002,4.642639e+001
8.609678e+002,5.085095e+001
8.619320e+002,5.453137e+001
8.628962e+002,5.655743e+001
8.638605e+002,5.812170e+001
8.648247e+002,6.166034e+001
8.657889e+002,6.577484e+001
8.667532e+002,6.726349e+001
8.677174e+002,6.571002e+001
8.686816e+002,6.331818e+001
8.696459e+002,6.259900e+001
8.706101e+002,6.388672e+001
8.715743e+002,6.627991e+001
8.725386e+002,7.102332e+001
8.735028e+002,7.528430e+001
8.744670e+002,7.790686e+001
8.754313e+002,7.905359e+001
8.763955e+002,7.904468e+001
8.773597e+002,7.744183e+001
8.783240e+002,7.754462e+001
8.792882e+002,8.337262e+001
8.802524e+002,9.031891e+001
8.812167e+002,9.450012e+001
8.821809e+002,9.516663e+001
8.831451e+002,9.378796e+001
8.841094e+002,9.210046e+001
8.850736e+002,9.068976e+001
8.860378e+002,9.343976e+001
8.870021e+002,1.015422e+002
8.879663e+002,1.082057e+002
8.889305e+002,1.081912e+002
8.898948e+002,1.029308e+002
8.908590e+002,1.005916e+002
8.918232e+002,1.035683e+002
8.927875e+002,1.074343e+002
8.937517e+002,1.119110e+002
8.947159e+002,1.163105e+002
8.956802e+002,1.200871e+002
8.966444e+002,1.227576e+002
8.976086e+002,1.238361e+002
8.985729e+002,1.228495e+002
8.995371e+002,1.207753e+002
9.005013e+002,1.180603e+002
9.014656e+002,1.153876e+002
9.024298e+002,1.150114e+002
9.033940e+002,1.187155e+002
9.043583e+002,1.253224e+002
9.053225e+002,1.281666e+002
9.062867e+002,1.216384e+002
9.072510e+002,1.179167e+002
9.082152e+002,1.207380e+002
9.091794e+002,1.251714e+002
9.101437e+002,1.252925e+002
9.111079e+002,1.200591e+002
9.120721e+002,1.166180e+002
9.130364e+002,1.214358e+002
9.140006e+002,1.266160e+002
9.149648e+002,1.285429e+002
9.159291e+002,1.276373e+002
9.168933e+002,1.245577e+002
9.178575e+002,1.196767e+002
9.188218e+002,1.142947e+002
9.197860e+002,1.147275e+002
9.207502e+002,1.209871e+002
9.217145e+002,1.242405e+002
9.226787e+002,1.222236e+002
9.236429e+002,1.181631e+002
9.246072e+002,1.159268e+002
9.255714e+002,1.155489e+002
9.265356e+002,1.149881e+002
9.274999e+002,1.138521e+002
9.284641e+002,1.121682e+002
9.294283e+002,1.097109e+002
9.303926e+002,1.070912e+002
9.313568e+002,1.054078e+002
9.323210e+002,1.052762e+002
9.332853e+002,1.051843e+002
9.342495e+002,1.020477e+002
9.352137e+002,9.733093e+001
9.361780e+002,9.332355e+001
9.371422e+002,9.086823e+001
9.381064e+002,9.022046e+001
9.390707e+002,9.164301e+001
9.400349e+002,9.536230e+001
9.409991e+002,9.640857e+001
9.419634e+002,9.262598e+001
9.429276e+002,8.911102e+001
9.438918e+002,8.702692e+001
9.448561e+002,8.625690e+001
9.458203e+002,8.692584e+001
9.467845e+002,8.962646e+001
9.477488e+002,9.167297e+001
9.487130e+002,9.069385e+001
9.496772e+002,8.830499e+001
9.506415e+002,8.486475e+001
9.516057e+002,8.100995e+001
9.525699e+002,7.808008e+001
9.535342e+002,7.733698e+001
9.544984e+002,7.831219e+001
9.554626e+002,7.851410e+001
9.564269e+002,7.873492e+001
9.573911e+002,7.809875e+001
9.583553e+002,7.463513e+001
9.593196e+002,7.065808e+001
9.602838e+002,7.066595e+001
9.612480e+002,7.598553e+001
9.622123e+002,7.972711e+001
9.631765e+002,7.952557e+001
9.641407e+002,7.806512e+001
9.651050e+002,7.567676e+001
9.660692e+002,7.281708e+001
9.670334e+002,7.027881e+001
9.679977e+002,6.879767e+001
9.689619e+002,6.816052e+001
9.699261e+002,6.622119e+001
9.708904e+002,6.366913e+001
9.718546e+002,6.438660e+001
9.728188e+002,6.944434e+001
9.737831e+002,7.632526e+001
9.747473e+002,8.199811e+001
9.757115e+002,8.637012e+001
9.766758e+002,9.079614e+001
9.776400e+002,9.773535e+001
9.786042e+002,1.024252e+002
9.795685e+002,1.032918e+002
9.805327e+002,1.008079e+002
9.814969e+002,9.534094e+001
9.824612e+002,8.725916e+001
9.834254e+002,7.924084e+001
9.843896e+002,7.341418e+001
9.853539e+002,6.861389e+001
9.863181e+002,6.369183e+001
9.872823e+002,5.846875e+001
9.882466e+002,5.356189e+001
9.892108e+002,4.987866e+001
9.901750e+002,4.799640e+001
9.911393e+002,4.824957e+001
9.921035e+002,5.199652e+001
9.930677e+002,5.335583e+001
9.940320e+002,5.033447e+001
9.949962e+002,4.701459e+001
9.959604e+002,4.690228e+001
9.969247e+002,5.033215e+001
9.978889e+002,5.598230e+001
9.988531e+002,6.540057e+001
9.998174e+002,7.294623e+001
1.000782e+003,7.494873e+001
1.001746e+003,7.381348e+001
1.002710e+003,7.282208e+001
1.003674e+003,7.340991e+001
1.004639e+003,7.459003e+001
1.005603e+003,7.465161e+001
1.006567e+003,7.330829e+001
1.007531e+003,7.219604e+001
1.008495e+003,7.180585e+001
1.009460e+003,7.083936e+001
1.010424e+003,6.852783e+001
1.011388e+003,6.517096e+001
1.012352e+003,6.139624e+001
1.013317e+003,5.610608e+001
1.014281e+003,5.240118e+001
1.015245e+003,5.274005e+001
1.016209e+003,5.299054e+001
1.017174e+003,4.967914e+001
1.018138e+003,4.323596e+001
1.019102e+003,3.677991e+001
1.020066e+003,3.283344e+001
1.021031e+003,3.127661e+001
1.021995e+003,3.254932e+001
1.022959e+003,3.546100e+001
1.023923e+003,3.453357e+001
1.024887e+003,2.688409e+001
1.025852e+003,1.633203e+001
1.026816e+003,8.845764e+000
1.027780e+003,5.048218e+000
1.028744e+003,2.924133e+000
1.029709e+003,2.864868e+000
1.030673e+003,3.633850e+000
1.031637e+003,5.981567e+000
1.032601e+003,8.261169e+000
1.033566e+003,7.767334e+000
1.034530e+003,3.797302e+000
1.035494e+003,2.672119e-001
1.036458e+003,2.357849e+000
1.037422e+003,6.860413e+000
1.038387e+003,8.417053e+000
1.039351e+003,6.915955e+000
1.040315e+003,4.591675e+000
1.041279e+003,3.109009e+000
1.042244e+003,2.577332e+000
1.043208e+003,2.844543e+000
1.044172e+003,4.183044e+000
1.045136e+003,5.116333e+000
1.046101e+003,6.456665e+000
1.047065e+003,6.989197e+000
1.048029e+003,4.741516e+000
1.048993e+003,6.644897e-001
1.049958e+003,-1.325623e+000
1.050922e+003,1.362427e+000
1.051886e+003,5.350891e+000
1.052850e+003,7.261047e+000
1.053814e+003,8.065491e+000
1.054779e+003,8.960754e+000
1.055743e+003,1.014032e+001
1.056707e+003,1.097784e+001
1.057671e+003,1.070428e+001
1.058636e+003,9.231750e+000
1.059600e+003,8.227051e+000
1.060564e+003,7.726746e+000
1.061528e+003,8.553589e+000
1.062493e+003,1.167365e+001
1.063457e+003,1.490094e+001
1.064421e+003,1.644507e+001
1.065385e+003,1.620770e+001
1.066349e+003,1.369067e+001
1.067314e+003,5.122498e+000
1.068278e+003,-1.406616e+000
1.069242e+003,1.643616e+000
1.070206e+003,9.922852e+000
1.071171e+003,1.662036e+001
1.072135e+003,1.855377e+001
1.073099e+003,1.711334e+001
1.074063e+003,1.471783e+001
1.075028e+003,1.127460e+001
1.075992e+003,1.082233e+001
1.076956e+003,1.549701e+001
1.077920e+003,1.847015e+001
1.078885e+003,1.651331e+001
1.079849e+003,1.203033e+001
1.080813e+003,9.208679e+000
1.081777e+003,8.916687e+000
1.082741e+003,8.894653e+000
1.083706e+003,6.731018e+000
1.084670e+003,4.922607e+000
1.085634e+003,5.411194e+000
1.086598e+003,7.292725e+000
1.087563e+003,9.060486e+000
1.088527e+003,9.933167e+000
1.089491e+003,9.804871e+000
1.090455e+003,7.583557e+000
1.091420e+003,2.669250e+000
1.092384e+003,5.061646e-001
1.093348e+003,2.267151e+000
1.094312e+003,3.991577e+000
1.095276e+003,3.640808e+000
1.096241e+003,1.934265e+000
1.097205e+003,2.473145e-001
1.098169e+003,-1.787292e+000
1.099133e+003,-3.146912e+000
1.100098e+003,-2.685059e+000
1.101062e+003,-1.863220e+000
1.102026e+003,-1.623657e+000
1.102990e+003,-1.757446e+000
1.103955e+003,-1.489624e+000
1.104919e+003,-4.385986e-001
1.105883e+003,6.271362e-001
1.106847e+003,-1.254272e-001
1.107812e+003,-2.698975e+000
1.108776e+003,-2.450806e+000
1.109740e+003,2.189392e+000
1.110704e+003,6.819336e+000
1.111668e+003,8.415527e+000
1.112633e+003,7.799927e+000
1.113597e+003,7.441467e+000
1.114561e+003,7.252563e+000
1.115525e+003,7.311584e+000
1.116490e+003,8.288330e+000
1.117454e+003,8.813416e+000
1.118418e+003,7.348450e+000
1.119382e+003,5.106812e+000
1.120347e+003,4.835083e+000
1.121311e+003,7.914917e+000
1.122275e+003,1.209369e+001
1.123239e+003,1.367810e+001
1.124203e+003,1.332385e+001
1.125168e+003,1.381720e+001
1.126132e+003,1.560999e+001
1.127096e+003,1.789844e+001
1.128060e+003,2.045618e+001
1.129025e+003,2.282416e+001
1.129989e+003,2.285492e+001
1.130953e+003,1.788556e+001
1.131917e+003,1.613806e+001
1.132882e+003,2.278864e+001
1.133846e+003,3.022235e+001
1.134810e+003,3.401453e+001
1.135774e+003,3.466492e+001
1.136739e+003,3.416309e+001
1.137703e+003,3.368207e+001
1.138667e+003,3.430792e+001
1.139631e+003,3.866205e+001
1.140595e+003,4.617877e+001
1.141560e+003,5.143927e+001
1.142524e+003,5.316425e+001
1.143488e+003,5.744952e+001
1.144452e+003,6.976318e+001
1.145417e+003,8.785059e+001
1.146381e+003,1.028785e+002
1.147345e+003,1.120612e+002
1.148309e+003,1.248929e+002
1.149274e+003,1.474343e+002
1.150238e+003,1.704721e+002
1.151202e+003,1.897766e+002
1.152166e+003,2.062800e+002
1.153130e+003,2.234788e+002
1.154095e+003,2.422834e+002
1.155059e+003,2.575645e+002
1.156023e+003,2.624885e+002
1.156987e+003,2.573054e+002
1.157952e+003,2.476461e+002
1.158916e+003,2.336333e+002
1.159880e+003,2.187547e+002
1.160844e+003,2.041556e+002
1.161809e+003,1.888517e+002
1.162773e+003,1.716596e+002
1.163737e+003,1.522608e+002
1.164701e+003,1.325170e+002
1.165666e+003,1.092772e+002
1.166630e+003,9.024115e+001
1.167594e+003,8.043915e+001
1.168558e+003,7.559424e+001
1.169522e+003,6.981793e+001
1.170487e+003,6.139807e+001
1.171451e+003,5.357764e+001
1.172415e+003,4.997992e+001
1.173379e+003,4.985370e+001
1.174344e+003,4.996320e+001
1.175308e+003,5.056738e+001
1.176272e+003,5.012555e+001
1.177236e+003,4.767889e+001
1.178201e+003,4.453516e+001
1.179165e+003,4.223792e+001
1.180129e+003,4.054285e+001
1.181093e+003,3.794586e+001
1.182057e+003,3.270569e+001
1.183022e+003,2.916046e+001
1.183986e+003,3.003613e+001
1.184950e+003,3.239142e+001
1.185914e+003,3.386121e+001
1.186879e+003,3.397449e+001
1.187843e+003,3.301312e+001
1.188807e+003,3.104327e+001
1.189771e+003,2.876978e+001
1.190736e+003,2.901294e+001
1.191700e+003,3.206464e+001
1.192664e+003,3.436340e+001
1.193628e+003,3.634833e+001
1.194593e+003,3.701196e+001
1.195557e+003,3.517230e+001
1.196521e+003,3.128613e+001
1.197485e+003,2.701611e+001
1.198449e+003,2.248511e+001
1.199414e+003,1.819073e+001
1.200378e+003,1.303607e+001
1.201342e+003,9.422668e+000
1.202306e+003,1.049347e+001
1.203271e+003,1.391595e+001
1.204235e+003,1.477515e+001
1.205199e+003,1.087720e+001
1.206163e+003,4.948853e+000
1.207128e+003,1.442261e+000
1.208092e+003,5.501709e-001
1.209056e+003,-7.114868e-001
1.210020e+003,-1.923096e+000
1.210984e+003,-4.127258e+000
1.211949e+003,-8.612366e+000
1.212913e+003,-1.379340e+001
1.213877e+003,-1.691022e+001
1.214841e+003,-1.782874e+001
1.215806e+003,-2.065973e+001
1.216770e+003,-2.898694e+001
1.217734e+003,-3.656683e+001
1.218698e+003,-3.837036e+001
1.219663e+003,-3.782611e+001
1.220627e+003,-3.906458e+001
1.221591e+003,-4.274377e+001
1.222555e+003,-4.701788e+001
1.223520e+003,-5.016248e+001
1.224484e+003,-5.206390e+001
1.225448e+003,-5.282098e+001
1.226412e+003,-5.193976e+001
1.227376e+003,-5.106689e+001
1.228341e+003,-4.979590e+001
1.229305e+003,-4.920032e+001
1.230269e+003,-5.049475e+001
1.231233e+003,-5.274280e+001
1.232198e+003,-5.377228e+001
1.233162e+003,-5.282330e+001
1.234126e+003,-5.170856e+001
1.235090e+003,-5.220313e+001
1.236055e+003,-5.313562e+001
1.237019e+003,-5.281262e+001
1.237983e+003,-5.191315e+001
1.238947e+003,-5.230060e+001
1.239911e+003,-5.457520e+001
1.240876e+003,-5.702844e+001
1.241840e+003,-5.730109e+001
1.242804e+003,-5.529932e+001
1.243768e+003,-5.263043e+001
1.244733e+003,-4.719391e+001
1.245697e+003,-4.400342e+001
1.246661e+003,-4.548059e+001
1.247625e+003,-4.806018e+001
1.248590e+003,-4.904669e+001
1.249554e+003,-4.834021e+001
1.250518e+003,-4.716296e+001
1.251482e+003,-4.621252e+001
1.252447e+003,-4.533484e+001
1.253411e+003,-4.364709e+001
1.254375e+003,-4.178851e+001
1.255339e+003,-4.184308e+001
1.256303e+003,-4.362939e+001
1.257268e+003,-4.439343e+001
1.258232e+003,-4.245532e+001
1.259196e+003,-3.948639e+001
1.260160e+003,-3.866138e+001
1.261125e+003,-4.024249e+001
1.262089e+003,-4.060175e+001
1.263053e+003,-3.923004e+001
1.264017e+003,-3.728815e+001
1.264982e+003,-3.415485e+001
1.265946e+003,-3.100220e+001
1.266910e+003,-2.887311e+001
1.267874e+003,-2.782281e+001
1.268839e+003,-2.725562e+001
1.269803e+003,-2.676477e+001
1.270767e+003,-2.659460e+001
1.271731e+003,-2.738068e+001
1.272695e+003,-2.892053e+001
1.273660e+003,-2.942120e+001
1.274624e+003,-2.856848e+001
1.275588e+003,-2.874182e+001
1.276552e+003,-3.144629e+001
1.277517e+003,-3.537927e+001
1.278481e+003,-3.881403e+001
1.279445e+003,-4.183350e+001
1.280409e+003,-4.329047e+001
1.281374e+003,-4.151752e+001
1.282338e+003,-3.967645e+001
1.283302e+003,-3.983374e+001
1.284266e+003,-4.064941e+001
1.285230e+003,-4.027655e+001
1.286195e+003,-3.877582e+001
1.287159e+003,-3.784528e+001
1.288123e+003,-3.876233e+001
1.289087e+003,-4.067316e+001
1.290052e+003,-4.153662e+001
1.291016e+003,-4.123932e+001
1.291980e+003,-4.109045e+001
1.292944e+003,-4.119312e+001
1.293909e+003,-4.182098e+001
1.294873e+003,-4.303595e+001
1.295837e+003,-4.438574e+001
1.296801e+003,-4.543024e+001
1.297766e+003,-4.609094e+001
1.298730e+003,-4.652234e+001
1.299694e+003,-4.708197e+001
1.300658e+003,-4.736139e+001
1.301622e+003,-4.608405e+001
1.302587e+003,-4.429449e+001
1.303551e+003,-4.406110e+001
1.304515e+003,-4.552057e+001
1.305479e+003,-4.696814e+001
1.306444e+003,-4.722174e+001
1.307408e+003,-4.663379e+001
1.308372e+003,-4.589954e+001
1.309336e+003,-4.496082e+001
1.310301e+003,-4.413446e+001
1.311265e+003,-4.253143e+001
1.312229e+003,-4.181909e+001
1.313193e+003,-4.349371e+001
1.314157e+003,-4.577496e+001
1.315122e+003,-4.690613e+001
1.316086e+003,-4.672009e+001
1.317050e+003,-4.585431e+001
1.318014e+003,-4.452655e+001
1.318979e+003,-4.314246e+001
1.319943e+003,-4.264557e+001
1.320907e+003,-4.287073e+001
1.321871e+003,-4.352649e+001
1.322836e+003,-4.551654e+001
1.323800e+003,-4.607623e+001
1.324764e+003,-4.253693e+001
1.325728e+003,-3.715521e+001
1.326693e+003,-3.349408e+001
1.327657e+003,-3.181580e+001
1.328621e+003,-3.279504e+001
1.329585e+003,-3.837061e+001
1.330549e+003,-4.195837e+001
1.331514e+003,-3.945007e+001
1.332478e+003,-3.551062e+001
1.333442e+003,-3.423492e+001
1.334406e+003,-3.553656e+001
1.335371e+003,-3.734528e+001
1.336335e+003,-3.836871e+001
1.337299e+003,-3.875098e+001
1.338263e+003,-3.884491e+001
1.339228e+003,-3.861328e+001
1.340192e+003,-3.832043e+001
1.341156e+003,-3.798370e+001
1.342120e+003,-3.759363e+001
1.343084e+003,-3.733044e+001
1.344049e+003,-3.737665e+001
1.345013e+003,-3.797632e+001
1.345977e+003,-3.859912e+001
1.346941e+003,-3.800952e+001
1.347906e+003,-3.572369e+001
1.348870e+003,-3.322400e+001
1.349834e+003,-3.185669e+001
1.350798e+003,-3.145416e+001
1.351763e+003,-3.112354e+001
1.352727e+003,-3.088690e+001
1.353691e+003,-3.152985e+001
1.354655e+003,-3.357806e+001
1.355620e+003,-3.561456e+001
1.356584e+003,-3.565033e+001
1.357548e+003,-3.386914e+001
1.358512e+003,-3.290863e+001
1.359476e+003,-3.368585e+001
1.360441e+003,-3.412982e+001
1.361405e+003,-3.274280e+001
1.362369e+003,-3.163904e+001
1.363333e+003,-3.221521e+001
1.364298e+003,-3.352936e+001
1.365262e+003,-3.412897e+001
1.366226e+003,-3.371869e+001
1.367190e+003,-3.316675e+001
1.368155e+003,-3.325732e+001
1.369119e+003,-3.366656e+001
1.370083e+003,-3.326794e+001
1.371047e+003,-3.156921e+001
1.372011e+003,-3.050696e+001
1.372976e+003,-3.185608e+001
1.373940e+003,-3.213293e+001
1.374904e+003,-2.824298e+001
1.375868e+003,-2.349475e+001
1.376833e+003,-2.277795e+001
1.377797e+003,-2.600507e+001
1.378761e+003,-2.866125e+001
1.379725e+003,-2.875220e+001
1.380690e+003,-2.777795e+001
1.381654e+003,-2.706995e+001
1.382618e+003,-2.620612e+001
1.383582e+003,-2.432111e+001
1.384547e+003,-2.159442e+001
1.385511e+003,-1.944153e+001
1.386475e+003,-1.867902e+001
1.387439e+003,-1.897058e+001
1.388403e+003,-2.015228e+001
1.389368e+003,-2.224725e+001
1.390332e+003,-2.291431e+001
1.391296e+003,-2.096741e+001
1.392260e+003,-1.944489e+001
1.393225e+003,-1.914185e+001
1.394189e+003,-1.940741e+001
1.395153e+003,-2.026514e+001
1.396117e+003,-2.126068e+001
1.397082e+003,-2.169000e+001
1.398046e+003,-2.138147e+001
1.399010e+003,-2.087042e+001
1.399974e+003,-2.081653e+001
1.400938e+003,-2.144513e+001
1.401903e+003,-2.259924e+001
1.402867e+003,-2.388904e+001
1.403831e+003,-2.351154e+001
1.404795e+003,-2.110382e+001
1.405760e+003,-1.836792e+001
1.406724e+003,-1.546271e+001
1.407688e+003,-1.382220e+001
1.408652e+003,-1.518347e+001
1.409617e+003,-1.873444e+001
1.410581e+003,-2.154968e+001
1.411545e+003,-2.255347e+001
1.412509e+003,-2.223462e+001
1.413474e+003,-2.055133e+001
1.414438e+003,-1.862341e+001
1.415402e+003,-1.755493e+001
1.416366e+003,-1.713287e+001
1.417330e+003,-1.754297e+001
1.418295e+003,-1.915540e+001
1.419259e+003,-2.047137e+001
1.420223e+003,-1.950763e+001
1.421187e+003,-1.688464e+001
1.422152e+003,-1.554016e+001
1.423116e+003,-1.583472e+001
1.424080e+003,-1.526550e+001
1.425044e+003,-1.160486e+001
1.426009e+003,-9.286621e+000
1.426973e+003,-1.138495e+001
1.427937e+003,-1.515228e+001
1.428901e+003,-1.760309e+001
1.429865e+003,-1.797540e+001
1.430830e+003,-1.649164e+001
1.431794e+003,-1.350641e+001
1.432758e+003,-1.031744e+001
1.433722e+003,-9.274170e+000
1.434687e+003,-1.026654e+001
1.435651e+003,-8.879639e+000
1.436615e+003,-3.611023e+000
1.437579e+003,-2.735596e-001
1.438544e+003,-2.941895e-001
1.439508e+003,-1.179138e+000
1.440472e+003,-9.353027e-001
1.441436e+003,-5.371094e-002
1.442401e+003,-1.535645e-001
1.443365e+003,-1.631958e+000
1.444329e+003,-3.170837e+000
1.445293e+003,-3.661255e+000
1.446257e+003,-3.652039e+000
1.447222e+003,-4.626343e+000
1.448186e+003,-6.301758e+000
1.449150e+003,-6.490540e+000
1.450114e+003,-4.493835e+000
1.451079e+003,-3.522949e+000
1.452043e+003,-6.152893e+000
1.453007e+003,-9.654907e+000
1.453971e+003,-1.053857e+001
1.454936e+003,-9.086304e+000
1.455900e+003,-6.648132e+000
1.456864e+003,-2.813904e+000
1.457828e+003,1.412964e-001
1.458792e+003,-2.041626e-001
1.459757e+003,-1.397644e+000
1.460721e+003,-1.571533e+000
1.461685e+003,-1.000000e+000
1.462649e+003,2.221069e-001
1.463614e+003,1.915649e+000
1.464578e+003,1.920715e+000
1.465542e+003,-2.321716e+000
1.466506e+003,-8.798584e+000
1.467471e+003,-1.076141e+001
1.468435e+003,-6.650208e+000
1.469399e+003,-4.220337e+000
1.470363e+003,-6.658875e+000
1.471328e+003,-7.507874e+000
1.472292e+003,-3.596375e+000
1.473256e+003,8.093262e-002
1.474220e+003,-3.463135e-001
1.475184e+003,-3.070374e+000
1.476149e+003,-4.456177e+000
1.477113e+003,-3.494263e+000
1.478077e+003,-1.842773e+000
1.479041e+003,-8.477783e-001
1.480006e+003,-1.044922e-001
1.480970e+003,1.136902e+000
1.481934e+003,2.962219e+000
1.482898e+003,3.430603e+000
1.483863e+003,3.872070e-001
1.484827e+003,-9.790039e-001
1.485791e+003,1.838013e+000
1.486755e+003,6.407837e+000
1.487719e+003,1.111505e+001
1.488684e+003,1.520923e+001
1.489648e+003,1.734326e+001
1.490612e+003,1.735571e+001
1.491576e+003,1.841534e+001
1.492541e+003,2.359528e+001
1.493505e+003,3.025842e+001
1.494469e+003,3.179260e+001
1.495433e+003,2.894598e+001
1.496398e+003,2.854974e+001
1.497362e+003,3.241595e+001
1.498326e+003,3.712500e+001
1.499290e+003,4.006122e+001
1.500255e+003,4.333679e+001
1.501219e+003,5.019763e+001
1.502183e+003,6.002460e+001
1.503147e+003,6.940015e+001
1.504111e+003,7.753101e+001
1.505076e+003,8.530414e+001
1.506040e+003,9.202917e+001
1.507004e+003,1.001612e+002
1.507968e+003,1.128250e+002
1.508933e+003,1.283066e+002
1.509897e+003,1.427910e+002
1.510861e+003,1.561382e+002
1.511825e+003,1.716904e+002
1.512790e+003,1.919317e+002
1.513754e+003,2.144422e+002
1.514718e+003,2.349795e+002
1.515682e+003,2.532627e+002
1.516646e+003,2.725154e+002
1.517611e+003,2.949181e+002
1.518575e+003,3.145383e+002
1.519539e+003,3.291601e+002
1.520503e+003,3.415334e+002
1.521468e+003,3.544888e+002
1.522432e+003,3.649885e+002
1.523396e+003,3.684896e+002
1.524360e+003,3.648010e+002
1.525325e+003,3.573172e+002
1.526289e+003,3.483903e+002
1.527253e+003,3.377044e+002
1.528217e+003,3.244973e+002
1.529182e+003,3.090222e+002
1.530146e+003,2.912834e+002
1.531110e+003,2.706810e+002
1.532074e+003,2.481724e+002
1.533039e+003,2.210630e+002
1.534003e+003,1.942258e+002
1.534967e+003,1.704306e+002
1.535931e+003,1.488511e+002
1.536896e+003,1.279600e+002
1.537860e+003,1.080046e+002
1.538824e+003,9.009772e+001
1.539788e+003,7.470294e+001
1.540752e+003,6.183301e+001
1.541717e+003,5.170197e+001
1.542681e+003,4.436237e+001
1.543645e+003,3.884729e+001
1.544609e+003,3.552661e+001
1.545573e+003,3.428223e+001
1.546538e+003,3.574719e+001
1.547502e+003,3.747949e+001
1.548466e+003,3.955750e+001
1.549430e+003,4.151678e+001
1.550395e+003,4.220984e+001
1.551359e+003,4.204388e+001
1.552323e+003,4.328583e+001
1.553287e+003,4.653119e+001
1.554252e+003,4.799329e+001
1.555216e+003,4.395770e+001
1.556180e+003,3.682330e+001
1.557144e+003,3.210101e+001
1.558109e+003,3.003998e+001
1.559073e+003,2.814661e+001
1.560037e+003,2.606122e+001
1.561001e+003,2.379694e+001
1.561966e+003,2.136517e+001
1.562930e+003,1.958148e+001
1.563894e+003,1.903705e+001
1.564858e+003,1.937329e+001
1.565823e+003,2.003717e+001
1.566787e+003,2.083942e+001
1.567751e+003,2.135773e+001
1.568715e+003,2.129431e+001
1.569679e+003,2.147406e+001
1.570644e+003,2.343585e+001
1.571608e+003,2.593341e+001
1.572572e+003,2.537781e+001
1.573536e+003,2.176459e+001
1.574500e+003,2.029968e+001
1.575465e+003,2.399792e+001
1.576429e+003,2.799652e+001
1.577393e+003,2.733167e+001
1.578357e+003,2.447388e+001
1.579322e+003,2.487659e+001
1.580286e+003,2.873663e+001
1.581250e+003,3.196564e+001
1.582214e+003,3.317456e+001
1.583179e+003,3.416193e+001
1.584143e+003,3.716675e+001
1.585107e+003,3.942560e+001
1.586071e+003,3.634576e+001
1.587036e+003,3.027051e+001
1.588000e+003,2.776770e+001
1.588964e+003,3.015558e+001
1.589928e+003,3.347076e+001
1.590893e+003,3.524542e+001
1.591857e+003,3.645636e+001
1.592821e+003,3.881097e+001
1.593785e+003,4.206049e+001
1.594750e+003,4.439001e+001
1.595714e+003,4.535376e+001
1.596678e+003,4.581793e+001
1.597642e+003,4.544653e+001
1.598606e+003,4.579376e+001
1.599571e+003,4.964105e+001
1.600535e+003,5.418091e+001
1.601499e+003,5.516278e+001
1.602463e+003,5.286993e+001
1.603427e+003,5.086914e+001
1.604392e+003,5.065063e+001
1.605356e+003,5.087640e+001
1.606320e+003,5.008551e+001
1.607284e+003,4.874872e+001
1.608249e+003,4.800092e+001
1.609213e+003,4.783667e+001
1.610177e+003,4.884930e+001
1.611141e+003,5.168616e+001
1.612106e+003,5.435468e+001
1.613070e+003,5.598950e+001
1.614034e+003,5.692279e+001
1.614998e+003,5.754492e+001
1.615963e+003,5.757947e+001
1.616927e+003,5.564557e+001
1.617891e+003,5.203998e+001
1.618855e+003,5.018964e+001
1.619820e+003,5.218237e+001
1.620784e+003,5.558807e+001
1.621748e+003,5.779456e+001
1.622712e+003,5.927283e+001
1.623677e+003,6.018506e+001
1.624641e+003,6.051447e+001
1.625605e+003,6.055774e+001
1.626569e+003,5.910004e+001
1.627533e+003,5.793390e+001
1.628498e+003,5.877081e+001
1.629462e+003,6.020996e+001
1.630426e+003,6.109491e+001
1.631390e+003,6.145917e+001
1.632354e+003,6.153400e+001
1.633319e+003,6.143451e+001
1.634283e+003,6.168665e+001
1.635247e+003,6.280750e+001
1.636211e+003,6.390656e+001
1.637176e+003,6.345624e+001
1.638140e+003,6.168011e+001
1.639104e+003,5.958252e+001
1.640068e+003,5.651001e+001
1.641033e+003,5.523163e+001
1.641997e+003,5.810278e+001
1.642961e+003,6.084961e+001
1.643925e+003,6.071222e+001
1.644890e+003,5.989862e+001
1.645854e+003,6.076392e+001
1.646818e+003,6.273279e+001
1.647782e+003,6.400836e+001
1.648747e+003,6.397943e+001
1.649711e+003,6.300012e+001
1.650675e+003,6.126721e+001
1.651639e+003,5.960065e+001
1.652604e+003,5.951428e+001
1.653568e+003,6.077606e+001
1.654532e+003,6.160760e+001
1.655496e+003,6.201526e+001
1.656460e+003,6.167023e+001
1.657425e+003,6.036102e+001
1.658389e+003,5.865515e+001
1.659353e+003,5.538831e+001
1.660317e+003,5.293036e+001
1.661281e+003,5.527441e+001
1.662246e+003,6.048059e+001
1.663210e+003,6.240814e+001
1.664174e+003,5.924402e+001
1.665138e+003,5.522998e+001
1.666103e+003,5.381934e+001
1.667067e+003,5.366431e+001
1.668031e+003,5.207062e+001
1.668995e+003,4.926038e+001
1.669960e+003,4.740967e+001
1.670924e+003,4.696326e+001
1.671888e+003,4.660596e+001
1.672852e+003,4.558929e+001
1.673817e+003,4.474609e+001
1.674781e+003,4.460461e+001
1.675745e+003,4.484143e+001
1.676709e+003,4.547919e+001
1.677674e+003,4.613672e+001
1.678638e+003,4.561346e+001
1.679602e+003,4.356519e+001
1.680566e+003,4.163538e+001
1.681531e+003,4.144769e+001
1.682495e+003,4.203778e+001
1.683459e+003,4.136267e+001
1.684423e+003,3.948285e+001
1.685387e+003,3.778583e+001
1.686352e+003,3.645642e+001
1.687316e+003,3.559363e+001
1.688280e+003,3.519818e+001
1.689244e+003,3.530579e+001
1.690208e+003,3.671179e+001
1.691173e+003,3.795099e+001
1.692137e+003,3.734882e+001
1.693101e+003,3.547333e+001
1.694065e+003,3.353162e+001
1.695030e+003,3.154926e+001
1.695994e+003,2.973657e+001
1.696958e+003,2.832629e+001
1.697922e+003,2.734772e+001
1.698887e+003,2.694543e+001
1.699851e+003,2.704425e+001
1.700815e+003,2.745721e+001
1.701779e+003,2.799274e+001
1.702744e+003,2.687811e+001
1.703708e+003,2.312378e+001
1.704672e+003,2.080310e+001
1.705636e+003,2.393048e+001
1.706601e+003,2.824933e+001
1.707565e+003,2.735150e+001
1.708529e+003,2.297058e+001
1.709493e+003,1.981616e+001
1.710458e+003,1.845898e+001
1.711422e+003,1.754462e+001
1.712386e+003,1.686298e+001
1.713350e+003,1.645343e+001
1.714314e+003,1.581598e+001
1.715279e+003,1.526135e+001
1.716243e+003,1.589465e+001
1.717207e+003,1.746643e+001
1.718171e+003,1.824878e+001
1.719135e+003,1.782367e+001
1.720100e+003,1.757916e+001
1.721064e+003,1.841626e+001
1.722028e+003,1.950757e+001
1.722992e+003,1.996411e+001
1.723957e+003,2.010803e+001
1.724921e+003,2.025598e+001
1.725885e+003,2.008087e+001
1.726849e+003,1.904199e+001
1.727814e+003,1.641473e+001
1.728778e+003,1.478894e+001
1.729742e+003,1.597968e+001
1.730706e+003,1.783124e+001
1.731671e+003,1.827979e+001
1.732635e+003,1.719409e+001
1.733599e+003,1.477936e+001
1.734563e+003,1.177271e+001
1.735528e+003,1.006708e+001
1.736492e+003,1.052283e+001
1.737456e+003,1.182635e+001
1.738420e+003,1.247150e+001
1.739385e+003,1.245673e+001
1.740349e+003,1.258984e+001
1.741313e+003,1.319232e+001
1.742277e+003,1.332758e+001
1.743241e+003,1.288428e+001
1.744206e+003,1.262787e+001
1.745170e+003,1.254761e+001
1.746134e+003,1.250867e+001
1.747098e+003,1.222778e+001
1.748063e+003,1.205585e+001
1.749027e+003,1.266296e+001
1.749991e+003,1.378009e+001
1.750955e+003,1.450964e+001
1.751919e+003,1.450714e+001
1.752884e+003,1.431775e+001
1.753848e+003,1.442200e+001
1.754812e+003,1.383392e+001
1.755776e+003,1.031299e+001
1.756741e+003,4.280334e+000
1.757705e+003,2.331604e+000
1.758669e+003,5.797913e+000
1.759633e+003,8.859619e+000
1.760598e+003,1.172534e+001
1.761562e+003,1.252606e+001
1.762526e+003,8.535095e+000
1.763490e+003,5.059082e+000
1.764455e+003,6.601501e+000
1.765419e+003,1.083862e+001
1.766383e+003,1.425592e+001
1.767347e+003,1.590466e+001
1.768312e+003,1.547614e+001
1.769276e+003,1.269257e+001
1.770240e+003,1.019525e+001
1.771204e+003,1.165753e+001
1.772168e+003,1.523120e+001
1.773133e+003,1.602264e+001
1.774097e+003,1.426349e+001
1.775061e+003,1.198926e+001
1.776025e+003,8.810364e+000
1.776990e+003,7.628235e+000
1.777954e+003,1.065265e+001
1.778918e+003,1.399915e+001
1.779882e+003,1.443408e+001
1.780846e+003,1.347174e+001
1.781811e+003,1.370911e+001
1.782775e+003,1.464954e+001
1.783739e+003,1.402448e+001
1.784703e+003,1.137482e+001
1.785668e+003,9.945007e+000
1.786632e+003,1.174945e+001
1.787596e+003,1.361200e+001
1.788560e+003,1.333325e+001
1.789525e+003,1.232336e+001
1.790489e+003,1.215411e+001
1.791453e+003,1.256763e+001
1.792417e+003,1.250446e+001
1.793382e+003,1.190277e+001
1.794346e+003,1.251898e+001
1.795310e+003,1.539227e+001
1.796274e+003,1.798932e+001
1.797239e+003,1.748566e+001
1.798203e+003,1.504358e+001
1.799167e+003,1.328723e+001
1.800131e+003,1.171362e+001
1.801095e+003,1.041351e+001
1.802060e+003,9.728149e+000
1.803024e+003,9.768860e+000
1.803988e+003,1.040698e+001
1.804952e+003,1.156995e+001
1.805917e+003,1.406488e+001
1.806881e+003,1.633997e+001
1.807845e+003,1.686023e+001
1.808809e+003,1.611646e+001
1.809773e+003,1.509900e+001
1.810738e+003,1.421045e+001
1.811702e+003,1.358533e+001
1.812666e+003,1.328827e+001
1.813630e+003,1.347632e+001
1.814595e+003,1.449030e+001
1.815559e+003,1.593256e+001
1.816523e+003,1.635681e+001
1.817487e+003,1.570227e+001
1.818452e+003,1.542798e+001
1.819416e+003,1.587714e+001
1.820380e+003,1.671826e+001
1.821344e+003,1.859058e+001
1.822309e+003,1.924860e+001
1.823273e+003,1.621460e+001
1.824237e+003,1.267072e+001
1.825201e+003,1.165149e+001
1.826166e+003,1.262415e+001
1.827130e+003,1.411957e+001
1.828094e+003,1.575128e+001
1.829058e+003,1.725061e+001
1.830022e+003,1.889941e+001
1.830987e+003,1.993335e+001
1.831951e+003,1.924481e+001
1.832915e+003,1.791168e+001
1.833879e+003,1.731781e+001
1.834844e+003,1.744727e+001
1.835808e+003,1.836456e+001
1.836772e+003,1.990680e+001
1.837736e+003,2.041937e+001
1.838700e+003,1.901843e+001
1.839665e+003,1.731079e+001
1.840629e+003,1.682245e+001
1.841593e+003,1.732715e+001
1.842557e+003,1.827661e+001
1.843522e+003,1.964313e+001
1.844486e+003,2.034229e+001
1.845450e+003,2.019360e+001
1.846414e+003,2.036646e+001
1.847379e+003,2.014691e+001
1.848343e+003,2.037061e+001
1.849307e+003,2.251550e+001
1.850271e+003,2.420142e+001
1.851236e+003,2.302155e+001
1.852200e+003,2.100629e+001
1.853164e+003,2.120105e+001
1.854128e+003,2.295496e+001
1.855093e+003,2.337628e+001
1.856057e+003,2.167279e+001
1.857021e+003,1.954694e+001
1.857985e+003,1.815686e+001
1.858949e+003,1.752704e+001
1.859914e+003,1.823993e+001
1.860878e+003,1.997479e+001
1.861842e+003,2.020093e+001
1.862806e+003,1.876288e+001
1.863771e+003,1.833270e+001
1.864735e+003,1.931927e+001
1.865699e+003,2.108038e+001
1.866663e+003,2.423230e+001
1.867627e+003,2.682880e+001
1.868592e+003,2.653430e+001
1.869556e+003,2.444275e+001
1.870520e+003,2.305133e+001
1.871484e+003,2.221295e+001
1.872449e+003,2.093134e+001
1.873413e+003,1.932074e+001
1.874377e+003,1.934717e+001
1.875341e+003,2.200720e+001
1.876306e+003,2.460406e+001
1.877270e+003,2.582697e+001
1.878234e+003,2.603143e+001
1.879198e+003,2.494067e+001
1.880163e+003,2.363464e+001
1.881127e+003,2.438287e+001
1.882091e+003,2.687317e+001
1.883055e+003,2.860675e+001
1.884020e+003,2.846283e+001
1.884984e+003,2.694470e+001
1.885948e+003,2.446826e+001
1.886912e+003,2.171283e+001
1.887876e+003,1.994281e+001
1.888841e+003,1.922333e+001
1.889805e+003,2.021484e+001
1.890769e+003,2.314716e+001
1.891733e+003,2.682294e+001
1.892698e+003,3.213257e+001
1.893662e+003,3.514133e+001
1.894626e+003,3.279474e+001
1.895590e+003,3.018277e+001
1.896554e+003,3.155402e+001
1.897519e+003,3.431851e+001
1.898483e+003,3.519852e+001
1.899447e+003,3.434814e+001
1.900411e+003,3.350461e+001
1.901376e+003,3.304504e+001
1.902340e+003,3.246921e+001
1.903304e+003,3.103589e+001
1.904268e+003,3.020413e+001
1.905233e+003,3.150482e+001
1.906197e+003,3.342062e+001
1.907161e+003,3.466205e+001
1.908125e+003,3.532773e+001
1.909090e+003,3.514240e+001
1.910054e+003,3.440176e+001
1.911018e+003,3.491016e+001
1.911982e+003,3.707303e+001
1.912947e+003,3.799640e+001
1.913911e+003,3.547400e+001
1.914875e+003,3.233884e+001
1.915839e+003,3.302539e+001
1.916803e+003,3.655515e+001
1.917768e+003,3.916974e+001
1.918732e+003,4.115720e+001
1.919696e+003,4.140411e+001
1.920660e+003,3.928708e+001
1.921625e+003,3.761890e+001
1.922589e+003,3.682089e+001
1.923553e+003,3.649408e+001
1.924517e+003,3.583322e+001
1.925481e+003,3.619226e+001
1.926446e+003,4.052646e+001
1.927410e+003,4.610516e+001
1.928374e+003,4.666489e+001
1.929338e+003,4.213492e+001
1.930303e+003,3.959412e+001
1.931267e+003,4.194034e+001
1.932231e+003,4.396912e+001
1.933195e+003,4.235318e+001
1.934160e+003,4.022772e+001
1.935124e+003,3.957297e+001
1.936088e+003,3.979309e+001
1.937052e+003,4.132645e+001
1.938017e+003,4.302966e+001
1.938981e+003,4.174100e+001
1.939945e+003,3.773730e+001
1.940909e+003,3.493716e+001
1.941874e+003,3.498798e+001
1.942838e+003,3.557626e+001
1.943802e+003,3.469788e+001
1.944766e+003,3.382535e+001
1.945730e+003,3.577414e+001
1.946695e+003,3.985156e+001
1.947659e+003,4.143839e+001
1.948623e+003,4.016418e+001
1.949587e+003,4.002029e+001
1.950552e+003,4.184784e+001
1.951516e+003,4.367471e+001
1.952480e+003,4.502600e+001
1.953444e+003,4.582089e+001
1.954408e+003,4.577856e+001
1.955373e+003,4.504501e+001
1.956337e+003,4.343530e+001
1.957301e+003,4.183817e+001
1.958265e+003,4.311584e+001
1.959230e+003,4.797769e+001
1.960194e+003,5.036987e+001
1.961158e+003,4.689459e+001
1.962122e+003,4.396036e+001
1.963087e+003,4.346576e+001
1.964051e+003,4.374503e+001
1.965015e+003,4.390692e+001
1.965979e+003,4.479343e+001
1.966944e+003,4.827020e+001
1.967908e+003,5.222195e+001
1.968872e+003,5.222070e+001
1.969836e+003,4.885733e+001
1.970801e+003,4.765546e+001
1.971765e+003,5.080789e+001
1.972729e+003,5.381079e+001
1.973693e+003,5.250009e+001
1.974657e+003,4.995471e+001
1.975622e+003,5.107669e+001
1.976586e+003,5.431760e+001
1.977550e+003,5.586554e+001
1.978514e+003,5.590427e+001
1.979479e+003,5.550208e+001
1.980443e+003,5.478964e+001
1.981407e+003,5.359912e+001
1.982371e+003,5.187717e+001
1.983335e+003,5.155603e+001
1.984300e+003,5.413773e+001
1.985264e+003,5.784570e+001
1.986228e+003,6.034128e+001
1.987192e+003,6.145978e+001
1.988157e+003,6.016977e+001
1.989121e+003,5.580383e+001
1.990085e+003,5.301248e+001
1.991049e+003,5.208411e+001
1.992014e+003,5.245203e+001
1.992978e+003,5.490073e+001
1.993942e+003,5.720532e+001
1.994906e+003,5.963583e+001
1.995871e+003,6.064624e+001
1.996835e+003,5.759323e+001
1.997799e+003,5.345862e+001
1.998763e+003,5.236099e+001
1.999728e+003,5.406915e+001
