5.003444e+002,2.074321e+002
5.013087e+002,2.073082e+002
5.022729e+002,2.038812e+002
5.032371e+002,1.985448e+002
5.042014e+002,1.942145e+002
5.051656e+002,1.908996e+002
5.061298e+002,1.881202e+002
5.070941e+002,1.852729e+002
5.080583e+002,1.818619e+002
5.090225e+002,1.797156e+002
5.099868e+002,1.801994e+002
5.109510e+002,1.801045e+002
5.119152e+002,1.771694e+002
5.128795e+002,1.711031e+002
5.138437e+002,1.665856e+002
5.148079e+002,1.668765e+002
5.157722e+002,1.677521e+002
5.167364e+002,1.675414e+002
5.177006e+002,1.657725e+002
5.186649e+002,1.629955e+002
5.196291e+002,1.598076e+002
5.205933e+002,1.571018e+002
5.215576e+002,1.553993e+002
5.225218e+002,1.542086e+002
5.234860e+002,1.525318e+002
5.244503e+002,1.490291e+002
5.254145e+002,1.435807e+002
5.263787e+002,1.400200e+002
5.273430e+002,1.393661e+002
5.283072e+002,1.398904e+002
5.292714e+002,1.387908e+002
5.302357e+002,1.336710e+002
5.311999e+002,1.306547e+002
5.321641e+002,1.333329e+002
5.331284e+002,1.370510e+002
5.340926e+002,1.375374e+002
5.350568e+002,1.327637e+002
5.360211e+002,1.270762e+002
5.369853e+002,1.257372e+002
5.379495e+002,1.258336e+002
5.389138e+002,1.246293e+002
5.398780e+002,1.210735e+002
5.408422e+002,1.163204e+002
5.418065e+002,1.137084e+002
5.427707e+002,1.129897e+002
5.437349e+002,1.130915e+002
5.446992e+002,1.141105e+002
5.456634e+002,1.154083e+002
5.466276e+002,1.149011e+002
5.475919e+002,1.109795e+002
5.485561e+002,1.073771e+002
5.495203e+002,1.037801e+002
5.504846e+002,1.003288e+002
5.514488e+002,9.748694e+001
5.524130e+002,9.601904e+001
5.533773e+002,9.466553e+001
5.543415e+002,9.267169e+001
5.553057e+002,9.047540e+001
5.562700e+002,8.846429e+001
5.572342e+002,8.680383e+001
5.581984e+002,8.517432e+001
5.591627e+002,8.263440e+001
5.601269e+002,8.003180e+001
5.610911e+002,7.916541e+001
5.620554e+002,8.103229e+001
5.630196e+002,8.481061e+001
5.639838e+002,8.458478e+001
5.649481e+002,7.676068e+001
5.659123e+002,7.026074e+001
5.668765e+002,6.740729e+001
5.678408e+002,6.757623e+001
5.688050e+002,6.838666e+001
5.697692e+002,6.977490e+001
5.707335e+002,6.944586e+001
5.716977e+002,6.606616e+001
5.726619e+002,6.129779e+001
5.736262e+002,5.707880e+001
5.745904e+002,5.465613e+001
5.755546e+002,5.409442e+001
5.765189e+002,5.548938e+001
5.774831e+002,5.758948e+001
5.784473e+002,5.865924e+001
5.794116e+002,5.772351e+001
5.803758e+002,5.536548e+001
5.813400e+002,5.517499e+001
5.823043e+002,5.764294e+001
5.832685e+002,5.852380e+001
5.842327e+002,5.591809e+001
5.851970e+002,5.076904e+001
5.861612e+002,4.726276e+001
5.871254e+002,4.659869e+001
5.880897e+002,4.634711e+001
5.890539e+002,4.629523e+001
5.900181e+002,4.604596e+001
5.909824e+002,4.526233e+001
5.919466e+002,4.388477e+001
5.929108e+002,4.196356e+001
5.938751e+002,3.915619e+001
5.948393e+002,3.605951e+001
5.958035e+002,3.357739e+001
5.967678e+002,3.243121e+001
5.977320e+002,3.274164e+001
5.986962e+002,3.468219e+001
5.996605e+002,3.787506e+001
6.006247e+002,4.002075e+001
6.015889e+002,3.980853e+001
6.025532e+002,3.745313e+001
6.035174e+002,3.541235e+001
6.044816e+002,3.372852e+001
6.054459e+002,3.255701e+001
6.064101e+002,3.232007e+001
6.073743e+002,3.250763e+001
6.083386e+002,3.217798e+001
6.093028e+002,3.054010e+001
6.102670e+002,2.926239e+001
6.112313e+002,2.997400e+001
6.121955e+002,3.148651e+001
6.131597e+002,3.196271e+001
6.141240e+002,3.018097e+001
6.150882e+002,2.706689e+001
6.160524e+002,2.749579e+001
6.170167e+002,3.103021e+001
6.179809e+002,3.425763e+001
6.189451e+002,3.547571e+001
6.199094e+002,3.464398e+001
6.208736e+002,3.313666e+001
6.218378e+002,3.107813e+001
6.228021e+002,2.904718e+001
6.237663e+002,2.629425e+001
6.247305e+002,2.394354e+001
6.256948e+002,2.388843e+001
6.266590e+002,2.752344e+001
6.276232e+002,3.096582e+001
6.285875e+002,3.258618e+001
6.295517e+002,3.308929e+001
6.305159e+002,3.290027e+001
6.314802e+002,3.216486e+001
6.324444e+002,3.077887e+001
6.334086e+002,2.866980e+001
6.343729e+002,2.643951e+001
6.353371e+002,2.489789e+001
6.363013e+002,2.435864e+001
6.372656e+002,2.429315e+001
6.382298e+002,2.315790e+001
6.391940e+002,1.935144e+001
6.401583e+002,1.620770e+001
6.411225e+002,1.488721e+001
6.420867e+002,1.458862e+001
6.430510e+002,1.393835e+001
6.440152e+002,1.200000e+001
6.449794e+002,1.014569e+001
6.459437e+002,9.755859e+000
6.469079e+002,9.341492e+000
6.478721e+002,7.280273e+000
6.488364e+002,3.416931e+000
6.498006e+002,-1.657104e-001
6.507648e+002,8.958130e-001
6.517291e+002,4.688538e+000
6.526933e+002,6.828308e+000
6.536575e+002,6.414795e+000
6.546218e+002,4.601135e+000
6.555860e+002,3.640015e+000
6.565502e+002,4.143555e+000
6.575145e+002,4.081726e+000
6.584787e+002,2.393677e+000
6.594429e+002,1.101990e+000
6.604072e+002,2.485779e+000
6.613714e+002,7.267578e+000
6.623356e+002,1.065131e+001
6.632999e+002,8.655090e+000
6.642641e+002,5.615845e+000
6.652283e+002,3.548584e+000
6.661926e+002,3.111572e+000
6.671568e+002,4.187622e+000
6.681210e+002,7.097900e+000
6.690853e+002,1.041266e+001
6.700495e+002,1.083325e+001
6.710137e+002,8.486023e+000
6.719780e+002,5.665100e+000
6.729422e+002,4.798096e+000
6.739064e+002,6.273682e+000
6.748707e+002,6.472046e+000
6.758349e+002,4.471558e+000
6.767991e+002,2.477905e+000
6.777634e+002,1.825317e+000
6.787276e+002,2.643188e+000
6.796918e+002,3.759216e+000
6.806561e+002,4.674988e+000
6.816203e+002,5.030029e+000
6.825845e+002,3.950745e+000
6.835488e+002,2.403503e+000
6.845130e+002,2.111877e+000
6.854772e+002,4.572693e+000
6.864415e+002,8.585510e+000
6.874057e+002,1.076990e+001
6.883699e+002,1.120648e+001
6.893342e+002,1.101587e+001
6.902984e+002,1.091583e+001
6.912626e+002,1.097760e+001
6.922269e+002,1.077332e+001
6.931911e+002,1.169476e+001
6.941553e+002,1.158850e+001
6.951196e+002,7.889160e+000
6.960838e+002,3.093384e+000
6.970480e+002,2.101990e+000
6.980123e+002,8.213989e+000
6.989765e+002,1.284412e+001
6.999407e+002,1.125885e+001
7.009050e+002,7.808167e+000
7.018692e+002,5.887817e+000
7.028334e+002,6.576233e+000
7.037977e+002,8.086670e+000
7.047619e+002,7.944275e+000
7.057261e+002,6.955688e+000
7.066904e+002,5.558533e+000
7.076546e+002,3.807495e+000
7.086188e+002,3.134888e+000
7.095831e+002,6.175415e+000
7.105473e+002,1.531305e+001
7.115115e+002,1.944708e+001
7.124758e+002,1.618127e+001
7.134400e+002,1.120129e+001
7.144042e+002,7.460510e+000
7.153685e+002,5.346375e+000
7.163327e+002,4.490723e+000
7.172969e+002,6.636475e+000
7.182612e+002,8.396912e+000
7.192254e+002,7.935974e+000
7.201896e+002,5.754211e+000
7.211539e+002,3.153687e+000
7.221181e+002,1.182068e+000
7.230823e+002,-1.187134e-001
7.240466e+002,-6.064453e-001
7.250108e+002,-1.494751e-001
7.259750e+002,4.623413e-001
7.269393e+002,3.438110e-001
7.279035e+002,-7.647095e-001
7.288677e+002,-1.439514e+000
7.298320e+002,-4.389648e-001
7.307962e+002,1.243530e+000
7.317604e+002,4.254578e+000
7.327247e+002,7.754211e+000
7.336889e+002,1.022009e+001
7.346531e+002,1.047906e+001
7.356174e+002,9.615417e+000
7.365816e+002,8.950012e+000
7.375458e+002,8.595276e+000
7.385101e+002,8.337830e+000
7.394743e+002,8.254944e+000
7.404385e+002,8.947266e+000
7.414028e+002,1.178265e+001
7.423670e+002,1.500189e+001
7.433312e+002,1.458972e+001
7.442955e+002,1.063672e+001
7.452597e+002,6.120667e+000
7.462239e+002,3.932434e+000
7.471882e+002,4.203369e+000
7.481524e+002,5.687500e+000
7.491166e+002,9.159363e+000
7.500809e+002,1.155109e+001
7.510451e+002,1.159241e+001
7.520093e+002,9.591675e+000
7.529736e+002,6.795288e+000
7.539378e+002,3.393127e+000
7.549020e+002,1.096436e+000
7.558663e+002,7.057495e-001
7.568306e+002,1.807190e+000
7.577948e+002,4.127441e+000
7.587590e+002,7.237488e+000
7.597233e+002,1.019592e+001
7.606875e+002,1.072241e+001
7.616517e+002,9.413696e+000
7.626160e+002,8.022034e+000
7.635802e+002,6.896729e+000
7.645444e+002,6.179504e+000
7.655087e+002,6.138000e+000
7.664729e+002,7.068665e+000
7.674371e+002,7.759399e+000
7.684014e+002,7.134155e+000
7.693656e+002,7.053772e+000
7.703298e+002,9.941101e+000
7.712941e+002,1.555103e+001
7.722583e+002,1.915369e+001
7.732225e+002,1.466803e+001
7.741868e+002,9.174744e+000
7.751510e+002,8.556763e+000
7.761152e+002,1.185187e+001
7.770795e+002,1.567157e+001
7.780437e+002,1.697498e+001
7.790079e+002,1.600842e+001
7.799722e+002,1.590973e+001
7.809364e+002,1.666302e+001
7.819006e+002,1.747668e+001
7.828649e+002,1.838354e+001
7.838291e+002,1.956213e+001
7.847933e+002,2.099524e+001
7.857576e+002,2.274603e+001
7.867218e+002,2.321692e+001
7.876860e+002,2.174707e+001
7.886503e+002,2.016986e+001
7.896145e+002,2.033234e+001
7.905787e+002,2.256262e+001
7.915430e+002,2.467896e+001
7.925072e+002,2.272870e+001
7.934714e+002,1.967639e+001
7.944357e+002,1.994543e+001
7.953999e+002,2.359637e+001
7.963641e+002,2.769568e+001
7.973284e+002,2.876276e+001
7.982926e+002,2.657928e+001
7.992568e+002,2.537036e+001
8.002211e+002,2.514697e+001
8.011853e+002,2.377856e+001
8.021495e+002,2.034143e+001
8.031138e+002,1.620660e+001
8.040780e+002,1.436334e+001
8.050422e+002,1.543848e+001
8.060065e+002,1.771515e+001
8.069707e+002,2.182397e+001
8.079349e+002,2.546191e+001
8.088992e+002,2.601636e+001
8.098634e+002,2.303156e+001
8.108276e+002,1.949927e+001
8.117919e+002,1.947809e+001
8.127561e+002,2.110767e+001
8.137203e+002,2.224524e+001
8.146846e+002,2.306116e+001
8.156488e+002,2.373267e+001
8.166130e+002,2.419061e+001
8.175773e+002,2.437982e+001
8.185415e+002,2.387488e+001
8.195057e+002,2.074524e+001
8.204700e+002,1.858191e+001
8.214342e+002,1.942731e+001
8.223984e+002,2.218414e+001
8.233627e+002,2.384570e+001
8.243269e+002,2.315509e+001
8.252911e+002,2.202087e+001
8.262554e+002,2.157861e+001
8.272196e+002,2.130890e+001
8.281838e+002,2.046918e+001
8.291481e+002,1.887897e+001
8.301123e+002,1.717828e+001
8.310765e+002,1.661737e+001
8.320408e+002,1.699078e+001
8.330050e+002,1.670697e+001
8.339692e+002,1.553168e+001
8.349335e+002,1.453485e+001
8.358977e+002,1.512701e+001
8.368619e+002,1.781903e+001
8.378262e+002,2.012079e+001
8.387904e+002,2.117841e+001
8.397546e+002,2.205273e+001
8.407189e+002,2.266266e+001
8.416831e+002,2.343280e+001
8.426473e+002,2.518256e+001
8.436116e+002,2.853827e+001
8.445758e+002,3.213293e+001
8.455400e+002,3.428864e+001
8.465043e+002,3.509814e+001
8.474685e+002,3.484546e+001
8.484327e+002,3.408228e+001
8.493970e+002,3.359631e+001
8.503612e+002,3.423407e+001
8.513254e+002,3.611243e+001
8.522897e+002,3.647583e+001
8.532539e+002,3.383350e+001
8.542181e+002,3.124408e+001
8.551824e+002,3.013263e+001
8.561466e+002,3.108490e+001
8.571108e+002,3.592249e+001
8.580751e+002,4.907410e+001
8.590393e+002,5.855621e+001
8.600035e+002,5.936169e+001
8.609678e+002,5.607159e+001
8.619320e+002,5.326965e+001
8.628962e+002,5.293890e+001
8.638605e+002,5.432452e+001
8.648247e+002,5.734967e+001
8.657889e+002,6.093762e+001
8.667532e+002,6.252081e+001
8.677174e+002,6.176996e+001
8.686816e+002,6.103345e+001
8.696459e+002,6.355841e+001
8.706101e+002,7.050323e+001
8.715743e+002,7.345813e+001
8.725386e+002,6.798462e+001
8.735028e+002,6.463013e+001
8.744670e+002,6.722968e+001
8.754313e+002,7.283514e+001
8.763955e+002,7.553290e+001
8.773597e+002,7.240820e+001
8.783240e+002,7.074933e+001
8.792882e+002,7.733203e+001
8.802524e+002,8.621967e+001
8.812167e+002,9.285046e+001
8.821809e+002,9.603656e+001
8.831451e+002,9.695844e+001
8.841094e+002,9.710553e+001
8.850736e+002,9.680011e+001
8.860378e+002,9.650891e+001
8.870021e+002,9.540521e+001
8.879663e+002,9.591974e+001
8.889305e+002,1.008073e+002
8.898948e+002,1.086307e+002
8.908590e+002,1.123156e+002
8.918232e+002,1.084025e+002
8.927875e+002,1.059542e+002
8.937517e+002,1.075721e+002
8.947159e+002,1.107623e+002
8.956802e+002,1.135062e+002
8.966444e+002,1.149590e+002
8.976086e+002,1.152123e+002
8.985729e+002,1.143647e+002
8.995371e+002,1.132761e+002
9.005013e+002,1.120224e+002
9.014656e+002,1.112780e+002
9.024298e+002,1.135361e+002
9.033940e+002,1.208899e+002
9.043583e+002,1.318871e+002
9.053225e+002,1.376754e+002
9.062867e+002,1.323003e+002
9.072510e+002,1.284165e+002
9.082152e+002,1.275056e+002
9.091794e+002,1.283795e+002
9.101437e+002,1.300967e+002
9.111079e+002,1.324824e+002
9.120721e+002,1.345776e+002
9.130364e+002,1.363420e+002
9.140006e+002,1.362271e+002
9.149648e+002,1.324809e+002
9.159291e+002,1.267732e+002
9.168933e+002,1.215617e+002
9.178575e+002,1.184186e+002
9.188218e+002,1.173342e+002
9.197860e+002,1.202646e+002
9.207502e+002,1.272671e+002
9.217145e+002,1.301747e+002
9.226787e+002,1.258786e+002
9.236429e+002,1.193636e+002
9.246072e+002,1.172727e+002
9.255714e+002,1.203478e+002
9.265356e+002,1.221052e+002
9.274999e+002,1.206658e+002
9.284641e+002,1.182737e+002
9.294283e+002,1.150954e+002
9.303926e+002,1.119697e+002
9.313568e+002,1.102002e+002
9.323210e+002,1.105198e+002
9.332853e+002,1.111961e+002
9.342495e+002,1.093978e+002
9.352137e+002,1.059637e+002
9.361780e+002,1.021978e+002
9.371422e+002,9.870947e+001
9.381064e+002,9.540649e+001
9.390707e+002,9.152277e+001
9.400349e+002,8.606104e+001
9.409991e+002,8.382214e+001
9.419634e+002,8.645074e+001
9.429276e+002,8.946826e+001
9.438918e+002,9.298169e+001
9.448561e+002,9.592719e+001
9.458203e+002,9.627319e+001
9.467845e+002,9.310199e+001
9.477488e+002,8.985345e+001
9.487130e+002,8.895905e+001
9.496772e+002,8.898090e+001
9.506415e+002,8.919415e+001
9.516057e+002,8.928186e+001
9.525699e+002,8.904285e+001
9.535342e+002,8.823969e+001
9.544984e+002,8.665765e+001
9.554626e+002,8.346027e+001
9.564269e+002,7.866266e+001
9.573911e+002,7.531122e+001
9.583553e+002,7.434344e+001
9.593196e+002,7.498413e+001
9.602838e+002,7.655103e+001
9.612480e+002,7.951819e+001
9.622123e+002,8.057605e+001
9.631765e+002,7.728241e+001
9.641407e+002,7.370935e+001
9.651050e+002,7.153864e+001
9.660692e+002,7.035046e+001
9.670334e+002,6.887189e+001
9.679977e+002,6.651062e+001
9.689619e+002,6.455634e+001
9.699261e+002,6.569629e+001
9.708904e+002,6.861603e+001
9.718546e+002,7.030212e+001
9.728188e+002,6.957666e+001
9.737831e+002,6.887811e+001
9.747473e+002,7.232135e+001
9.757115e+002,8.138397e+001
9.766758e+002,8.726166e+001
9.776400e+002,8.817639e+001
9.786042e+002,8.873486e+001
9.795685e+002,9.042291e+001
9.805327e+002,9.157581e+001
9.814969e+002,9.029498e+001
9.824612e+002,8.621698e+001
9.834254e+002,8.018549e+001
9.843896e+002,6.991736e+001
9.853539e+002,5.923602e+001
9.863181e+002,5.271240e+001
9.872823e+002,5.004333e+001
9.882466e+002,4.891119e+001
9.892108e+002,4.781860e+001
9.901750e+002,4.725189e+001
9.911393e+002,4.681073e+001
9.921035e+002,4.535022e+001
9.930677e+002,4.364478e+001
9.940320e+002,4.094153e+001
9.949962e+002,3.938324e+001
9.959604e+002,4.168585e+001
9.969247e+002,4.788666e+001
9.978889e+002,5.359558e+001
9.988531e+002,5.537762e+001
9.998174e+002,5.668573e+001
1.000782e+003,6.087720e+001
1.001746e+003,6.623834e+001
1.002710e+003,6.987622e+001
1.003674e+003,7.054480e+001
1.004639e+003,6.961823e+001
1.005603e+003,6.965991e+001
1.006567e+003,7.061896e+001
1.007531e+003,6.895636e+001
1.008495e+003,6.360272e+001
1.009460e+003,5.805969e+001
1.010424e+003,5.427179e+001
1.011388e+003,5.212329e+001
1.012352e+003,5.111011e+001
1.013317e+003,5.219861e+001
1.014281e+003,5.174384e+001
1.015245e+003,4.740015e+001
1.016209e+003,4.217743e+001
1.017174e+003,3.848303e+001
1.018138e+003,3.637170e+001
1.019102e+003,3.408112e+001
1.020066e+003,3.013867e+001
1.021031e+003,2.573322e+001
1.021995e+003,2.396869e+001
1.022959e+003,2.392487e+001
1.023923e+003,2.327240e+001
1.024887e+003,2.129437e+001
1.025852e+003,1.812805e+001
1.026816e+003,1.387708e+001
1.027780e+003,8.449829e+000
1.028744e+003,3.828247e+000
1.029709e+003,-5.777588e-001
1.030673e+003,-3.500305e+000
1.031637e+003,-4.238342e+000
1.032601e+003,-3.598816e+000
1.033566e+003,-2.123169e+000
1.034530e+003,3.350830e-002
1.035494e+003,1.793518e+000
1.036458e+003,1.175720e+000
1.037422e+003,-4.381104e-001
1.038387e+003,-4.395752e-001
1.039351e+003,1.038513e+000
1.040315e+003,2.540283e+000
1.041279e+003,3.082214e+000
1.042244e+003,3.083130e+000
1.043208e+003,3.965881e+000
1.044172e+003,7.020142e+000
1.045136e+003,7.796570e+000
1.046101e+003,4.303345e+000
1.047065e+003,9.182739e-001
1.048029e+003,7.151489e-001
1.048993e+003,3.028442e+000
1.049958e+003,4.850098e+000
1.050922e+003,4.795349e+000
1.051886e+003,4.504150e+000
1.052850e+003,5.650391e+000
1.053814e+003,7.452209e+000
1.054779e+003,9.038696e+000
1.055743e+003,1.010406e+001
1.056707e+003,1.068732e+001
1.057671e+003,1.086505e+001
1.058636e+003,1.055847e+001
1.059600e+003,9.650940e+000
1.060564e+003,8.353638e+000
1.061528e+003,7.129517e+000
1.062493e+003,4.833862e+000
1.063457e+003,2.712830e+000
1.064421e+003,3.066650e+000
1.065385e+003,6.194092e+000
1.066349e+003,8.228394e+000
1.067314e+003,6.081116e+000
1.068278e+003,3.627625e+000
1.069242e+003,4.031250e+000
1.070206e+003,6.064880e+000
1.071171e+003,7.444580e+000
1.072135e+003,7.093811e+000
1.073099e+003,5.798950e+000
1.074063e+003,5.142822e+000
1.075028e+003,5.304871e+000
1.075992e+003,6.098206e+000
1.076956e+003,7.932312e+000
1.077920e+003,9.024780e+000
1.078885e+003,8.659851e+000
1.079849e+003,7.667908e+000
1.080813e+003,7.468994e+000
1.081777e+003,8.515869e+000
1.082741e+003,9.232849e+000
1.083706e+003,7.271362e+000
1.084670e+003,5.358521e+000
1.085634e+003,5.252625e+000
1.086598e+003,6.370728e+000
1.087563e+003,7.747253e+000
1.088527e+003,8.892090e+000
1.089491e+003,9.545410e+000
1.090455e+003,8.515442e+000
1.091420e+003,5.274414e+000
1.092384e+003,2.654480e+000
1.093348e+003,6.300049e-001
1.094312e+003,-1.320923e+000
1.095276e+003,-3.380615e+000
1.096241e+003,-5.168457e+000
1.097205e+003,-6.143433e+000
1.098169e+003,-6.450806e+000
1.099133e+003,-6.161926e+000
1.100098e+003,-4.658630e+000
1.101062e+003,-2.895813e+000
1.102026e+003,-7.672729e-001
1.102990e+003,1.082092e+000
1.103955e+003,1.033875e+000
1.104919e+003,-1.906128e+000
1.105883e+003,-5.969482e+000
1.106847e+003,-7.097412e+000
1.107812e+003,-5.225342e+000
1.108776e+003,-3.422180e+000
1.109740e+003,-1.431763e+000
1.110704e+003,-2.873535e-001
1.111668e+003,-1.408875e+000
1.112633e+003,-3.724121e+000
1.113597e+003,-3.004944e+000
1.114561e+003,3.003784e+000
1.115525e+003,6.869263e+000
1.116490e+003,4.248535e+000
1.117454e+003,9.021606e-001
1.118418e+003,9.818115e-001
1.119382e+003,3.993164e+000
1.120347e+003,7.150879e+000
1.121311e+003,8.453918e+000
1.122275e+003,7.890564e+000
1.123239e+003,6.133118e+000
1.124203e+003,3.694702e+000
1.125168e+003,1.101746e+000
1.126132e+003,-2.231995e+000
1.127096e+003,-3.788086e+000
1.128060e+003,-8.549805e-001
1.129025e+003,5.400696e+000
1.129989e+003,1.001367e+001
1.130953e+003,1.226263e+001
1.131917e+003,1.329028e+001
1.132882e+003,1.206860e+001
1.133846e+003,1.150940e+001
1.134810e+003,1.408569e+001
1.135774e+003,1.881079e+001
1.136739e+003,2.294135e+001
1.137703e+003,2.491278e+001
1.138667e+003,2.597681e+001
1.139631e+003,2.819867e+001
1.140595e+003,3.159955e+001
1.141560e+003,3.617987e+001
1.142524e+003,4.225964e+001
1.143488e+003,4.944531e+001
1.144452e+003,5.672839e+001
1.145417e+003,6.474420e+001
1.146381e+003,7.599725e+001
1.147345e+003,9.110760e+001
1.148309e+003,1.077875e+002
1.149274e+003,1.273456e+002
1.150238e+003,1.466399e+002
1.151202e+003,1.648042e+002
1.152166e+003,1.816710e+002
1.153130e+003,1.978065e+002
1.154095e+003,2.129008e+002
1.155059e+003,2.239653e+002
1.156023e+003,2.270522e+002
1.156987e+003,2.225013e+002
1.157952e+003,2.154441e+002
1.158916e+003,2.066274e+002
1.159880e+003,1.953278e+002
1.160844e+003,1.786394e+002
1.161809e+003,1.587164e+002
1.162773e+003,1.421182e+002
1.163737e+003,1.301136e+002
1.164701e+003,1.159088e+002
1.165666e+003,9.292914e+001
1.166630e+003,7.310461e+001
1.167594e+003,6.167792e+001
1.168558e+003,5.568610e+001
1.169522e+003,5.141388e+001
1.170487e+003,4.732635e+001
1.171451e+003,4.379608e+001
1.172415e+003,4.123126e+001
1.173379e+003,3.935333e+001
1.174344e+003,3.728815e+001
1.175308e+003,3.520886e+001
1.176272e+003,3.271405e+001
1.177236e+003,2.916553e+001
1.178201e+003,2.574591e+001
1.179165e+003,2.408606e+001
1.180129e+003,2.396887e+001
1.181093e+003,2.274683e+001
1.182057e+003,1.903308e+001
1.183022e+003,1.578741e+001
1.183986e+003,1.451001e+001
1.184950e+003,1.392670e+001
1.185914e+003,1.234430e+001
1.186879e+003,1.014136e+001
1.187843e+003,9.780151e+000
1.188807e+003,1.324652e+001
1.189771e+003,1.858252e+001
1.190736e+003,1.999561e+001
1.191700e+003,1.693671e+001
1.192664e+003,1.518945e+001
1.193628e+003,1.680017e+001
1.194593e+003,1.819501e+001
1.195557e+003,1.597150e+001
1.196521e+003,1.130823e+001
1.197485e+003,8.917603e+000
1.198449e+003,1.053748e+001
1.199414e+003,1.131610e+001
1.200378e+003,8.778076e+000
1.201342e+003,5.007263e+000
1.202306e+003,1.145630e-001
1.203271e+003,-5.002441e+000
1.204235e+003,-8.730164e+000
1.205199e+003,-1.029077e+001
1.206163e+003,-1.067847e+001
1.207128e+003,-1.163910e+001
1.208092e+003,-1.318915e+001
1.209056e+003,-1.396863e+001
1.210020e+003,-1.236255e+001
1.210984e+003,-1.312244e+001
1.211949e+003,-1.932129e+001
1.212913e+003,-2.769647e+001
1.213877e+003,-3.393140e+001
1.214841e+003,-3.767719e+001
1.215806e+003,-4.141364e+001
1.216770e+003,-4.711932e+001
1.217734e+003,-5.145807e+001
1.218698e+003,-5.150305e+001
1.219663e+003,-4.980927e+001
1.220627e+003,-4.941040e+001
1.221591e+003,-5.081067e+001
1.222555e+003,-5.255414e+001
1.223520e+003,-5.322083e+001
1.224484e+003,-5.310669e+001
1.225448e+003,-5.428284e+001
1.226412e+003,-5.818195e+001
1.227376e+003,-6.020355e+001
1.228341e+003,-5.887659e+001
1.229305e+003,-5.760956e+001
1.230269e+003,-5.814154e+001
1.231233e+003,-6.010321e+001
1.232198e+003,-6.309009e+001
1.233162e+003,-6.702234e+001
1.234126e+003,-6.900952e+001
1.235090e+003,-6.567352e+001
1.236055e+003,-6.094830e+001
1.237019e+003,-5.878571e+001
1.237983e+003,-5.886346e+001
1.238947e+003,-5.982166e+001
1.239911e+003,-6.092975e+001
1.240876e+003,-6.220520e+001
1.241840e+003,-6.407330e+001
1.242804e+003,-6.667206e+001
1.243768e+003,-6.706152e+001
1.244733e+003,-6.261237e+001
1.245697e+003,-5.933710e+001
1.246661e+003,-5.824451e+001
1.247625e+003,-5.850299e+001
1.248590e+003,-6.002032e+001
1.249554e+003,-6.191760e+001
1.250518e+003,-6.247235e+001
1.251482e+003,-6.099945e+001
1.252447e+003,-5.904242e+001
1.253411e+003,-5.845575e+001
1.254375e+003,-5.821069e+001
1.255339e+003,-5.586523e+001
1.256303e+003,-5.134637e+001
1.257268e+003,-4.789563e+001
1.258232e+003,-4.799371e+001
1.259196e+003,-5.007111e+001
1.260160e+003,-5.053467e+001
1.261125e+003,-4.893054e+001
1.262089e+003,-4.679095e+001
1.263053e+003,-4.380542e+001
1.264017e+003,-4.147375e+001
1.264982e+003,-3.964276e+001
1.265946e+003,-3.874329e+001
1.266910e+003,-3.974420e+001
1.267874e+003,-4.212201e+001
1.268839e+003,-4.398572e+001
1.269803e+003,-4.404742e+001
1.270767e+003,-4.333728e+001
1.271731e+003,-4.390515e+001
1.272695e+003,-4.555896e+001
1.273660e+003,-4.644330e+001
1.274624e+003,-4.691333e+001
1.275588e+003,-4.681165e+001
1.276552e+003,-4.491833e+001
1.277517e+003,-4.236108e+001
1.278481e+003,-4.180835e+001
1.279445e+003,-4.363519e+001
1.280409e+003,-4.547797e+001
1.281374e+003,-4.662842e+001
1.282338e+003,-4.747290e+001
1.283302e+003,-4.855737e+001
1.284266e+003,-4.935449e+001
1.285230e+003,-4.852069e+001
1.286195e+003,-4.656659e+001
1.287159e+003,-4.606201e+001
1.288123e+003,-4.901184e+001
1.289087e+003,-5.397882e+001
1.290052e+003,-5.716748e+001
1.291016e+003,-5.862573e+001
1.291980e+003,-5.858502e+001
1.292944e+003,-5.614063e+001
1.293909e+003,-5.402863e+001
1.294873e+003,-5.283368e+001
1.295837e+003,-5.237488e+001
1.296801e+003,-5.284308e+001
1.297766e+003,-5.411975e+001
1.298730e+003,-5.503625e+001
1.299694e+003,-5.527899e+001
1.300658e+003,-5.479095e+001
1.301622e+003,-5.187537e+001
1.302587e+003,-4.859033e+001
1.303551e+003,-4.950696e+001
1.304515e+003,-5.482733e+001
1.305479e+003,-5.897272e+001
1.306444e+003,-5.732568e+001
1.307408e+003,-5.179926e+001
1.308372e+003,-4.831873e+001
1.309336e+003,-4.716138e+001
1.310301e+003,-4.736829e+001
1.311265e+003,-4.987708e+001
1.312229e+003,-5.214868e+001
1.313193e+003,-5.407678e+001
1.314157e+003,-5.510443e+001
1.315122e+003,-5.399127e+001
1.316086e+003,-5.135480e+001
1.317050e+003,-4.979712e+001
1.318014e+003,-5.097589e+001
1.318979e+003,-5.328412e+001
1.319943e+003,-5.419397e+001
1.320907e+003,-5.363818e+001
1.321871e+003,-5.256104e+001
1.322836e+003,-5.125873e+001
1.323800e+003,-4.985187e+001
1.324764e+003,-4.807935e+001
1.325728e+003,-4.629230e+001
1.326693e+003,-4.487781e+001
1.327657e+003,-4.398431e+001
1.328621e+003,-4.539667e+001
1.329585e+003,-5.129559e+001
1.330549e+003,-5.501031e+001
1.331514e+003,-5.269989e+001
1.332478e+003,-4.852100e+001
1.333442e+003,-4.573529e+001
1.334406e+003,-4.460596e+001
1.335371e+003,-4.420001e+001
1.336335e+003,-4.393097e+001
1.337299e+003,-4.385156e+001
1.338263e+003,-4.424292e+001
1.339228e+003,-4.528778e+001
1.340192e+003,-4.491559e+001
1.341156e+003,-4.121783e+001
1.342120e+003,-3.902222e+001
1.343084e+003,-4.027924e+001
1.344049e+003,-4.265472e+001
1.345013e+003,-4.435754e+001
1.345977e+003,-4.508337e+001
1.346941e+003,-4.497498e+001
1.347906e+003,-4.408685e+001
1.348870e+003,-4.279669e+001
1.349834e+003,-4.138940e+001
1.350798e+003,-4.007623e+001
1.351763e+003,-3.829498e+001
1.352727e+003,-3.636554e+001
1.353691e+003,-3.697272e+001
1.354655e+003,-4.172754e+001
1.355620e+003,-4.693805e+001
1.356584e+003,-4.785266e+001
1.357548e+003,-4.490723e+001
1.358512e+003,-4.281586e+001
1.359476e+003,-4.213647e+001
1.360441e+003,-4.224023e+001
1.361405e+003,-4.426501e+001
1.362369e+003,-4.532452e+001
1.363333e+003,-4.312775e+001
1.364298e+003,-3.945221e+001
1.365262e+003,-3.647131e+001
1.366226e+003,-3.498743e+001
1.367190e+003,-3.524225e+001
1.368155e+003,-3.753058e+001
1.369119e+003,-4.062238e+001
1.370083e+003,-4.039392e+001
1.371047e+003,-3.542560e+001
1.372011e+003,-3.248218e+001
1.372976e+003,-3.274396e+001
1.373940e+003,-3.397528e+001
1.374904e+003,-3.622778e+001
1.375868e+003,-3.819531e+001
1.376833e+003,-3.818567e+001
1.377797e+003,-3.630194e+001
1.378761e+003,-3.368738e+001
1.379725e+003,-3.017987e+001
1.380690e+003,-2.787970e+001
1.381654e+003,-3.059656e+001
1.382618e+003,-3.495935e+001
1.383582e+003,-3.615277e+001
1.384547e+003,-3.423615e+001
1.385511e+003,-3.212903e+001
1.386475e+003,-3.132965e+001
1.387439e+003,-3.135498e+001
1.388403e+003,-3.148523e+001
1.389368e+003,-3.175037e+001
1.390332e+003,-3.213019e+001
1.391296e+003,-3.277899e+001
1.392260e+003,-3.280505e+001
1.393225e+003,-3.151581e+001
1.394189e+003,-3.029340e+001
1.395153e+003,-2.997211e+001
1.396117e+003,-3.019818e+001
1.397082e+003,-3.035876e+001
1.398046e+003,-3.018719e+001
1.399010e+003,-2.976123e+001
1.399974e+003,-2.931342e+001
1.400938e+003,-2.921747e+001
1.401903e+003,-2.981628e+001
1.402867e+003,-3.080579e+001
1.403831e+003,-3.005103e+001
1.404795e+003,-2.631281e+001
1.405760e+003,-2.330389e+001
1.406724e+003,-2.313690e+001
1.407688e+003,-2.474481e+001
1.408652e+003,-2.637823e+001
1.409617e+003,-2.766302e+001
1.410581e+003,-2.963135e+001
1.411545e+003,-3.304846e+001
1.412509e+003,-3.536493e+001
1.413474e+003,-3.347260e+001
1.414438e+003,-2.970984e+001
1.415402e+003,-2.712659e+001
1.416366e+003,-2.554462e+001
1.417330e+003,-2.488574e+001
1.418295e+003,-2.543494e+001
1.419259e+003,-2.569818e+001
1.420223e+003,-2.356030e+001
1.421187e+003,-1.973535e+001
1.422152e+003,-1.777783e+001
1.423116e+003,-1.809393e+001
1.424080e+003,-1.805780e+001
1.425044e+003,-1.642218e+001
1.426009e+003,-1.551300e+001
1.426973e+003,-1.735699e+001
1.427937e+003,-1.985858e+001
1.428901e+003,-2.021289e+001
1.429865e+003,-1.827325e+001
1.430830e+003,-1.578351e+001
1.431794e+003,-1.406946e+001
1.432758e+003,-1.341638e+001
1.433722e+003,-1.415131e+001
1.434687e+003,-1.606921e+001
1.435651e+003,-1.637384e+001
1.436615e+003,-1.527881e+001
1.437579e+003,-1.424451e+001
1.438544e+003,-1.318176e+001
1.439508e+003,-1.216364e+001
1.440472e+003,-1.071796e+001
1.441436e+003,-9.160461e+000
1.442401e+003,-8.415894e+000
1.443365e+003,-8.737671e+000
1.444329e+003,-9.414063e+000
1.445293e+003,-9.886047e+000
1.446257e+003,-1.012268e+001
1.447222e+003,-1.004077e+001
1.448186e+003,-9.824951e+000
1.449150e+003,-1.043616e+001
1.450114e+003,-1.235181e+001
1.451079e+003,-1.389264e+001
1.452043e+003,-1.328082e+001
1.453007e+003,-1.206573e+001
1.453971e+003,-1.323938e+001
1.454936e+003,-1.642761e+001
1.455900e+003,-1.756903e+001
1.456864e+003,-1.532166e+001
1.457828e+003,-1.214697e+001
1.458792e+003,-8.040283e+000
1.459757e+003,-5.296326e+000
1.460721e+003,-6.822876e+000
1.461685e+003,-1.086877e+001
1.462649e+003,-1.380322e+001
1.463614e+003,-1.455267e+001
1.464578e+003,-1.439648e+001
1.465542e+003,-1.442340e+001
1.466506e+003,-1.483838e+001
1.467471e+003,-1.631543e+001
1.468435e+003,-1.924420e+001
1.469399e+003,-1.957068e+001
1.470363e+003,-1.551404e+001
1.471328e+003,-1.169354e+001
1.472292e+003,-9.576172e+000
1.473256e+003,-8.185303e+000
1.474220e+003,-6.282471e+000
1.475184e+003,-4.007813e+000
1.476149e+003,-2.152710e+000
1.477113e+003,-1.182068e+000
1.478077e+003,-1.007935e+000
1.479041e+003,-1.333679e+000
1.480006e+003,-1.836182e+000
1.480970e+003,-2.066528e+000
1.481934e+003,-2.352051e+000
1.482898e+003,-2.261475e+000
1.483863e+003,-1.848145e+000
1.484827e+003,-1.170654e+000
1.485791e+003,2.512817e-001
1.486755e+003,1.996948e+000
1.487719e+003,3.272095e+000
1.488684e+003,4.262512e+000
1.489648e+003,6.126465e+000
1.490612e+003,9.328918e+000
1.491576e+003,1.238037e+001
1.492541e+003,1.367072e+001
1.493505e+003,1.433234e+001
1.494469e+003,1.731281e+001
1.495433e+003,2.185321e+001
1.496398e+003,2.508417e+001
1.497362e+003,2.650189e+001
1.498326e+003,2.876447e+001
1.499290e+003,3.337067e+001
1.500255e+003,3.939337e+001
1.501219e+003,4.589935e+001
1.502183e+003,5.259821e+001
1.503147e+003,5.830463e+001
1.504111e+003,6.236987e+001
1.505076e+003,6.737769e+001
1.506040e+003,7.432916e+001
1.507004e+003,8.371375e+001
1.507968e+003,9.676990e+001
1.508933e+003,1.120676e+002
1.509897e+003,1.265464e+002
1.510861e+003,1.401479e+002
1.511825e+003,1.552304e+002
1.512790e+003,1.733095e+002
1.513754e+003,1.930661e+002
1.514718e+003,2.129194e+002
1.515682e+003,2.325786e+002
1.516646e+003,2.504164e+002
1.517611e+003,2.666805e+002
1.518575e+003,2.811318e+002
1.519539e+003,2.930445e+002
1.520503e+003,3.044084e+002
1.521468e+003,3.191176e+002
1.522432e+003,3.321055e+002
1.523396e+003,3.356978e+002
1.524360e+003,3.297646e+002
1.525325e+003,3.207043e+002
1.526289e+003,3.128561e+002
1.527253e+003,3.043502e+002
1.528217e+003,2.915771e+002
1.529182e+003,2.747486e+002
1.530146e+003,2.563121e+002
1.531110e+003,2.355084e+002
1.532074e+003,2.138405e+002
1.533039e+003,1.886954e+002
1.534003e+003,1.647469e+002
1.534967e+003,1.459807e+002
1.535931e+003,1.293447e+002
1.536896e+003,1.101942e+002
1.537860e+003,8.940204e+001
1.538824e+003,7.139130e+001
1.539788e+003,5.833185e+001
1.540752e+003,4.905627e+001
1.541717e+003,4.242792e+001
1.542681e+003,3.820856e+001
1.543645e+003,3.370038e+001
1.544609e+003,2.812518e+001
1.545573e+003,2.534491e+001
1.546538e+003,2.654718e+001
1.547502e+003,2.800696e+001
1.548466e+003,2.836780e+001
1.549430e+003,2.912903e+001
1.550395e+003,3.202502e+001
1.551359e+003,3.631506e+001
1.552323e+003,4.066364e+001
1.553287e+003,4.438495e+001
1.554252e+003,4.482385e+001
1.555216e+003,3.908838e+001
1.556180e+003,2.985901e+001
1.557144e+003,2.318958e+001
1.558109e+003,1.934583e+001
1.559073e+003,1.618964e+001
1.560037e+003,1.326971e+001
1.561001e+003,1.095471e+001
1.561966e+003,1.012885e+001
1.562930e+003,1.004321e+001
1.563894e+003,9.424683e+000
1.564858e+003,8.741333e+000
1.565823e+003,9.571777e+000
1.566787e+003,1.211719e+001
1.567751e+003,1.513605e+001
1.568715e+003,1.829175e+001
1.569679e+003,2.096313e+001
1.570644e+003,2.223230e+001
1.571608e+003,2.203308e+001
1.572572e+003,2.043024e+001
1.573536e+003,1.755951e+001
1.574500e+003,1.621411e+001
1.575465e+003,1.777258e+001
1.576429e+003,2.013788e+001
1.577393e+003,2.172717e+001
1.578357e+003,2.270441e+001
1.579322e+003,2.328101e+001
1.580286e+003,2.369202e+001
1.581250e+003,2.567017e+001
1.582214e+003,3.046765e+001
1.583179e+003,3.410083e+001
1.584143e+003,3.237329e+001
1.585107e+003,2.867920e+001
1.586071e+003,2.824335e+001
1.587036e+003,3.034875e+001
1.588000e+003,3.168475e+001
1.588964e+003,3.129681e+001
1.589928e+003,3.052325e+001
1.590893e+003,3.010925e+001
1.591857e+003,3.005029e+001
1.592821e+003,3.025024e+001
1.593785e+003,3.083759e+001
1.594750e+003,3.237109e+001
1.595714e+003,3.493744e+001
1.596678e+003,3.743079e+001
1.597642e+003,3.960724e+001
1.598606e+003,4.135864e+001
1.599571e+003,4.230072e+001
1.600535e+003,4.316754e+001
1.601499e+003,4.516205e+001
1.602463e+003,4.795270e+001
1.603427e+003,4.966382e+001
1.604392e+003,4.941040e+001
1.605356e+003,4.916254e+001
1.606320e+003,5.171234e+001
1.607284e+003,5.558997e+001
1.608249e+003,5.615613e+001
1.609213e+003,5.328162e+001
1.610177e+003,5.097394e+001
1.611141e+003,4.975757e+001
1.612106e+003,4.948309e+001
1.613070e+003,4.995831e+001
1.614034e+003,5.148145e+001
1.614998e+003,5.570099e+001
1.615963e+003,6.058234e+001
1.616927e+003,6.231726e+001
1.617891e+003,6.056036e+001
1.618855e+003,5.795386e+001
1.619820e+003,5.568494e+001
1.620784e+003,5.424225e+001
1.621748e+003,5.587250e+001
1.622712e+003,6.010175e+001
1.623677e+003,6.050433e+001
1.624641e+003,5.596375e+001
1.625605e+003,5.441040e+001
1.626569e+003,5.933960e+001
1.627533e+003,6.287152e+001
1.628498e+003,5.988556e+001
1.629462e+003,5.580780e+001
1.630426e+003,5.523041e+001
1.631390e+003,5.710339e+001
1.632354e+003,5.840509e+001
1.633319e+003,5.842102e+001
1.634283e+003,5.889325e+001
1.635247e+003,6.130743e+001
1.636211e+003,6.410864e+001
1.637176e+003,6.421600e+001
1.638140e+003,6.201959e+001
1.639104e+003,6.187061e+001
1.640068e+003,6.472717e+001
1.641033e+003,6.572388e+001
1.641997e+003,6.197711e+001
1.642961e+003,5.886633e+001
1.643925e+003,5.919171e+001
1.644890e+003,6.116827e+001
1.645854e+003,6.403485e+001
1.646818e+003,6.674384e+001
1.647782e+003,6.704968e+001
1.648747e+003,6.440338e+001
1.649711e+003,6.141711e+001
1.650675e+003,6.042389e+001
1.651639e+003,6.065570e+001
1.652604e+003,6.006476e+001
1.653568e+003,5.854089e+001
1.654532e+003,5.769391e+001
1.655496e+003,5.781317e+001
1.656460e+003,5.788794e+001
1.657425e+003,5.759595e+001
1.658389e+003,5.750409e+001
1.659353e+003,5.864496e+001
1.660317e+003,5.955005e+001
1.661281e+003,5.811584e+001
1.662246e+003,5.496857e+001
1.663210e+003,5.247418e+001
1.664174e+003,5.150830e+001
1.665138e+003,5.118335e+001
1.666103e+003,5.066321e+001
1.667067e+003,5.002203e+001
1.668031e+003,4.978003e+001
1.668995e+003,4.993658e+001
1.669960e+003,4.919623e+001
1.670924e+003,4.716437e+001
1.671888e+003,4.592322e+001
1.672852e+003,4.638556e+001
1.673817e+003,4.707391e+001
1.674781e+003,4.711591e+001
1.675745e+003,4.678650e+001
1.676709e+003,4.626160e+001
1.677674e+003,4.561896e+001
1.678638e+003,4.526959e+001
1.679602e+003,4.533325e+001
1.680566e+003,4.430029e+001
1.681531e+003,4.053094e+001
1.682495e+003,3.598804e+001
1.683459e+003,3.377673e+001
1.684423e+003,3.343500e+001
1.685387e+003,3.309326e+001
1.686352e+003,3.267206e+001
1.687316e+003,3.240558e+001
1.688280e+003,3.230792e+001
1.689244e+003,3.247235e+001
1.690208e+003,3.349792e+001
1.691173e+003,3.429962e+001
1.692137e+003,3.334497e+001
1.693101e+003,3.142316e+001
1.694065e+003,3.076666e+001
1.695030e+003,3.173529e+001
1.695994e+003,3.200665e+001
1.696958e+003,2.996289e+001
1.697922e+003,2.703357e+001
1.698887e+003,2.448718e+001
1.699851e+003,2.265009e+001
1.700815e+003,2.281354e+001
1.701779e+003,2.487543e+001
1.702744e+003,2.548901e+001
1.703708e+003,2.345160e+001
1.704672e+003,2.173975e+001
1.705636e+003,2.269928e+001
1.706601e+003,2.419495e+001
1.707565e+003,2.316296e+001
1.708529e+003,2.059924e+001
1.709493e+003,1.898462e+001
1.710458e+003,1.859979e+001
1.711422e+003,1.873920e+001
1.712386e+003,1.975500e+001
1.713350e+003,2.085626e+001
1.714314e+003,2.140460e+001
1.715279e+003,2.114148e+001
1.716243e+003,1.967224e+001
1.717207e+003,1.722595e+001
1.718171e+003,1.439703e+001
1.719135e+003,1.141321e+001
1.720100e+003,9.878296e+000
1.721064e+003,1.094324e+001
1.722028e+003,1.344928e+001
1.722992e+003,1.653534e+001
1.723957e+003,2.005609e+001
1.724921e+003,2.162994e+001
1.725885e+003,2.076660e+001
1.726849e+003,1.852423e+001
1.727814e+003,1.343890e+001
1.728778e+003,1.019141e+001
1.729742e+003,1.219745e+001
1.730706e+003,1.546686e+001
1.731671e+003,1.588318e+001
1.732635e+003,1.405542e+001
1.733599e+003,1.252014e+001
1.734563e+003,1.192932e+001
1.735528e+003,1.080908e+001
1.736492e+003,8.265808e+000
1.737456e+003,6.671448e+000
1.738420e+003,9.239624e+000
1.739385e+003,1.388110e+001
1.740349e+003,1.332159e+001
1.741313e+003,5.911072e+000
1.742277e+003,2.740356e+000
1.743241e+003,7.541626e+000
1.744206e+003,1.086194e+001
1.745170e+003,1.005640e+001
1.746134e+003,8.927612e+000
1.747098e+003,9.876953e+000
1.748063e+003,1.137744e+001
1.749027e+003,1.153400e+001
1.749991e+003,1.054541e+001
1.750955e+003,9.608704e+000
1.751919e+003,9.071594e+000
1.752884e+003,8.286804e+000
1.753848e+003,6.711426e+000
1.754812e+003,4.737366e+000
1.755776e+003,3.303406e+000
1.756741e+003,2.632446e+000
1.757705e+003,2.529236e+000
1.758669e+003,2.456116e+000
1.759633e+003,3.987488e+000
1.760598e+003,9.740967e+000
1.761562e+003,1.310236e+001
1.762526e+003,1.063843e+001
1.763490e+003,7.195068e+000
1.764455e+003,5.806580e+000
1.765419e+003,6.004333e+000
1.766383e+003,6.554810e+000
1.767347e+003,7.153809e+000
1.768312e+003,8.361267e+000
1.769276e+003,1.039612e+001
1.770240e+003,1.202435e+001
1.771204e+003,1.236407e+001
1.772168e+003,1.179285e+001
1.773133e+003,1.020093e+001
1.774097e+003,7.760742e+000
1.775061e+003,6.375244e+000
1.776025e+003,6.020691e+000
1.776990e+003,6.414429e+000
1.777954e+003,8.334778e+000
1.778918e+003,9.905884e+000
1.779882e+003,8.903442e+000
1.780846e+003,7.002502e+000
1.781811e+003,6.717468e+000
1.782775e+003,7.764709e+000
1.783739e+003,9.294373e+000
1.784703e+003,1.142822e+001
1.785668e+003,1.227826e+001
1.786632e+003,1.001001e+001
1.787596e+003,7.003235e+000
1.788560e+003,4.564331e+000
1.789525e+003,3.417847e+000
1.790489e+003,4.989075e+000
1.791453e+003,8.222046e+000
1.792417e+003,1.041895e+001
1.793382e+003,1.096838e+001
1.794346e+003,1.009888e+001
1.795310e+003,7.755188e+000
1.796274e+003,5.687866e+000
1.797239e+003,6.125854e+000
1.798203e+003,8.686218e+000
1.799167e+003,1.136432e+001
1.800131e+003,1.391937e+001
1.801095e+003,1.452295e+001
1.802060e+003,1.152209e+001
1.803024e+003,1.041296e+001
1.803988e+003,1.318866e+001
1.804952e+003,1.577527e+001
1.805917e+003,1.604169e+001
1.806881e+003,1.535229e+001
1.807845e+003,1.521375e+001
1.808809e+003,1.549835e+001
1.809773e+003,1.538397e+001
1.810738e+003,1.472864e+001
1.811702e+003,1.417096e+001
1.812666e+003,1.406848e+001
1.813630e+003,1.362805e+001
1.814595e+003,1.144086e+001
1.815559e+003,8.405884e+000
1.816523e+003,9.247070e+000
1.817487e+003,1.462054e+001
1.818452e+003,1.683179e+001
1.819416e+003,1.436194e+001
1.820380e+003,1.286084e+001
1.821344e+003,1.433447e+001
1.822309e+003,1.591919e+001
1.823273e+003,1.621216e+001
1.824237e+003,1.594983e+001
1.825201e+003,1.570227e+001
1.826166e+003,1.529962e+001
1.827130e+003,1.401459e+001
1.828094e+003,1.170105e+001
1.829058e+003,1.046899e+001
1.830022e+003,1.195752e+001
1.830987e+003,1.388873e+001
1.831951e+003,1.426306e+001
1.832915e+003,1.402740e+001
1.833879e+003,1.470544e+001
1.834844e+003,1.592889e+001
1.835808e+003,1.606049e+001
1.836772e+003,1.510620e+001
1.837736e+003,1.552362e+001
1.838700e+003,1.832751e+001
1.839665e+003,2.092517e+001
1.840629e+003,2.108374e+001
1.841593e+003,1.947357e+001
1.842557e+003,1.686694e+001
1.843522e+003,1.330768e+001
1.844486e+003,1.324255e+001
1.845450e+003,2.029620e+001
1.846414e+003,2.448254e+001
1.847379e+003,2.383521e+001
1.848343e+003,2.216919e+001
1.849307e+003,1.977618e+001
1.850271e+003,1.788165e+001
1.851236e+003,1.824112e+001
1.852200e+003,1.926666e+001
1.853164e+003,1.767566e+001
1.854128e+003,1.411838e+001
1.855093e+003,1.266238e+001
1.856057e+003,1.487836e+001
1.857021e+003,1.801871e+001
1.857985e+003,1.971341e+001
1.858949e+003,2.056635e+001
1.859914e+003,2.188965e+001
1.860878e+003,2.349319e+001
1.861842e+003,2.378177e+001
1.862806e+003,2.263373e+001
1.863771e+003,2.117856e+001
1.864735e+003,1.929636e+001
1.865699e+003,1.793201e+001
1.866663e+003,1.765051e+001
1.867627e+003,1.818265e+001
1.868592e+003,1.952548e+001
1.869556e+003,2.090131e+001
1.870520e+003,2.132608e+001
1.871484e+003,2.084158e+001
1.872449e+003,1.964539e+001
1.873413e+003,1.786328e+001
1.874377e+003,1.780234e+001
1.875341e+003,2.076202e+001
1.876306e+003,2.352240e+001
1.877270e+003,2.442429e+001
1.878234e+003,2.410495e+001
1.879198e+003,2.274194e+001
1.880163e+003,2.109802e+001
1.881127e+003,2.026456e+001
1.882091e+003,2.043243e+001
1.883055e+003,2.130286e+001
1.884020e+003,2.268820e+001
1.884984e+003,2.461319e+001
1.885948e+003,2.718378e+001
1.886912e+003,2.947632e+001
1.887876e+003,2.963461e+001
1.888841e+003,2.779474e+001
1.889805e+003,2.464490e+001
1.890769e+003,1.915823e+001
1.891733e+003,1.839804e+001
1.892698e+003,2.543561e+001
1.893662e+003,3.081836e+001
1.894626e+003,3.056357e+001
1.895590e+003,2.894714e+001
1.896554e+003,2.876752e+001
1.897519e+003,2.922934e+001
1.898483e+003,2.918521e+001
1.899447e+003,2.855389e+001
1.900411e+003,2.790710e+001
1.901376e+003,2.741824e+001
1.902340e+003,2.711310e+001
1.903304e+003,2.674622e+001
1.904268e+003,2.686209e+001
1.905233e+003,2.862735e+001
1.906197e+003,3.044000e+001
1.907161e+003,3.019855e+001
1.908125e+003,2.911758e+001
1.909090e+003,2.936902e+001
1.910054e+003,3.080493e+001
1.911018e+003,3.221616e+001
1.911982e+003,3.321713e+001
1.912947e+003,3.365118e+001
1.913911e+003,3.333072e+001
1.914875e+003,3.295901e+001
1.915839e+003,3.351678e+001
1.916803e+003,3.478003e+001
1.917768e+003,3.706668e+001
1.918732e+003,4.120456e+001
1.919696e+003,4.173157e+001
1.920660e+003,3.674326e+001
1.921625e+003,3.391995e+001
1.922589e+003,3.607257e+001
1.923553e+003,3.840186e+001
1.924517e+003,3.794644e+001
1.925481e+003,3.705710e+001
1.926446e+003,3.821893e+001
1.927410e+003,4.031039e+001
1.928374e+003,4.084012e+001
1.929338e+003,3.961139e+001
1.930303e+003,3.854272e+001
1.931267e+003,3.842648e+001
1.932231e+003,3.873099e+001
1.933195e+003,3.875195e+001
1.934160e+003,3.910153e+001
1.935124e+003,4.123581e+001
1.936088e+003,4.299670e+001
1.937052e+003,4.104730e+001
1.938017e+003,3.725412e+001
1.938981e+003,3.590402e+001
1.939945e+003,3.732556e+001
1.940909e+003,3.878812e+001
1.941874e+003,3.898788e+001
1.942838e+003,3.908960e+001
1.943802e+003,4.042896e+001
1.944766e+003,4.240927e+001
1.945730e+003,4.330453e+001
1.946695e+003,4.308508e+001
1.947659e+003,4.296152e+001
1.948623e+003,4.290640e+001
1.949587e+003,4.246588e+001
1.950552e+003,4.163422e+001
1.951516e+003,4.075217e+001
1.952480e+003,3.963138e+001
1.953444e+003,3.911401e+001
1.954408e+003,4.008072e+001
1.955373e+003,4.137607e+001
1.956337e+003,4.147180e+001
1.957301e+003,4.103723e+001
1.958265e+003,4.169565e+001
1.959230e+003,4.370294e+001
1.960194e+003,4.518518e+001
1.961158e+003,4.531277e+001
1.962122e+003,4.492917e+001
1.963087e+003,4.346448e+001
1.964051e+003,4.262793e+001
1.965015e+003,4.359518e+001
1.965979e+003,4.594995e+001
1.966944e+003,5.086096e+001
1.967908e+003,5.553476e+001
1.968872e+003,5.392227e+001
1.969836e+003,4.729443e+001
1.970801e+003,4.456061e+001
1.971765e+003,4.925406e+001
1.972729e+003,5.446875e+001
1.973693e+003,5.417352e+001
1.974657e+003,5.172958e+001
1.975622e+003,5.205624e+001
1.976586e+003,5.406677e+001
1.977550e+003,5.519519e+001
1.978514e+003,5.556656e+001
1.979479e+003,5.580444e+001
1.980443e+003,5.594879e+001
1.981407e+003,5.581723e+001
1.982371e+003,5.541531e+001
1.983335e+003,5.525311e+001
1.984300e+003,5.556573e+001
1.985264e+003,5.616129e+001
1.986228e+003,5.698059e+001
1.987192e+003,5.791956e+001
1.988157e+003,5.849887e+001
1.989121e+003,5.890445e+001
1.990085e+003,5.845532e+001
1.991049e+003,5.662024e+001
1.992014e+003,5.529092e+001
1.992978e+003,5.381293e+001
1.993942e+003,5.381177e+001
1.994906e+003,5.842728e+001
1.995871e+003,6.208347e+001
1.996835e+003,5.907092e+001
1.997799e+003,5.363388e+001
1.998763e+003,5.166537e+001
1.999728e+003,5.306970e+001
