5.003444e+002,4.960579e+001
5.013087e+002,5.165041e+001
5.022729e+002,5.051515e+001
5.032371e+002,4.721690e+001
5.042014e+002,4.511954e+001
5.051656e+002,4.410455e+001
5.061298e+002,4.368433e+001
5.070941e+002,4.346744e+001
5.080583e+002,4.351653e+001
5.090225e+002,4.299957e+001
5.099868e+002,4.148184e+001
5.109510e+002,4.003110e+001
5.119152e+002,3.906728e+001
5.128795e+002,3.861279e+001
5.138437e+002,3.885533e+001
5.148079e+002,4.084050e+001
5.157722e+002,4.268556e+001
5.167364e+002,4.375191e+001
5.177006e+002,4.381465e+001
5.186649e+002,4.289110e+001
5.196291e+002,4.013925e+001
5.205933e+002,3.718614e+001
5.215576e+002,3.583638e+001
5.225218e+002,3.613226e+001
5.234860e+002,3.732973e+001
5.244503e+002,3.825278e+001
5.254145e+002,3.902794e+001
5.263787e+002,3.883745e+001
5.273430e+002,3.693762e+001
5.283072e+002,3.457455e+001
5.292714e+002,3.367215e+001
5.302357e+002,3.550606e+001
5.311999e+002,3.556218e+001
5.321641e+002,3.206618e+001
5.331284e+002,2.808340e+001
5.340926e+002,2.590112e+001
5.350568e+002,2.635117e+001
5.360211e+002,2.785364e+001
5.369853e+002,3.001408e+001
5.379495e+002,3.200679e+001
5.389138e+002,3.288124e+001
5.398780e+002,3.234727e+001
5.408422e+002,3.098895e+001
5.418065e+002,3.060675e+001
5.427707e+002,3.098604e+001
5.437349e+002,3.023732e+001
5.446992e+002,2.744449e+001
5.456634e+002,2.342477e+001
5.466276e+002,2.109282e+001
5.475919e+002,2.210529e+001
5.485561e+002,2.311652e+001
5.495203e+002,2.405382e+001
5.504846e+002,2.481703e+001
5.514488e+002,2.535770e+001
5.524130e+002,2.576112e+001
5.533773e+002,2.578719e+001
5.543415e+002,2.493314e+001
5.553057e+002,2.392943e+001
5.562700e+002,2.365421e+001
5.572342e+002,2.461971e+001
5.581984e+002,2.604169e+001
5.591627e+002,2.618007e+001
5.601269e+002,2.544048e+001
5.610911e+002,2.418185e+001
5.620554e+002,2.249161e+001
5.630196e+002,2.047173e+001
5.639838e+002,1.942719e+001
5.649481e+002,2.007381e+001
5.659123e+002,2.064848e+001
5.668765e+002,2.126740e+001
5.678408e+002,2.176840e+001
5.688050e+002,2.142357e+001
5.697692e+002,1.879396e+001
5.707335e+002,1.676303e+001
5.716977e+002,1.667000e+001
5.726619e+002,1.757697e+001
5.736262e+002,1.827037e+001
5.745904e+002,1.797896e+001
5.755546e+002,1.704312e+001
5.765189e+002,1.541780e+001
5.774831e+002,1.360849e+001
5.784473e+002,1.282599e+001
5.794116e+002,1.392616e+001
5.803758e+002,1.674382e+001
5.813400e+002,1.835837e+001
5.823043e+002,1.872478e+001
5.832685e+002,1.823274e+001
5.842327e+002,1.647444e+001
5.851970e+002,1.381598e+001
5.861612e+002,1.227716e+001
5.871254e+002,1.306711e+001
5.880897e+002,1.393224e+001
5.890539e+002,1.452817e+001
5.900181e+002,1.485001e+001
5.909824e+002,1.499451e+001
5.919466e+002,1.498143e+001
5.929108e+002,1.499013e+001
5.938751e+002,1.552426e+001
5.948393e+002,1.613687e+001
5.958035e+002,1.600388e+001
5.967678e+002,1.455458e+001
5.977320e+002,1.211908e+001
5.986962e+002,1.104813e+001
5.996605e+002,1.117276e+001
6.006247e+002,1.146954e+001
6.015889e+002,1.139836e+001
6.025532e+002,1.102736e+001
6.035174e+002,1.120174e+001
6.044816e+002,1.299292e+001
6.054459e+002,1.420518e+001
6.064101e+002,1.426988e+001
6.073743e+002,1.356906e+001
6.083386e+002,1.283788e+001
6.093028e+002,1.247443e+001
6.102670e+002,1.214960e+001
6.112313e+002,1.126918e+001
6.121955e+002,1.032909e+001
6.131597e+002,1.018901e+001
6.141240e+002,1.139799e+001
6.150882e+002,1.334732e+001
6.160524e+002,1.327672e+001
6.170167e+002,1.159979e+001
6.179809e+002,9.653152e+000
6.189451e+002,7.742233e+000
6.199094e+002,5.942581e+000
6.208736e+002,5.162262e+000
6.218378e+002,7.117661e+000
6.228021e+002,8.327988e+000
6.237663e+002,7.931137e+000
6.247305e+002,6.780716e+000
6.256948e+002,6.252609e+000
6.266590e+002,6.941742e+000
6.276232e+002,7.985397e+000
6.285875e+002,9.101120e+000
6.295517e+002,1.015871e+001
6.305159e+002,1.098074e+001
6.314802e+002,1.145129e+001
6.324444e+002,1.161809e+001
6.334086e+002,1.180943e+001
6.343729e+002,1.200444e+001
6.353371e+002,1.169322e+001
6.363013e+002,1.058502e+001
6.372656e+002,8.922729e+000
6.382298e+002,7.640869e+000
6.391940e+002,6.889038e+000
6.401583e+002,6.356949e+000
6.411225e+002,6.175400e+000
6.420867e+002,6.306305e+000
6.430510e+002,6.798508e+000
6.440152e+002,7.848511e+000
6.449794e+002,8.295532e+000
6.459437e+002,7.133774e+000
6.469079e+002,5.561676e+000
6.478721e+002,4.614380e+000
6.488364e+002,4.612030e+000
6.498006e+002,4.863983e+000
6.507648e+002,3.686905e+000
6.517291e+002,1.827805e+000
6.526933e+002,1.420258e+000
6.536575e+002,2.929413e+000
6.546218e+002,5.347153e+000
6.555860e+002,6.729980e+000
6.565502e+002,6.344666e+000
6.575145e+002,6.388962e+000
6.584787e+002,7.592941e+000
6.594429e+002,8.614655e+000
6.604072e+002,8.035385e+000
6.613714e+002,5.441971e+000
6.623356e+002,3.565781e+000
6.632999e+002,4.541412e+000
6.642641e+002,5.727982e+000
6.652283e+002,5.780823e+000
6.661926e+002,4.687927e+000
6.671568e+002,3.294800e+000
6.681210e+002,2.352417e+000
6.690853e+002,2.051712e+000
6.700495e+002,3.123611e+000
6.710137e+002,5.437485e+000
6.719780e+002,7.307404e+000
6.729422e+002,6.783630e+000
6.739064e+002,3.138458e+000
6.748707e+002,1.316681e+000
6.758349e+002,2.456161e+000
6.767991e+002,3.507950e+000
6.777634e+002,2.812805e+000
6.787276e+002,7.494049e-001
6.796918e+002,-8.203125e-002
6.806561e+002,2.683060e+000
6.816203e+002,5.181961e+000
6.825845e+002,5.857788e+000
6.835488e+002,5.253036e+000
6.845130e+002,4.418381e+000
6.854772e+002,4.137100e+000
6.864415e+002,4.132324e+000
6.874057e+002,3.509933e+000
6.883699e+002,2.429825e+000
6.893342e+002,1.489395e+000
6.902984e+002,1.040710e+000
6.912626e+002,1.070663e+000
6.922269e+002,1.315216e+000
6.931911e+002,1.836853e+000
6.941553e+002,2.751053e+000
6.951196e+002,4.481461e+000
6.960838e+002,6.344208e+000
6.970480e+002,7.235886e+000
6.980123e+002,6.611908e+000
6.989765e+002,5.889755e+000
6.999407e+002,5.594864e+000
7.009050e+002,5.496353e+000
7.018692e+002,5.514084e+000
7.028334e+002,5.558289e+000
7.037977e+002,5.432861e+000
7.047619e+002,4.659424e+000
7.057261e+002,3.653152e+000
7.066904e+002,3.161240e+000
7.076546e+002,3.301575e+000
7.086188e+002,3.835434e+000
7.095831e+002,4.429657e+000
7.105473e+002,5.208740e+000
7.115115e+002,5.415482e+000
7.124758e+002,4.705704e+000
7.134400e+002,3.845459e+000
7.144042e+002,3.041580e+000
7.153685e+002,2.387039e+000
7.163327e+002,2.610947e+000
7.172969e+002,5.386627e+000
7.182612e+002,7.929718e+000
7.192254e+002,9.132339e+000
7.201896e+002,9.122849e+000
7.211539e+002,8.395081e+000
7.221181e+002,7.293076e+000
7.230823e+002,5.986679e+000
7.240466e+002,4.712357e+000
7.250108e+002,3.605347e+000
7.259750e+002,3.216232e+000
7.269393e+002,3.914597e+000
7.279035e+002,5.423340e+000
7.288677e+002,6.107117e+000
7.298320e+002,5.231979e+000
7.307962e+002,4.744263e+000
7.317604e+002,4.888550e+000
7.327247e+002,5.460587e+000
7.336889e+002,6.220795e+000
7.346531e+002,7.148727e+000
7.356174e+002,7.587830e+000
7.365816e+002,7.607758e+000
7.375458e+002,7.105072e+000
7.385101e+002,5.221832e+000
7.394743e+002,2.227234e+000
7.404385e+002,-5.783081e-003
7.414028e+002,2.003784e+000
7.423670e+002,6.953110e+000
7.433312e+002,9.072311e+000
7.442955e+002,7.934540e+000
7.452597e+002,5.756058e+000
7.462239e+002,5.003448e+000
7.471882e+002,6.109360e+000
7.481524e+002,6.640839e+000
7.491166e+002,6.156540e+000
7.500809e+002,5.491089e+000
7.510451e+002,4.838791e+000
7.520093e+002,4.258926e+000
7.529736e+002,3.815277e+000
7.539378e+002,3.553146e+000
7.549020e+002,3.678406e+000
7.558663e+002,4.725967e+000
7.568306e+002,6.013809e+000
7.577948e+002,6.298981e+000
7.587590e+002,4.912354e+000
7.597233e+002,2.835602e+000
7.606875e+002,3.784103e+000
7.616517e+002,7.362915e+000
7.626160e+002,9.608780e+000
7.635802e+002,9.299179e+000
7.645444e+002,7.392868e+000
7.655087e+002,5.753799e+000
7.664729e+002,4.257629e+000
7.674371e+002,3.355515e+000
7.684014e+002,3.199890e+000
7.693656e+002,3.363815e+000
7.703298e+002,3.445175e+000
7.712941e+002,3.476929e+000
7.722583e+002,4.158157e+000
7.732225e+002,6.829727e+000
7.741868e+002,9.560913e+000
7.751510e+002,1.105894e+001
7.761152e+002,1.130316e+001
7.770795e+002,1.037270e+001
7.780437e+002,8.297241e+000
7.790079e+002,5.349350e+000
7.799722e+002,4.384048e+000
7.809364e+002,5.543411e+000
7.819006e+002,6.379715e+000
7.828649e+002,5.485764e+000
7.838291e+002,3.624374e+000
7.847933e+002,3.391785e+000
7.857576e+002,6.308701e+000
7.867218e+002,8.156998e+000
7.876860e+002,7.666534e+000
7.886503e+002,6.512726e+000
7.896145e+002,6.053253e+000
7.905787e+002,6.650970e+000
7.915430e+002,7.575623e+000
7.925072e+002,8.061935e+000
7.934714e+002,8.300980e+000
7.944357e+002,8.868958e+000
7.953999e+002,9.665558e+000
7.963641e+002,9.805374e+000
7.973284e+002,8.170700e+000
7.982926e+002,4.576599e+000
7.992568e+002,3.064011e+000
8.002211e+002,4.336716e+000
8.011853e+002,5.491669e+000
8.021495e+002,5.402756e+000
8.031138e+002,4.548309e+000
8.040780e+002,4.328995e+000
8.050422e+002,5.236740e+000
8.060065e+002,6.203156e+000
8.069707e+002,7.003281e+000
8.079349e+002,7.520752e+000
8.088992e+002,7.542862e+000
8.098634e+002,7.095718e+000
8.108276e+002,6.693054e+000
8.117919e+002,7.253738e+000
8.127561e+002,8.113052e+000
8.137203e+002,8.118134e+000
8.146846e+002,7.230530e+000
8.156488e+002,6.035187e+000
8.166130e+002,5.156128e+000
8.175773e+002,4.568802e+000
8.185415e+002,4.321945e+000
8.195057e+002,4.087234e+000
8.204700e+002,4.345154e+000
8.214342e+002,5.814331e+000
8.223984e+002,7.902145e+000
8.233627e+002,8.948929e+000
8.243269e+002,7.826202e+000
8.252911e+002,6.795166e+000
8.262554e+002,7.420135e+000
8.272196e+002,8.629410e+000
8.281838e+002,9.437668e+000
8.291481e+002,9.417038e+000
8.301123e+002,8.693237e+000
8.310765e+002,7.305710e+000
8.320408e+002,5.345963e+000
8.330050e+002,4.070236e+000
8.339692e+002,3.632385e+000
8.349335e+002,3.688919e+000
8.358977e+002,4.160751e+000
8.368619e+002,5.259003e+000
8.378262e+002,5.522980e+000
8.387904e+002,3.091812e+000
8.397546e+002,1.814087e+000
8.407189e+002,3.926193e+000
8.416831e+002,7.548187e+000
8.426473e+002,9.092239e+000
8.436116e+002,6.546890e+000
8.445758e+002,3.487534e+000
8.455400e+002,3.669434e+000
8.465043e+002,5.373825e+000
8.474685e+002,7.133621e+000
8.484327e+002,8.458664e+000
8.493970e+002,9.447830e+000
8.503612e+002,1.017455e+001
8.513254e+002,1.060452e+001
8.522897e+002,1.037025e+001
8.532539e+002,8.896362e+000
8.542181e+002,7.485046e+000
8.551824e+002,6.910065e+000
8.561466e+002,7.204361e+000
8.571108e+002,8.023239e+000
8.580751e+002,9.486282e+000
8.590393e+002,1.087518e+001
8.600035e+002,1.229816e+001
8.609678e+002,1.349503e+001
8.619320e+002,1.405505e+001
8.628962e+002,1.384877e+001
8.638605e+002,1.338098e+001
8.648247e+002,1.338084e+001
8.657889e+002,1.370598e+001
8.667532e+002,1.421394e+001
8.677174e+002,1.488203e+001
8.686816e+002,1.536120e+001
8.696459e+002,1.520641e+001
8.706101e+002,1.433041e+001
8.715743e+002,1.381303e+001
8.725386e+002,1.325035e+001
8.735028e+002,1.350166e+001
8.744670e+002,1.517133e+001
8.754313e+002,1.761266e+001
8.763955e+002,1.986095e+001
8.773597e+002,2.181915e+001
8.783240e+002,2.293579e+001
8.792882e+002,2.223790e+001
8.802524e+002,2.095274e+001
8.812167e+002,2.005585e+001
8.821809e+002,1.979971e+001
8.831451e+002,1.994939e+001
8.841094e+002,2.024821e+001
8.850736e+002,2.072842e+001
8.860378e+002,2.090711e+001
8.870021e+002,2.064160e+001
8.879663e+002,2.043793e+001
8.889305e+002,2.065026e+001
8.898948e+002,2.113907e+001
8.908590e+002,2.123955e+001
8.918232e+002,2.029223e+001
8.927875e+002,2.019629e+001
8.937517e+002,2.217267e+001
8.947159e+002,2.446278e+001
8.956802e+002,2.541637e+001
8.966444e+002,2.473993e+001
8.976086e+002,2.360114e+001
8.985729e+002,2.288025e+001
8.995371e+002,2.295851e+001
9.005013e+002,2.474200e+001
9.014656e+002,2.785277e+001
9.024298e+002,3.027324e+001
9.033940e+002,3.028151e+001
9.043583e+002,2.827919e+001
9.053225e+002,2.805484e+001
9.062867e+002,3.259007e+001
9.072510e+002,3.484850e+001
9.082152e+002,3.359442e+001
9.091794e+002,3.089796e+001
9.101437e+002,2.839012e+001
9.111079e+002,2.630501e+001
9.120721e+002,2.503632e+001
9.130364e+002,2.538093e+001
9.140006e+002,2.605829e+001
9.149648e+002,2.636772e+001
9.159291e+002,2.652708e+001
9.168933e+002,2.719133e+001
9.178575e+002,2.875859e+001
9.188218e+002,3.067692e+001
9.197860e+002,3.094087e+001
9.207502e+002,2.947072e+001
9.217145e+002,2.851380e+001
9.226787e+002,2.901736e+001
9.236429e+002,2.990120e+001
9.246072e+002,2.943357e+001
9.255714e+002,2.715623e+001
9.265356e+002,2.562444e+001
9.274999e+002,2.576316e+001
9.284641e+002,2.608253e+001
9.294283e+002,2.631596e+001
9.303926e+002,2.637309e+001
9.313568e+002,2.628249e+001
9.323210e+002,2.607262e+001
9.332853e+002,2.548421e+001
9.342495e+002,2.333264e+001
9.352137e+002,2.066064e+001
9.361780e+002,1.941407e+001
9.371422e+002,2.004640e+001
9.381064e+002,2.148051e+001
9.390707e+002,2.228892e+001
9.400349e+002,2.242514e+001
9.409991e+002,2.162071e+001
9.419634e+002,1.832850e+001
9.429276e+002,1.614563e+001
9.438918e+002,1.717751e+001
9.448561e+002,1.956340e+001
9.458203e+002,1.982791e+001
9.467845e+002,1.658730e+001
9.477488e+002,1.352335e+001
9.487130e+002,1.347197e+001
9.496772e+002,1.465527e+001
9.506415e+002,1.626491e+001
9.516057e+002,1.786787e+001
9.525699e+002,1.897113e+001
9.535342e+002,1.908772e+001
9.544984e+002,1.827193e+001
9.554626e+002,1.718324e+001
9.564269e+002,1.598981e+001
9.573911e+002,1.451479e+001
9.583553e+002,1.177147e+001
9.593196e+002,9.081146e+000
9.602838e+002,9.073158e+000
9.612480e+002,1.266472e+001
9.622123e+002,1.534393e+001
9.631765e+002,1.516946e+001
9.641407e+002,1.452809e+001
9.651050e+002,1.424352e+001
9.660692e+002,1.436132e+001
9.670334e+002,1.469073e+001
9.679977e+002,1.515785e+001
9.689619e+002,1.579359e+001
9.699261e+002,1.651950e+001
9.708904e+002,1.728407e+001
9.718546e+002,1.811600e+001
9.728188e+002,1.895702e+001
9.737831e+002,2.001563e+001
9.747473e+002,2.189747e+001
9.757115e+002,2.504227e+001
9.766758e+002,2.670657e+001
9.776400e+002,2.612217e+001
9.786042e+002,2.511865e+001
9.795685e+002,2.368520e+001
9.805327e+002,2.214004e+001
9.814969e+002,2.091249e+001
9.824612e+002,2.020026e+001
9.834254e+002,1.974006e+001
9.843896e+002,1.970222e+001
9.853539e+002,1.932817e+001
9.863181e+002,1.731915e+001
9.872823e+002,1.394641e+001
9.882466e+002,1.088281e+001
9.892108e+002,9.647629e+000
9.901750e+002,1.003809e+001
9.911393e+002,9.889465e+000
9.921035e+002,8.479538e+000
9.930677e+002,7.275848e+000
9.940320e+002,6.426498e+000
9.949962e+002,5.872665e+000
9.959604e+002,5.608482e+000
9.969247e+002,5.633720e+000
9.978889e+002,5.799263e+000
9.988531e+002,5.864670e+000
9.998174e+002,6.096611e+000
1.000782e+003,7.065079e+000
1.001746e+003,8.257469e+000
1.002710e+003,8.832642e+000
1.003674e+003,8.458160e+000
1.004639e+003,7.646919e+000
1.005603e+003,7.356979e+000
1.006567e+003,7.616867e+000
1.007531e+003,6.913628e+000
1.008495e+003,4.651108e+000
1.009460e+003,2.668724e+000
1.010424e+003,2.473335e+000
1.011388e+003,3.544525e+000
1.012352e+003,3.536858e+000
1.013317e+003,1.157402e+000
1.014281e+003,-2.536392e-001
1.015245e+003,8.734283e-001
1.016209e+003,2.574074e+000
1.017174e+003,3.608757e+000
1.018138e+003,3.793449e+000
1.019102e+003,3.609497e+000
1.020066e+003,3.461197e+000
1.021031e+003,3.270714e+000
1.021995e+003,2.609200e+000
1.022959e+003,1.508934e+000
1.023923e+003,3.131256e-001
1.024887e+003,-1.050728e+000
1.025852e+003,-2.172356e+000
1.026816e+003,-2.300598e+000
1.027780e+003,-1.194092e+000
1.028744e+003,2.459717e-002
1.029709e+003,1.903534e+000
1.030673e+003,3.125076e+000
1.031637e+003,3.080383e+000
1.032601e+003,2.179047e+000
1.033566e+003,7.852478e-001
1.034530e+003,-9.104614e-001
1.035494e+003,-2.192108e+000
1.036458e+003,-2.037430e+000
1.037422e+003,-1.120827e+000
1.038387e+003,-5.458832e-001
1.039351e+003,-3.571091e-001
1.040315e+003,-1.623764e-001
1.041279e+003,4.375458e-001
1.042244e+003,1.224762e+000
1.043208e+003,8.588867e-001
1.044172e+003,-2.409157e+000
1.045136e+003,-3.851509e+000
1.046101e+003,-2.221962e+000
1.047065e+003,3.242493e-002
1.048029e+003,1.625832e+000
1.048993e+003,2.436569e+000
1.049958e+003,2.574379e+000
1.050922e+003,1.770042e+000
1.051886e+003,1.266693e+000
1.052850e+003,3.365158e+000
1.053814e+003,6.011200e+000
1.054779e+003,6.027855e+000
1.055743e+003,2.989532e+000
1.056707e+003,-6.046219e-001
1.057671e+003,-1.714531e+000
1.058636e+003,-3.346939e-001
1.059600e+003,3.267136e-001
1.060564e+003,-5.566177e-001
1.061528e+003,-7.551956e-001
1.062493e+003,5.572433e-001
1.063457e+003,2.214966e+000
1.064421e+003,3.067917e+000
1.065385e+003,3.002609e+000
1.066349e+003,2.343948e+000
1.067314e+003,6.377563e-001
1.068278e+003,-8.740616e-001
1.069242e+003,-1.074623e+000
1.070206e+003,-5.601273e-001
1.071171e+003,-4.222488e-001
1.072135e+003,-1.089775e+000
1.073099e+003,-1.920296e+000
1.074063e+003,-1.753250e+000
1.075028e+003,-4.390030e-001
1.075992e+003,4.121628e-001
1.076956e+003,7.449799e-001
1.077920e+003,7.273254e-001
1.078885e+003,1.572113e-001
1.079849e+003,-5.428162e-001
1.080813e+003,-5.669098e-001
1.081777e+003,3.106155e-001
1.082741e+003,1.252655e+000
1.083706e+003,2.006271e+000
1.084670e+003,2.415916e+000
1.085634e+003,2.362831e+000
1.086598e+003,1.884789e+000
1.087563e+003,8.944092e-001
1.088527e+003,-5.513382e-001
1.089491e+003,-1.847763e+000
1.090455e+003,-1.762718e+000
1.091420e+003,-1.521606e-001
1.092384e+003,1.056290e-001
1.093348e+003,-2.100555e+000
1.094312e+003,-3.724594e+000
1.095276e+003,-2.117432e+000
1.096241e+003,1.479446e+000
1.097205e+003,2.964378e+000
1.098169e+003,1.117172e+000
1.099133e+003,-8.195648e-001
1.100098e+003,-2.176041e+000
1.101062e+003,-2.687027e+000
1.102026e+003,-1.276413e+000
1.102990e+003,1.061592e+000
1.103955e+003,1.938423e+000
1.104919e+003,-6.316376e-002
1.105883e+003,-3.169609e+000
1.106847e+003,-3.306633e+000
1.107812e+003,-4.347687e-001
1.108776e+003,7.952423e-001
1.109740e+003,-4.236374e-001
1.110704e+003,-2.009979e+000
1.111668e+003,-2.396019e+000
1.112633e+003,-1.822929e+000
1.113597e+003,-1.541321e+000
1.114561e+003,-1.896111e+000
1.115525e+003,-2.119072e+000
1.116490e+003,-1.757530e+000
1.117454e+003,-1.419060e+000
1.118418e+003,-1.634720e+000
1.119382e+003,-2.140465e+000
1.120347e+003,-2.139046e+000
1.121311e+003,-1.198318e+000
1.122275e+003,-1.804504e-001
1.123239e+003,-9.745255e-001
1.124203e+003,-3.273010e+000
1.125168e+003,-4.031578e+000
1.126132e+003,-2.399857e+000
1.127096e+003,-8.140488e-001
1.128060e+003,-1.546059e+000
1.129025e+003,-4.014694e+000
1.129989e+003,-5.260506e+000
1.130953e+003,-4.598839e+000
1.131917e+003,-3.865654e+000
1.132882e+003,-3.388863e+000
1.133846e+003,-3.113487e+000
1.134810e+003,-3.010269e+000
1.135774e+003,-3.073692e+000
1.136739e+003,-3.499611e+000
1.137703e+003,-4.378868e+000
1.138667e+003,-5.050041e+000
1.139631e+003,-4.117226e+000
1.140595e+003,-1.794678e+000
1.141560e+003,-1.464767e-001
1.142524e+003,6.497192e-001
1.143488e+003,1.259216e+000
1.144452e+003,2.262497e+000
1.145417e+003,3.417366e+000
1.146381e+003,3.771439e+000
1.147345e+003,2.914856e+000
1.148309e+003,2.190231e+000
1.149274e+003,1.564323e+000
1.150238e+003,1.550232e+000
1.151202e+003,2.613609e+000
1.152166e+003,4.490417e+000
1.153130e+003,6.828812e+000
1.154095e+003,9.351852e+000
1.155059e+003,1.164743e+001
1.156023e+003,1.342546e+001
1.156987e+003,1.440973e+001
1.157952e+003,1.304559e+001
1.158916e+003,8.935295e+000
1.159880e+003,5.283661e+000
1.160844e+003,3.764809e+000
1.161809e+003,3.679153e+000
1.162773e+003,3.845757e+000
1.163737e+003,4.511093e+000
1.164701e+003,4.304405e+000
1.165666e+003,1.705223e+000
1.166630e+003,-5.463715e-001
1.167594e+003,-1.188667e+000
1.168558e+003,-9.846725e-001
1.169522e+003,-9.380417e-001
1.170487e+003,-1.418930e+000
1.171451e+003,-2.261574e+000
1.172415e+003,-3.383255e+000
1.173379e+003,-4.623634e+000
1.174344e+003,-4.856995e+000
1.175308e+003,-3.974892e+000
1.176272e+003,-3.653763e+000
1.177236e+003,-4.916542e+000
1.178201e+003,-6.595772e+000
1.179165e+003,-7.195267e+000
1.180129e+003,-6.743919e+000
1.181093e+003,-6.233414e+000
1.182057e+003,-5.475990e+000
1.183022e+003,-5.236427e+000
1.183986e+003,-6.433617e+000
1.184950e+003,-7.758957e+000
1.185914e+003,-7.725662e+000
1.186879e+003,-6.409546e+000
1.187843e+003,-5.018501e+000
1.188807e+003,-4.532539e+000
1.189771e+003,-4.983727e+000
1.190736e+003,-6.789429e+000
1.191700e+003,-1.023734e+001
1.192664e+003,-1.177625e+001
1.193628e+003,-9.859749e+000
1.194593e+003,-7.538208e+000
1.195557e+003,-7.034744e+000
1.196521e+003,-7.901176e+000
1.197485e+003,-8.571709e+000
1.198449e+003,-8.821503e+000
1.199414e+003,-8.826744e+000
1.200378e+003,-8.694298e+000
1.201342e+003,-8.318718e+000
1.202306e+003,-7.299721e+000
1.203271e+003,-6.065460e+000
1.204235e+003,-5.394035e+000
1.205199e+003,-5.659096e+000
1.206163e+003,-6.569611e+000
1.207128e+003,-7.654350e+000
1.208092e+003,-8.899330e+000
1.209056e+003,-1.093388e+001
1.210020e+003,-1.504146e+001
1.210984e+003,-1.734451e+001
1.211949e+003,-1.537508e+001
1.212913e+003,-1.188106e+001
1.213877e+003,-1.030428e+001
1.214841e+003,-1.085678e+001
1.215806e+003,-1.196640e+001
1.216770e+003,-1.343961e+001
1.217734e+003,-1.471109e+001
1.218698e+003,-1.566177e+001
1.219663e+003,-1.614441e+001
1.220627e+003,-1.574557e+001
1.221591e+003,-1.457433e+001
1.222555e+003,-1.331286e+001
1.223520e+003,-1.257178e+001
1.224484e+003,-1.231671e+001
1.225448e+003,-1.248465e+001
1.226412e+003,-1.342682e+001
1.227376e+003,-1.403125e+001
1.228341e+003,-1.413678e+001
1.229305e+003,-1.413607e+001
1.230269e+003,-1.431377e+001
1.231233e+003,-1.452168e+001
1.232198e+003,-1.430902e+001
1.233162e+003,-1.350357e+001
1.234126e+003,-1.287820e+001
1.235090e+003,-1.331994e+001
1.236055e+003,-1.396577e+001
1.237019e+003,-1.380968e+001
1.237983e+003,-1.309118e+001
1.238947e+003,-1.231312e+001
1.239911e+003,-1.167387e+001
1.240876e+003,-1.154720e+001
1.241840e+003,-1.267992e+001
1.242804e+003,-1.519028e+001
1.243768e+003,-1.670473e+001
1.244733e+003,-1.653793e+001
1.245697e+003,-1.617622e+001
1.246661e+003,-1.584113e+001
1.247625e+003,-1.533627e+001
1.248590e+003,-1.426671e+001
1.249554e+003,-1.283212e+001
1.250518e+003,-1.170348e+001
1.251482e+003,-1.121244e+001
1.252447e+003,-1.104978e+001
1.253411e+003,-1.076530e+001
1.254375e+003,-1.052638e+001
1.255339e+003,-1.082916e+001
1.256303e+003,-1.164137e+001
1.257268e+003,-1.233308e+001
1.258232e+003,-1.256091e+001
1.259196e+003,-1.256004e+001
1.260160e+003,-1.296939e+001
1.261125e+003,-1.403559e+001
1.262089e+003,-1.363852e+001
1.263053e+003,-9.150291e+000
1.264017e+003,-6.342873e+000
1.264982e+003,-7.814552e+000
1.265946e+003,-1.058079e+001
1.266910e+003,-1.190431e+001
1.267874e+003,-1.161102e+001
1.268839e+003,-1.109071e+001
1.269803e+003,-1.125130e+001
1.270767e+003,-1.178127e+001
1.271731e+003,-1.222958e+001
1.272695e+003,-1.249913e+001
1.273660e+003,-1.168988e+001
1.274624e+003,-9.238075e+000
1.275588e+003,-7.381485e+000
1.276552e+003,-7.704872e+000
1.277517e+003,-9.165413e+000
1.278481e+003,-9.851051e+000
1.279445e+003,-9.625343e+000
1.280409e+003,-9.380310e+000
1.281374e+003,-9.155235e+000
1.282338e+003,-9.305595e+000
1.283302e+003,-1.015802e+001
1.284266e+003,-1.136260e+001
1.285230e+003,-1.295772e+001
1.286195e+003,-1.457439e+001
1.287159e+003,-1.499581e+001
1.288123e+003,-1.318548e+001
1.289087e+003,-1.011185e+001
1.290052e+003,-8.866158e+000
1.291016e+003,-1.012562e+001
1.291980e+003,-1.104507e+001
1.292944e+003,-1.147192e+001
1.293909e+003,-1.187857e+001
1.294873e+003,-1.257247e+001
1.295837e+003,-1.320245e+001
1.296801e+003,-1.306402e+001
1.297766e+003,-1.216685e+001
1.298730e+003,-1.181492e+001
1.299694e+003,-1.309360e+001
1.300658e+003,-1.448717e+001
1.301622e+003,-1.394597e+001
1.302587e+003,-1.249903e+001
1.303551e+003,-1.197287e+001
1.304515e+003,-1.257121e+001
1.305479e+003,-1.276762e+001
1.306444e+003,-1.113882e+001
1.307408e+003,-8.551765e+000
1.308372e+003,-8.091843e+000
1.309336e+003,-1.074715e+001
1.310301e+003,-1.249595e+001
1.311265e+003,-1.269303e+001
1.312229e+003,-1.247964e+001
1.313193e+003,-1.186678e+001
1.314157e+003,-1.122092e+001
1.315122e+003,-1.093465e+001
1.316086e+003,-1.101445e+001
1.317050e+003,-1.107641e+001
1.318014e+003,-1.082319e+001
1.318979e+003,-1.064758e+001
1.319943e+003,-1.158913e+001
1.320907e+003,-1.336915e+001
1.321871e+003,-1.365766e+001
1.322836e+003,-1.199239e+001
1.323800e+003,-1.039742e+001
1.324764e+003,-1.000294e+001
1.325728e+003,-1.029332e+001
1.326693e+003,-1.040291e+001
1.327657e+003,-1.032702e+001
1.328621e+003,-1.057983e+001
1.329585e+003,-1.168843e+001
1.330549e+003,-1.218623e+001
1.331514e+003,-1.093996e+001
1.332478e+003,-9.325340e+000
1.333442e+003,-8.622871e+000
1.334406e+003,-8.793076e+000
1.335371e+003,-9.123428e+000
1.336335e+003,-9.170242e+000
1.337299e+003,-9.018051e+000
1.338263e+003,-8.819023e+000
1.339228e+003,-8.529137e+000
1.340192e+003,-8.601715e+000
1.341156e+003,-9.789772e+000
1.342120e+003,-1.022244e+001
1.343084e+003,-8.903603e+000
1.344049e+003,-7.474297e+000
1.345013e+003,-7.303986e+000
1.345977e+003,-8.139786e+000
1.346941e+003,-9.061790e+000
1.347906e+003,-9.776192e+000
1.348870e+003,-1.005556e+001
1.349834e+003,-9.379997e+000
1.350798e+003,-8.415634e+000
1.351763e+003,-8.511848e+000
1.352727e+003,-9.467468e+000
1.353691e+003,-1.014639e+001
1.354655e+003,-1.012401e+001
1.355620e+003,-9.729347e+000
1.356584e+003,-9.342430e+000
1.357548e+003,-8.921104e+000
1.358512e+003,-8.106606e+000
1.359476e+003,-6.503235e+000
1.360441e+003,-5.692497e+000
1.361405e+003,-6.709221e+000
1.362369e+003,-7.846390e+000
1.363333e+003,-8.550041e+000
1.364298e+003,-8.713028e+000
1.365262e+003,-8.106682e+000
1.366226e+003,-6.847252e+000
1.367190e+003,-5.492928e+000
1.368155e+003,-4.524109e+000
1.369119e+003,-4.066124e+000
1.370083e+003,-4.615181e+000
1.371047e+003,-6.662369e+000
1.372011e+003,-7.397667e+000
1.372976e+003,-5.601913e+000
1.373940e+003,-4.273674e+000
1.374904e+003,-4.741570e+000
1.375868e+003,-6.080582e+000
1.376833e+003,-7.429482e+000
1.377797e+003,-8.574165e+000
1.378761e+003,-8.945518e+000
1.379725e+003,-8.056099e+000
1.380690e+003,-7.078445e+000
1.381654e+003,-7.594437e+000
1.382618e+003,-8.565582e+000
1.383582e+003,-8.374985e+000
1.384547e+003,-7.106216e+000
1.385511e+003,-6.104187e+000
1.386475e+003,-6.086227e+000
1.387439e+003,-6.577492e+000
1.388403e+003,-6.953880e+000
1.389368e+003,-7.219376e+000
1.390332e+003,-7.072052e+000
1.391296e+003,-5.830292e+000
1.392260e+003,-5.512642e+000
1.393225e+003,-7.787689e+000
1.394189e+003,-9.734612e+000
1.395153e+003,-9.445686e+000
1.396117e+003,-7.826714e+000
1.397082e+003,-6.170914e+000
1.398046e+003,-5.031837e+000
1.399010e+003,-4.615318e+000
1.399974e+003,-5.175606e+000
1.400938e+003,-6.382385e+000
1.401903e+003,-7.043381e+000
1.402867e+003,-6.928268e+000
1.403831e+003,-6.555138e+000
1.404795e+003,-5.957306e+000
1.405760e+003,-5.193481e+000
1.406724e+003,-3.955147e+000
1.407688e+003,-2.951172e+000
1.408652e+003,-3.146759e+000
1.409617e+003,-4.313416e+000
1.410581e+003,-5.101295e+000
1.411545e+003,-4.882439e+000
1.412509e+003,-4.728745e+000
1.413474e+003,-6.240891e+000
1.414438e+003,-8.164230e+000
1.415402e+003,-7.967941e+000
1.416366e+003,-5.956261e+000
1.417330e+003,-4.572845e+000
1.418295e+003,-4.911201e+000
1.419259e+003,-5.626686e+000
1.420223e+003,-5.023232e+000
1.421187e+003,-3.408249e+000
1.422152e+003,-2.619331e+000
1.423116e+003,-2.946007e+000
1.424080e+003,-3.077454e+000
1.425044e+003,-2.338242e+000
1.426009e+003,-1.792542e+000
1.426973e+003,-1.850410e+000
1.427937e+003,-2.372192e+000
1.428901e+003,-3.469261e+000
1.429865e+003,-4.829239e+000
1.430830e+003,-5.519966e+000
1.431794e+003,-4.970001e+000
1.432758e+003,-3.870300e+000
1.433722e+003,-3.521317e+000
1.434687e+003,-3.898857e+000
1.435651e+003,-4.372375e+000
1.436615e+003,-5.761040e+000
1.437579e+003,-6.346230e+000
1.438544e+003,-5.114990e+000
1.439508e+003,-3.870125e+000
1.440472e+003,-4.019234e+000
1.441436e+003,-4.905991e+000
1.442401e+003,-5.105545e+000
1.443365e+003,-4.341667e+000
1.444329e+003,-3.618973e+000
1.445293e+003,-3.687874e+000
1.446257e+003,-4.124046e+000
1.447222e+003,-4.074577e+000
1.448186e+003,-3.688683e+000
1.449150e+003,-3.843689e+000
1.450114e+003,-4.811775e+000
1.451079e+003,-5.578720e+000
1.452043e+003,-5.731125e+000
1.453007e+003,-5.261902e+000
1.453971e+003,-3.767952e+000
1.454936e+003,-1.514839e+000
1.455900e+003,-3.440475e-001
1.456864e+003,-8.017807e-001
1.457828e+003,-1.696724e+000
1.458792e+003,-2.821465e+000
1.459757e+003,-3.740364e+000
1.460721e+003,-4.088371e+000
1.461685e+003,-3.954414e+000
1.462649e+003,-3.340576e+000
1.463614e+003,-2.324745e+000
1.464578e+003,-1.604103e+000
1.465542e+003,-1.852112e+000
1.466506e+003,-2.801521e+000
1.467471e+003,-3.765152e+000
1.468435e+003,-4.886444e+000
1.469399e+003,-5.010040e+000
1.470363e+003,-2.963615e+000
1.471328e+003,-1.618645e+000
1.472292e+003,-2.178017e+000
1.473256e+003,-3.175499e+000
1.474220e+003,-3.536430e+000
1.475184e+003,-3.385895e+000
1.476149e+003,-3.359390e+000
1.477113e+003,-3.642593e+000
1.478077e+003,-3.704865e+000
1.479041e+003,-2.969643e+000
1.480006e+003,-1.757530e+000
1.480970e+003,-1.234344e+000
1.481934e+003,-1.524071e+000
1.482898e+003,-2.298820e+000
1.483863e+003,-4.722847e+000
1.484827e+003,-5.965988e+000
1.485791e+003,-4.201775e+000
1.486755e+003,-1.803230e+000
1.487719e+003,-7.813721e-001
1.488684e+003,-1.081429e+000
1.489648e+003,-2.252823e+000
1.490612e+003,-4.049530e+000
1.491576e+003,-5.005020e+000
1.492541e+003,-3.738365e+000
1.493505e+003,-1.246704e+000
1.494469e+003,7.362442e-001
1.495433e+003,2.091629e+000
1.496398e+003,1.735176e+000
1.497362e+003,-1.151649e+000
1.498326e+003,-3.290726e+000
1.499290e+003,-2.268867e+000
1.500255e+003,-6.790161e-002
1.501219e+003,4.669266e-001
1.502183e+003,-3.842239e-001
1.503147e+003,-4.535751e-001
1.504111e+003,8.262863e-001
1.505076e+003,2.426476e+000
1.506040e+003,3.970726e+000
1.507004e+003,5.355392e+000
1.507968e+003,6.511139e+000
1.508933e+003,7.451988e+000
1.509897e+003,8.111252e+000
1.510861e+003,8.570084e+000
1.511825e+003,9.359268e+000
1.512790e+003,1.090130e+001
1.513754e+003,1.272485e+001
1.514718e+003,1.387833e+001
1.515682e+003,1.433669e+001
1.516646e+003,1.529420e+001
1.517611e+003,1.716636e+001
1.518575e+003,1.890257e+001
1.519539e+003,2.000490e+001
1.520503e+003,2.114178e+001
1.521468e+003,2.317982e+001
1.522432e+003,2.515673e+001
1.523396e+003,2.573434e+001
1.524360e+003,2.477920e+001
1.525325e+003,2.287583e+001
1.526289e+003,2.042990e+001
1.527253e+003,1.814433e+001
1.528217e+003,1.742634e+001
1.529182e+003,1.834286e+001
1.530146e+003,1.773393e+001
1.531110e+003,1.400198e+001
1.532074e+003,1.169268e+001
1.533039e+003,1.238316e+001
1.534003e+003,1.273196e+001
1.534967e+003,1.131847e+001
1.535931e+003,8.923363e+000
1.536896e+003,5.857063e+000
1.537860e+003,2.803329e+000
1.538824e+003,1.263107e+000
1.539788e+003,1.895943e+000
1.540752e+003,3.235809e+000
1.541717e+003,3.403465e+000
1.542681e+003,2.664658e+000
1.543645e+003,2.652565e+000
1.544609e+003,4.040375e+000
1.545573e+003,4.522354e+000
1.546538e+003,2.646286e+000
1.547502e+003,1.656654e+000
1.548466e+003,3.725739e+000
1.549430e+003,6.550003e+000
1.550395e+003,7.764687e+000
1.551359e+003,7.516502e+000
1.552323e+003,7.073990e+000
1.553287e+003,6.902344e+000
1.554252e+003,6.613106e+000
1.555216e+003,5.867775e+000
1.556180e+003,4.750320e+000
1.557144e+003,3.311325e+000
1.558109e+003,1.566727e+000
1.559073e+003,4.877701e-001
1.560037e+003,6.589508e-002
1.561001e+003,2.224655e-001
1.561966e+003,1.410576e+000
1.562930e+003,2.851509e+000
1.563894e+003,3.910431e+000
1.564858e+003,4.569794e+000
1.565823e+003,4.719635e+000
1.566787e+003,4.398491e+000
1.567751e+003,4.623833e+000
1.568715e+003,6.242188e+000
1.569679e+003,7.859795e+000
1.570644e+003,7.411797e+000
1.571608e+003,5.598412e+000
1.572572e+003,4.555099e+000
1.573536e+003,4.382553e+000
1.574500e+003,4.521019e+000
1.575465e+003,4.779480e+000
1.576429e+003,5.275276e+000
1.577393e+003,6.337959e+000
1.578357e+003,7.567146e+000
1.579322e+003,8.354980e+000
1.580286e+003,8.633072e+000
1.581250e+003,7.819450e+000
1.582214e+003,5.219986e+000
1.583179e+003,3.483391e+000
1.584143e+003,5.446449e+000
1.585107e+003,8.492821e+000
1.586071e+003,8.871361e+000
1.587036e+003,7.478188e+000
1.588000e+003,7.166634e+000
1.588964e+003,8.604507e+000
1.589928e+003,9.520805e+000
1.590893e+003,7.762520e+000
1.591857e+003,5.295105e+000
1.592821e+003,5.299271e+000
1.593785e+003,7.361038e+000
1.594750e+003,9.133102e+000
1.595714e+003,1.038987e+001
1.596678e+003,1.074815e+001
1.597642e+003,9.285568e+000
1.598606e+003,8.033958e+000
1.599571e+003,9.141853e+000
1.600535e+003,1.112078e+001
1.601499e+003,1.194496e+001
1.602463e+003,1.166542e+001
1.603427e+003,1.152692e+001
1.604392e+003,1.202285e+001
1.605356e+003,1.292390e+001
1.606320e+003,1.444580e+001
1.607284e+003,1.605731e+001
1.608249e+003,1.596355e+001
1.609213e+003,1.409313e+001
1.610177e+003,1.272504e+001
1.611141e+003,1.223677e+001
1.612106e+003,1.226758e+001
1.613070e+003,1.339049e+001
1.614034e+003,1.426864e+001
1.614998e+003,1.323218e+001
1.615963e+003,1.156345e+001
1.616927e+003,1.176289e+001
1.617891e+003,1.395150e+001
1.618855e+003,1.592532e+001
1.619820e+003,1.640037e+001
1.620784e+003,1.580350e+001
1.621748e+003,1.424777e+001
1.622712e+003,1.216574e+001
1.623677e+003,1.221075e+001
1.624641e+003,1.491010e+001
1.625605e+003,1.671997e+001
1.626569e+003,1.626960e+001
1.627533e+003,1.559311e+001
1.628498e+003,1.556098e+001
1.629462e+003,1.595255e+001
1.630426e+003,1.706204e+001
1.631390e+003,1.829542e+001
1.632354e+003,1.813880e+001
1.633319e+003,1.642799e+001
1.634283e+003,1.520433e+001
1.635247e+003,1.608218e+001
1.636211e+003,1.794360e+001
1.637176e+003,1.879862e+001
1.638140e+003,1.874234e+001
1.639104e+003,1.901708e+001
1.640068e+003,1.987548e+001
1.641033e+003,2.008615e+001
1.641997e+003,1.876044e+001
1.642961e+003,1.761727e+001
1.643925e+003,1.803982e+001
1.644890e+003,1.860505e+001
1.645854e+003,1.748869e+001
1.646818e+003,1.534069e+001
1.647782e+003,1.420390e+001
1.648747e+003,1.465736e+001
1.649711e+003,1.544003e+001
1.650675e+003,1.559255e+001
1.651639e+003,1.532253e+001
1.652604e+003,1.476771e+001
1.653568e+003,1.393798e+001
1.654532e+003,1.412498e+001
1.655496e+003,1.579767e+001
1.656460e+003,1.705953e+001
1.657425e+003,1.749855e+001
1.658389e+003,1.725278e+001
1.659353e+003,1.583759e+001
1.660317e+003,1.425317e+001
1.661281e+003,1.345560e+001
1.662246e+003,1.344685e+001
1.663210e+003,1.415291e+001
1.664174e+003,1.550729e+001
1.665138e+003,1.649869e+001
1.666103e+003,1.621400e+001
1.667067e+003,1.505764e+001
1.668031e+003,1.360565e+001
1.668995e+003,1.194692e+001
1.669960e+003,1.122563e+001
1.670924e+003,1.176085e+001
1.671888e+003,1.231097e+001
1.672852e+003,1.255664e+001
1.673817e+003,1.258382e+001
1.674781e+003,1.232713e+001
1.675745e+003,1.197967e+001
1.676709e+003,1.188805e+001
1.677674e+003,1.188732e+001
1.678638e+003,1.119695e+001
1.679602e+003,9.598640e+000
1.680566e+003,8.626022e+000
1.681531e+003,9.911003e+000
1.682495e+003,1.198547e+001
1.683459e+003,1.216196e+001
1.684423e+003,1.071980e+001
1.685387e+003,9.614944e+000
1.686352e+003,9.065102e+000
1.687316e+003,8.528389e+000
1.688280e+003,7.567482e+000
1.689244e+003,7.072113e+000
1.690208e+003,8.245499e+000
1.691173e+003,9.845558e+000
1.692137e+003,1.058312e+001
1.693101e+003,1.061257e+001
1.694065e+003,1.040101e+001
1.695030e+003,9.994118e+000
1.695994e+003,9.890381e+000
1.696958e+003,1.088532e+001
1.697922e+003,1.179137e+001
1.698887e+003,1.075867e+001
1.699851e+003,8.492638e+000
1.700815e+003,7.121643e+000
1.701779e+003,6.802246e+000
1.702744e+003,6.683601e+000
1.703708e+003,6.638344e+000
1.704672e+003,6.392563e+000
1.705636e+003,5.536232e+000
1.706601e+003,4.460938e+000
1.707565e+003,3.655312e+000
1.708529e+003,3.210327e+000
1.709493e+003,3.549889e+000
1.710458e+003,4.843285e+000
1.711422e+003,5.690514e+000
1.712386e+003,4.975212e+000
1.713350e+003,4.336525e+000
1.714314e+003,5.456177e+000
1.715279e+003,7.219208e+000
1.716243e+003,7.698761e+000
1.717207e+003,7.015190e+000
1.718171e+003,6.621109e+000
1.719135e+003,6.929581e+000
1.720100e+003,6.675369e+000
1.721064e+003,4.671181e+000
1.722028e+003,2.692863e+000
1.722992e+003,3.838638e+000
1.723957e+003,7.327621e+000
1.724921e+003,8.158798e+000
1.725885e+003,5.759979e+000
1.726849e+003,4.136841e+000
1.727814e+003,4.458244e+000
1.728778e+003,5.068993e+000
1.729742e+003,5.518852e+000
1.730706e+003,5.678154e+000
1.731671e+003,5.014214e+000
1.732635e+003,4.035538e+000
1.733599e+003,4.201965e+000
1.734563e+003,5.494316e+000
1.735528e+003,5.876366e+000
1.736492e+003,4.261353e+000
1.737456e+003,2.433594e+000
1.738420e+003,2.589973e+000
1.739385e+003,3.988853e+000
1.740349e+003,3.930672e+000
1.741313e+003,1.900085e+000
1.742277e+003,1.209717e+000
1.743241e+003,3.084915e+000
1.744206e+003,4.355339e+000
1.745170e+003,4.080437e+000
1.746134e+003,3.698608e+000
1.747098e+003,4.085121e+000
1.748063e+003,4.727783e+000
1.749027e+003,5.237366e+000
1.749991e+003,5.364906e+000
1.750955e+003,4.558022e+000
1.751919e+003,2.812164e+000
1.752884e+003,1.165085e+000
1.753848e+003,4.737015e-001
1.754812e+003,5.276489e-001
1.755776e+003,1.036751e+000
1.756741e+003,2.007996e+000
1.757705e+003,2.408752e+000
1.758669e+003,1.905708e+000
1.759633e+003,1.716431e+000
1.760598e+003,2.263885e+000
1.761562e+003,2.632675e+000
1.762526e+003,2.565163e+000
1.763490e+003,2.300293e+000
1.764455e+003,1.838768e+000
1.765419e+003,1.391029e+000
1.766383e+003,1.278740e+000
1.767347e+003,1.456543e+000
1.768312e+003,1.636742e+000
1.769276e+003,1.678986e+000
1.770240e+003,1.361115e+000
1.771204e+003,2.031937e-001
1.772168e+003,-1.116798e+000
1.773133e+003,-9.440231e-001
1.774097e+003,5.574875e-001
1.775061e+003,1.813080e+000
1.776025e+003,2.664444e+000
1.776990e+003,2.978683e+000
1.777954e+003,2.553833e+000
1.778918e+003,2.064186e+000
1.779882e+003,1.800034e+000
1.780846e+003,1.829956e+000
1.781811e+003,2.511787e+000
1.782775e+003,3.583359e+000
1.783739e+003,4.114418e+000
1.784703e+003,3.958176e+000
1.785668e+003,3.636406e+000
1.786632e+003,2.946274e+000
1.787596e+003,2.611351e+000
1.788560e+003,3.839043e+000
1.789525e+003,5.369400e+000
1.790489e+003,5.007256e+000
1.791453e+003,3.333092e+000
1.792417e+003,2.556808e+000
1.793382e+003,3.116951e+000
1.794346e+003,4.107086e+000
1.795310e+003,5.099632e+000
1.796274e+003,5.597771e+000
1.797239e+003,4.937035e+000
1.798203e+003,3.626328e+000
1.799167e+003,3.136055e+000
1.800131e+003,3.487083e+000
1.801095e+003,3.936951e+000
1.802060e+003,4.937225e+000
1.803024e+003,5.466011e+000
1.803988e+003,5.177475e+000
1.804952e+003,4.645935e+000
1.805917e+003,3.962273e+000
1.806881e+003,3.316414e+000
1.807845e+003,2.673332e+000
1.808809e+003,2.302078e+000
1.809773e+003,2.929527e+000
1.810738e+003,4.433510e+000
1.811702e+003,5.488403e+000
1.812666e+003,5.273445e+000
1.813630e+003,4.565910e+000
1.814595e+003,4.409027e+000
1.815559e+003,4.626572e+000
1.816523e+003,4.625687e+000
1.817487e+003,4.447975e+000
1.818452e+003,3.535172e+000
1.819416e+003,1.237900e+000
1.820380e+003,1.920090e-001
1.821344e+003,2.018524e+000
1.822309e+003,3.882332e+000
1.823273e+003,4.080681e+000
1.824237e+003,3.599556e+000
1.825201e+003,3.153519e+000
1.826166e+003,2.870552e+000
1.827130e+003,3.069664e+000
1.828094e+003,3.764595e+000
1.829058e+003,4.159088e+000
1.830022e+003,3.794052e+000
1.830987e+003,3.266823e+000
1.831951e+003,2.865814e+000
1.832915e+003,2.752136e+000
1.833879e+003,3.508095e+000
1.834844e+003,4.699577e+000
1.835808e+003,4.776527e+000
1.836772e+003,3.672386e+000
1.837736e+003,3.109894e+000
1.838700e+003,3.823509e+000
1.839665e+003,5.177452e+000
1.840629e+003,6.821457e+000
1.841593e+003,8.132332e+000
1.842557e+003,7.574287e+000
1.843522e+003,5.183311e+000
1.844486e+003,3.853310e+000
1.845450e+003,4.204979e+000
1.846414e+003,4.561066e+000
1.847379e+003,5.006805e+000
1.848343e+003,5.203056e+000
1.849307e+003,4.735786e+000
1.850271e+003,4.360489e+000
1.851236e+003,4.796783e+000
1.852200e+003,5.591743e+000
1.853164e+003,6.220085e+000
1.854128e+003,6.443176e+000
1.855093e+003,5.836700e+000
1.856057e+003,4.438545e+000
1.857021e+003,3.546524e+000
1.857985e+003,4.281151e+000
1.858949e+003,5.799660e+000
1.859914e+003,6.883629e+000
1.860878e+003,7.505035e+000
1.861842e+003,7.256065e+000
1.862806e+003,6.094078e+000
1.863771e+003,5.361397e+000
1.864735e+003,5.295288e+000
1.865699e+003,5.518951e+000
1.866663e+003,6.037750e+000
1.867627e+003,6.547379e+000
1.868592e+003,6.732552e+000
1.869556e+003,6.684677e+000
1.870520e+003,6.652901e+000
1.871484e+003,6.619003e+000
1.872449e+003,6.515259e+000
1.873413e+003,6.505539e+000
1.874377e+003,6.228218e+000
1.875341e+003,4.781792e+000
1.876306e+003,3.870560e+000
1.877270e+003,4.917694e+000
1.878234e+003,6.441406e+000
1.879198e+003,7.012375e+000
1.880163e+003,6.915337e+000
1.881127e+003,6.775002e+000
1.882091e+003,6.782501e+000
1.883055e+003,7.040405e+000
1.884020e+003,7.547462e+000
1.884984e+003,7.984833e+000
1.885948e+003,8.065582e+000
1.886912e+003,7.897995e+000
1.887876e+003,7.678253e+000
1.888841e+003,7.421158e+000
1.889805e+003,7.315392e+000
1.890769e+003,7.447258e+000
1.891733e+003,7.170563e+000
1.892698e+003,5.930084e+000
1.893662e+003,5.443085e+000
1.894626e+003,6.918800e+000
1.895590e+003,8.521294e+000
1.896554e+003,9.320297e+000
1.897519e+003,9.366112e+000
1.898483e+003,7.952904e+000
1.899447e+003,5.775284e+000
1.900411e+003,5.465607e+000
1.901376e+003,7.584862e+000
1.902340e+003,9.384193e+000
1.903304e+003,1.001783e+001
1.904268e+003,9.783241e+000
1.905233e+003,7.926224e+000
1.906197e+003,6.201332e+000
1.907161e+003,7.222122e+000
1.908125e+003,9.316254e+000
1.909090e+003,8.888878e+000
1.910054e+003,6.276085e+000
1.911018e+003,4.608658e+000
1.911982e+003,4.947563e+000
1.912947e+003,6.087936e+000
1.913911e+003,7.135139e+000
1.914875e+003,8.023544e+000
1.915839e+003,8.662544e+000
1.916803e+003,8.963814e+000
1.917768e+003,8.436203e+000
1.918732e+003,6.808319e+000
1.919696e+003,6.430191e+000
1.920660e+003,7.993568e+000
1.921625e+003,8.953728e+000
1.922589e+003,8.246552e+000
1.923553e+003,7.634674e+000
1.924517e+003,8.246162e+000
1.925481e+003,9.183006e+000
1.926446e+003,9.745064e+000
1.927410e+003,1.003266e+001
1.928374e+003,1.022082e+001
1.929338e+003,1.031614e+001
1.930303e+003,1.047960e+001
1.931267e+003,1.093340e+001
1.932231e+003,1.107637e+001
1.933195e+003,1.016654e+001
1.934160e+003,9.318375e+000
1.935124e+003,9.427933e+000
1.936088e+003,9.965569e+000
1.937052e+003,1.049659e+001
1.938017e+003,1.088000e+001
1.938981e+003,1.087421e+001
1.939945e+003,1.051112e+001
1.940909e+003,1.013734e+001
1.941874e+003,9.889648e+000
1.942838e+003,9.446686e+000
1.943802e+003,8.489418e+000
1.944766e+003,7.656906e+000
1.945730e+003,8.395325e+000
1.946695e+003,1.035869e+001
1.947659e+003,1.059026e+001
1.948623e+003,8.814651e+000
1.949587e+003,8.593010e+000
1.950552e+003,1.091141e+001
1.951516e+003,1.229508e+001
1.952480e+003,1.124050e+001
1.953444e+003,9.728622e+000
1.954408e+003,8.850792e+000
1.955373e+003,8.503387e+000
1.956337e+003,8.755844e+000
1.957301e+003,9.486320e+000
1.958265e+003,1.008582e+001
1.959230e+003,1.049226e+001
1.960194e+003,1.124081e+001
1.961158e+003,1.284714e+001
1.962122e+003,1.398995e+001
1.963087e+003,1.451965e+001
1.964051e+003,1.428784e+001
1.965015e+003,1.256036e+001
1.965979e+003,1.067932e+001
1.966944e+003,9.988777e+000
1.967908e+003,1.009412e+001
1.968872e+003,9.995209e+000
1.969836e+003,9.651947e+000
1.970801e+003,9.876877e+000
1.971765e+003,1.096989e+001
1.972729e+003,1.198025e+001
1.973693e+003,1.201049e+001
1.974657e+003,1.179405e+001
1.975622e+003,1.251269e+001
1.976586e+003,1.379416e+001
1.977550e+003,1.486689e+001
1.978514e+003,1.563520e+001
1.979479e+003,1.549346e+001
1.980443e+003,1.441090e+001
1.981407e+003,1.345808e+001
1.982371e+003,1.303395e+001
1.983335e+003,1.307248e+001
1.984300e+003,1.356058e+001
1.985264e+003,1.418161e+001
1.986228e+003,1.449073e+001
1.987192e+003,1.450709e+001
1.988157e+003,1.429897e+001
1.989121e+003,1.375491e+001
1.990085e+003,1.369253e+001
1.991049e+003,1.472884e+001
1.992014e+003,1.504150e+001
1.992978e+003,1.371524e+001
1.993942e+003,1.254712e+001
1.994906e+003,1.198043e+001
1.995871e+003,1.195557e+001
1.996835e+003,1.261652e+001
1.997799e+003,1.370811e+001
1.998763e+003,1.535669e+001
1.999728e+003,1.709121e+001
