5.003444e+002,2.061176e+001
5.013087e+002,2.032678e+001
5.022729e+002,1.903784e+001
5.032371e+002,1.745605e+001
5.042014e+002,1.639044e+001
5.051656e+002,1.586005e+001
5.061298e+002,1.542706e+001
5.070941e+002,1.449701e+001
5.080583e+002,1.248718e+001
5.090225e+002,1.212720e+001
5.099868e+002,1.408289e+001
5.109510e+002,1.635919e+001
5.119152e+002,1.821057e+001
5.128795e+002,1.964954e+001
5.138437e+002,2.041205e+001
5.148079e+002,2.025092e+001
5.157722e+002,1.979327e+001
5.167364e+002,1.908948e+001
5.177006e+002,1.804681e+001
5.186649e+002,1.646869e+001
5.196291e+002,1.386652e+001
5.205933e+002,1.172949e+001
5.215576e+002,1.140265e+001
5.225218e+002,1.253674e+001
5.234860e+002,1.397089e+001
5.244503e+002,1.411359e+001
5.254145e+002,1.312061e+001
5.263787e+002,1.172382e+001
5.273430e+002,9.037354e+000
5.283072e+002,6.527405e+000
5.292714e+002,6.250061e+000
5.302357e+002,8.935669e+000
5.311999e+002,1.105939e+001
5.321641e+002,1.317224e+001
5.331284e+002,1.498340e+001
5.340926e+002,1.603479e+001
5.350568e+002,1.591858e+001
5.360211e+002,1.468341e+001
5.369853e+002,1.179926e+001
5.379495e+002,9.161316e+000
5.389138e+002,8.317932e+000
5.398780e+002,9.739868e+000
5.408422e+002,1.267560e+001
5.418065e+002,1.596545e+001
5.427707e+002,1.938495e+001
5.437349e+002,2.071558e+001
5.446992e+002,1.879419e+001
5.456634e+002,1.457227e+001
5.466276e+002,1.157874e+001
5.475919e+002,1.173016e+001
5.485561e+002,1.117700e+001
5.495203e+002,8.802612e+000
5.504846e+002,5.608459e+000
5.514488e+002,3.227051e+000
5.524130e+002,2.657410e+000
5.533773e+002,2.762756e+000
5.543415e+002,3.188721e+000
5.553057e+002,3.656982e+000
5.562700e+002,3.507385e+000
5.572342e+002,2.301025e+000
5.581984e+002,9.901733e-001
5.591627e+002,3.285156e+000
5.601269e+002,7.797241e+000
5.610911e+002,1.077771e+001
5.620554e+002,1.003229e+001
5.630196e+002,5.968506e+000
5.639838e+002,3.861023e+000
5.649481e+002,5.676331e+000
5.659123e+002,6.626099e+000
5.668765e+002,5.985291e+000
5.678408e+002,4.518677e+000
5.688050e+002,3.701721e+000
5.697692e+002,3.630432e+000
5.707335e+002,3.227417e+000
5.716977e+002,2.661926e+000
5.726619e+002,1.788574e+000
5.736262e+002,1.791992e-001
5.745904e+002,-2.632019e+000
5.755546e+002,-5.082520e+000
5.765189e+002,-4.801758e+000
5.774831e+002,-3.220825e+000
5.784473e+002,-2.475952e+000
5.794116e+002,-3.822510e+000
5.803758e+002,-6.615051e+000
5.813400e+002,-6.051819e+000
5.823043e+002,-1.920471e+000
5.832685e+002,2.022644e+000
5.842327e+002,5.829956e+000
5.851970e+002,9.421692e+000
5.861612e+002,1.032330e+001
5.871254e+002,3.380676e+000
5.880897e+002,-1.742554e+000
5.890539e+002,-2.934753e+000
5.900181e+002,-1.380554e+000
5.909824e+002,1.270081e+000
5.919466e+002,5.148560e+000
5.929108e+002,7.474915e+000
5.938751e+002,4.112122e+000
5.948393e+002,-1.948120e+000
5.958035e+002,-5.908691e+000
5.967678e+002,-4.239258e+000
5.977320e+002,2.284363e+000
5.986962e+002,6.562439e+000
5.996605e+002,8.253174e+000
6.006247e+002,9.226685e+000
6.015889e+002,1.040771e+001
6.025532e+002,1.178064e+001
6.035174e+002,1.239655e+001
6.044816e+002,1.223083e+001
6.054459e+002,1.132074e+001
6.064101e+002,8.591614e+000
6.073743e+002,5.229614e+000
6.083386e+002,3.648132e+000
6.093028e+002,6.321899e+000
6.102670e+002,8.760986e+000
6.112313e+002,6.328491e+000
6.121955e+002,1.828613e+000
6.131597e+002,-9.477539e-001
6.141240e+002,5.520630e-001
6.150882e+002,5.047607e+000
6.160524e+002,7.337280e+000
6.170167e+002,8.023743e+000
6.179809e+002,9.258972e+000
6.189451e+002,1.256158e+001
6.199094e+002,1.700305e+001
6.208736e+002,1.703674e+001
6.218378e+002,6.165771e+000
6.228021e+002,-8.190308e-001
6.237663e+002,-6.153564e-001
6.247305e+002,3.871460e+000
6.256948e+002,7.982178e+000
6.266590e+002,1.013025e+001
6.276232e+002,1.002527e+001
6.285875e+002,6.960266e+000
6.295517e+002,3.200134e+000
6.305159e+002,8.164063e-001
6.314802e+002,8.464966e-001
6.324444e+002,2.515991e+000
6.334086e+002,6.032349e+000
6.343729e+002,1.065143e+001
6.353371e+002,1.181366e+001
6.363013e+002,6.984375e+000
6.372656e+002,-1.543762e+000
6.382298e+002,-5.098877e+000
6.391940e+002,2.428589e+000
6.401583e+002,6.929688e+000
6.411225e+002,7.268433e+000
6.420867e+002,5.933472e+000
6.430510e+002,5.473022e+000
6.440152e+002,6.282227e+000
6.449794e+002,7.165649e+000
6.459437e+002,8.028870e+000
6.469079e+002,8.403503e+000
6.478721e+002,8.048645e+000
6.488364e+002,6.959717e+000
6.498006e+002,5.303955e+000
6.507648e+002,2.384644e+000
6.517291e+002,-1.082031e+000
6.526933e+002,-2.928833e+000
6.536575e+002,-2.760803e+000
6.546218e+002,-9.227295e-001
6.555860e+002,2.160889e+000
6.565502e+002,8.332581e+000
6.575145e+002,1.121246e+001
6.584787e+002,8.314880e+000
6.594429e+002,4.637329e+000
6.604072e+002,4.620300e+000
6.613714e+002,9.316956e+000
6.623356e+002,1.306512e+001
6.632999e+002,1.152435e+001
6.642641e+002,9.206421e+000
6.652283e+002,8.728821e+000
6.661926e+002,1.041321e+001
6.671568e+002,1.292816e+001
6.681210e+002,1.469647e+001
6.690853e+002,1.549054e+001
6.700495e+002,1.526758e+001
6.710137e+002,1.415399e+001
6.719780e+002,1.333813e+001
6.729422e+002,1.416925e+001
6.739064e+002,1.708105e+001
6.748707e+002,1.789844e+001
6.758349e+002,1.513635e+001
6.767991e+002,1.245868e+001
6.777634e+002,1.176300e+001
6.787276e+002,1.316461e+001
6.796918e+002,1.522522e+001
6.806561e+002,1.846851e+001
6.816203e+002,2.013513e+001
6.825845e+002,1.807080e+001
6.835488e+002,1.397723e+001
6.845130e+002,1.052960e+001
6.854772e+002,9.758911e+000
6.864415e+002,1.123169e+001
6.874057e+002,1.346143e+001
6.883699e+002,1.576215e+001
6.893342e+002,1.761664e+001
6.902984e+002,1.889575e+001
6.912626e+002,1.965479e+001
6.922269e+002,1.935846e+001
6.931911e+002,1.732391e+001
6.941553e+002,1.643579e+001
6.951196e+002,1.752759e+001
6.960838e+002,1.891681e+001
6.970480e+002,1.783618e+001
6.980123e+002,1.243384e+001
6.989765e+002,8.553040e+000
6.999407e+002,9.137573e+000
7.009050e+002,1.126044e+001
7.018692e+002,1.248145e+001
7.028334e+002,1.200781e+001
7.037977e+002,1.132892e+001
7.047619e+002,1.391992e+001
7.057261e+002,1.819293e+001
7.066904e+002,1.983539e+001
7.076546e+002,1.812384e+001
7.086188e+002,1.511987e+001
7.095831e+002,1.417688e+001
7.105473e+002,1.638470e+001
7.115115e+002,1.630768e+001
7.124758e+002,1.207605e+001
7.134400e+002,7.631409e+000
7.144042e+002,5.507019e+000
7.153685e+002,5.950073e+000
7.163327e+002,7.004150e+000
7.172969e+002,9.029968e+000
7.182612e+002,1.042529e+001
7.192254e+002,9.305420e+000
7.201896e+002,6.840698e+000
7.211539e+002,5.525940e+000
7.221181e+002,7.585571e+000
7.230823e+002,1.190521e+001
7.240466e+002,1.570520e+001
7.250108e+002,1.932788e+001
7.259750e+002,2.243744e+001
7.269393e+002,2.445398e+001
7.279035e+002,2.499866e+001
7.288677e+002,2.473657e+001
7.298320e+002,2.400354e+001
7.307962e+002,2.382635e+001
7.317604e+002,2.477271e+001
7.327247e+002,2.622437e+001
7.336889e+002,2.701947e+001
7.346531e+002,2.619934e+001
7.356174e+002,2.408240e+001
7.365816e+002,2.046301e+001
7.375458e+002,1.765027e+001
7.385101e+002,1.771777e+001
7.394743e+002,2.092572e+001
7.404385e+002,2.568390e+001
7.414028e+002,2.996295e+001
7.423670e+002,3.246912e+001
7.433312e+002,3.136176e+001
7.442955e+002,2.665173e+001
7.452597e+002,2.350989e+001
7.462239e+002,2.894434e+001
7.471882e+002,4.682196e+001
7.481524e+002,5.494812e+001
7.491166e+002,4.634192e+001
7.500809e+002,3.661194e+001
7.510451e+002,3.115100e+001
7.520093e+002,2.949475e+001
7.529736e+002,2.816089e+001
7.539378e+002,2.597528e+001
7.549020e+002,2.438416e+001
7.558663e+002,2.463245e+001
7.568306e+002,2.569183e+001
7.577948e+002,2.580060e+001
7.587590e+002,2.384851e+001
7.597233e+002,2.062170e+001
7.606875e+002,1.938477e+001
7.616517e+002,2.024127e+001
7.626160e+002,2.245758e+001
7.635802e+002,2.669232e+001
7.645444e+002,3.156860e+001
7.655087e+002,3.384125e+001
7.664729e+002,3.165076e+001
7.674371e+002,3.050568e+001
7.684014e+002,3.180560e+001
7.693656e+002,3.304755e+001
7.703298e+002,3.201782e+001
7.712941e+002,2.886102e+001
7.722583e+002,2.699652e+001
7.732225e+002,3.071887e+001
7.741868e+002,3.496967e+001
7.751510e+002,3.555566e+001
7.761152e+002,3.322748e+001
7.770795e+002,3.039508e+001
7.780437e+002,2.911853e+001
7.790079e+002,2.904120e+001
7.799722e+002,2.776831e+001
7.809364e+002,2.500262e+001
7.819006e+002,2.322241e+001
7.828649e+002,2.446539e+001
7.838291e+002,2.789948e+001
7.847933e+002,3.001044e+001
7.857576e+002,2.972601e+001
7.867218e+002,2.813770e+001
7.876860e+002,2.436951e+001
7.886503e+002,2.116772e+001
7.896145e+002,2.101947e+001
7.905787e+002,2.444202e+001
7.915430e+002,2.923248e+001
7.925072e+002,3.416522e+001
7.934714e+002,3.755902e+001
7.944357e+002,3.741699e+001
7.953999e+002,3.432806e+001
7.963641e+002,3.034326e+001
7.973284e+002,2.746075e+001
7.982926e+002,2.563373e+001
7.992568e+002,2.705261e+001
8.002211e+002,3.305792e+001
8.011853e+002,3.718231e+001
8.021495e+002,3.672571e+001
8.031138e+002,3.362646e+001
8.040780e+002,3.302136e+001
8.050422e+002,3.690063e+001
8.060065e+002,4.026501e+001
8.069707e+002,4.087738e+001
8.079349e+002,4.010541e+001
8.088992e+002,3.942926e+001
8.098634e+002,3.958856e+001
8.108276e+002,4.026489e+001
8.117919e+002,4.064038e+001
8.127561e+002,4.019623e+001
8.137203e+002,3.962854e+001
8.146846e+002,3.945618e+001
8.156488e+002,3.898352e+001
8.166130e+002,3.680988e+001
8.175773e+002,3.213019e+001
8.185415e+002,2.986646e+001
8.195057e+002,3.009357e+001
8.204700e+002,3.122400e+001
8.214342e+002,3.319916e+001
8.223984e+002,3.571234e+001
8.233627e+002,3.817499e+001
8.243269e+002,4.082355e+001
8.252911e+002,4.283643e+001
8.262554e+002,4.365948e+001
8.272196e+002,4.377515e+001
8.281838e+002,4.322186e+001
8.291481e+002,4.223938e+001
8.301123e+002,4.173773e+001
8.310765e+002,4.385809e+001
8.320408e+002,4.797906e+001
8.330050e+002,4.866632e+001
8.339692e+002,4.502960e+001
8.349335e+002,4.021637e+001
8.358977e+002,3.757477e+001
8.368619e+002,3.766541e+001
8.378262e+002,3.762744e+001
8.387904e+002,3.602820e+001
8.397546e+002,3.512073e+001
8.407189e+002,3.548486e+001
8.416831e+002,3.701111e+001
8.426473e+002,3.990637e+001
8.436116e+002,4.483325e+001
8.445758e+002,4.898828e+001
8.455400e+002,4.737933e+001
8.465043e+002,4.344196e+001
8.474685e+002,4.199860e+001
8.484327e+002,4.448035e+001
8.493970e+002,4.847156e+001
8.503612e+002,4.928467e+001
8.513254e+002,4.594183e+001
8.522897e+002,4.487787e+001
8.532539e+002,4.752820e+001
8.542181e+002,4.972498e+001
8.551824e+002,4.884216e+001
8.561466e+002,4.579834e+001
8.571108e+002,4.468738e+001
8.580751e+002,4.619604e+001
8.590393e+002,4.784259e+001
8.600035e+002,4.909552e+001
8.609678e+002,5.067346e+001
8.619320e+002,5.376807e+001
8.628962e+002,5.862817e+001
8.638605e+002,6.340637e+001
8.648247e+002,6.479559e+001
8.657889e+002,6.407745e+001
8.667532e+002,6.442157e+001
8.677174e+002,6.622327e+001
8.686816e+002,6.779681e+001
8.696459e+002,6.710547e+001
8.706101e+002,6.390222e+001
8.715743e+002,6.217462e+001
8.725386e+002,6.313007e+001
8.735028e+002,6.396387e+001
8.744670e+002,6.316846e+001
8.754313e+002,6.132458e+001
8.763955e+002,5.983356e+001
8.773597e+002,5.918555e+001
8.783240e+002,5.977502e+001
8.792882e+002,6.256244e+001
8.802524e+002,6.571320e+001
8.812167e+002,6.794934e+001
8.821809e+002,6.886768e+001
8.831451e+002,6.849182e+001
8.841094e+002,6.677460e+001
8.850736e+002,6.420001e+001
8.860378e+002,6.398987e+001
8.870021e+002,6.630383e+001
8.879663e+002,6.897595e+001
8.889305e+002,7.085016e+001
8.898948e+002,7.186987e+001
8.908590e+002,7.244342e+001
8.918232e+002,7.303412e+001
8.927875e+002,7.309070e+001
8.937517e+002,7.183026e+001
8.947159e+002,7.057257e+001
8.956802e+002,7.005652e+001
8.966444e+002,7.027240e+001
8.976086e+002,7.100482e+001
8.985729e+002,7.334760e+001
8.995371e+002,7.571930e+001
9.005013e+002,7.416772e+001
9.014656e+002,6.969043e+001
9.024298e+002,6.635529e+001
9.033940e+002,6.701147e+001
9.043583e+002,7.093243e+001
9.053225e+002,7.497729e+001
9.062867e+002,8.124731e+001
9.072510e+002,8.388611e+001
9.082152e+002,8.025854e+001
9.091794e+002,7.554938e+001
9.101437e+002,7.524524e+001
9.111079e+002,8.020892e+001
9.120721e+002,8.487244e+001
9.130364e+002,8.526434e+001
9.140006e+002,8.414508e+001
9.149648e+002,8.306934e+001
9.159291e+002,8.236945e+001
9.168933e+002,8.165222e+001
9.178575e+002,8.046399e+001
9.188218e+002,7.902118e+001
9.197860e+002,7.900879e+001
9.207502e+002,8.025690e+001
9.217145e+002,8.116315e+001
9.226787e+002,8.198749e+001
9.236429e+002,8.285895e+001
9.246072e+002,8.367749e+001
9.255714e+002,8.430176e+001
9.265356e+002,8.384186e+001
9.274999e+002,8.063068e+001
9.284641e+002,7.759827e+001
9.294283e+002,7.644910e+001
9.303926e+002,7.637872e+001
9.313568e+002,7.542871e+001
9.323210e+002,7.246906e+001
9.332853e+002,6.918689e+001
9.342495e+002,6.855347e+001
9.352137e+002,6.932129e+001
9.361780e+002,7.050720e+001
9.371422e+002,7.216766e+001
9.381064e+002,7.379834e+001
9.390707e+002,7.417236e+001
9.400349e+002,7.249640e+001
9.409991e+002,7.184192e+001
9.419634e+002,7.303302e+001
9.429276e+002,7.381946e+001
9.438918e+002,7.310687e+001
9.448561e+002,7.196063e+001
9.458203e+002,7.221021e+001
9.467845e+002,7.458411e+001
9.477488e+002,7.797491e+001
9.487130e+002,8.322845e+001
9.496772e+002,8.776019e+001
9.506415e+002,8.856830e+001
9.516057e+002,8.619922e+001
9.525699e+002,8.374182e+001
9.535342e+002,8.417554e+001
9.544984e+002,8.692078e+001
9.554626e+002,8.838635e+001
9.564269e+002,8.878265e+001
9.573911e+002,9.017371e+001
9.583553e+002,9.388715e+001
9.593196e+002,9.828406e+001
9.602838e+002,1.004728e+002
9.612480e+002,9.961243e+001
9.622123e+002,9.898389e+001
9.631765e+002,1.008406e+002
9.641407e+002,1.021725e+002
9.651050e+002,1.008196e+002
9.660692e+002,9.756842e+001
9.670334e+002,9.483167e+001
9.679977e+002,9.439172e+001
9.689619e+002,9.504565e+001
9.699261e+002,9.264136e+001
9.708904e+002,8.805566e+001
9.718546e+002,8.484125e+001
9.728188e+002,8.361096e+001
9.737831e+002,8.372821e+001
9.747473e+002,8.471802e+001
9.757115e+002,8.692419e+001
9.766758e+002,8.897784e+001
9.776400e+002,9.144696e+001
9.786042e+002,9.379193e+001
9.795685e+002,9.555670e+001
9.805327e+002,9.664984e+001
9.814969e+002,9.730005e+001
9.824612e+002,9.785699e+001
9.834254e+002,9.854407e+001
9.843896e+002,9.970514e+001
9.853539e+002,1.001809e+002
9.863181e+002,9.784485e+001
9.872823e+002,9.308246e+001
9.882466e+002,8.897253e+001
9.892108e+002,8.856293e+001
9.901750e+002,9.204108e+001
9.911393e+002,9.633221e+001
9.921035e+002,1.016494e+002
9.930677e+002,1.047548e+002
9.940320e+002,1.034794e+002
9.949962e+002,1.023928e+002
9.959604e+002,1.053636e+002
9.969247e+002,1.127693e+002
9.978889e+002,1.234194e+002
9.988531e+002,1.402934e+002
9.998174e+002,1.543850e+002
1.000782e+003,1.588799e+002
1.001746e+003,1.585762e+002
1.002710e+003,1.608438e+002
1.003674e+003,1.685619e+002
1.004639e+003,1.777282e+002
1.005603e+003,1.811231e+002
1.006567e+003,1.778983e+002
1.007531e+003,1.769362e+002
1.008495e+003,1.795552e+002
1.009460e+003,1.818701e+002
1.010424e+003,1.808279e+002
1.011388e+003,1.776616e+002
1.012352e+003,1.774188e+002
1.013317e+003,1.830696e+002
1.014281e+003,1.860443e+002
1.015245e+003,1.832083e+002
1.016209e+003,1.774606e+002
1.017174e+003,1.703263e+002
1.018138e+003,1.625674e+002
1.019102e+003,1.544060e+002
1.020066e+003,1.459435e+002
1.021031e+003,1.381753e+002
1.021995e+003,1.337897e+002
1.022959e+003,1.316046e+002
1.023923e+003,1.284398e+002
1.024887e+003,1.229507e+002
1.025852e+003,1.163462e+002
1.026816e+003,1.108506e+002
1.027780e+003,1.072324e+002
1.028744e+003,1.028420e+002
1.029709e+003,9.610706e+001
1.030673e+003,8.996246e+001
1.031637e+003,8.440796e+001
1.032601e+003,8.004877e+001
1.033566e+003,7.860913e+001
1.034530e+003,8.065887e+001
1.035494e+003,8.260364e+001
1.036458e+003,7.910913e+001
1.037422e+003,7.341699e+001
1.038387e+003,7.158356e+001
1.039351e+003,7.335101e+001
1.040315e+003,7.491412e+001
1.041279e+003,7.335144e+001
1.042244e+003,6.993085e+001
1.043208e+003,7.034076e+001
1.044172e+003,7.891522e+001
1.045136e+003,8.279785e+001
1.046101e+003,7.885828e+001
1.047065e+003,7.379742e+001
1.048029e+003,7.130060e+001
1.048993e+003,7.128992e+001
1.049958e+003,7.251794e+001
1.050922e+003,7.534088e+001
1.051886e+003,7.759540e+001
1.052850e+003,7.563202e+001
1.053814e+003,7.233521e+001
1.054779e+003,7.193225e+001
1.055743e+003,7.497784e+001
1.056707e+003,7.833600e+001
1.057671e+003,7.816443e+001
1.058636e+003,7.434253e+001
1.059600e+003,7.244501e+001
1.060564e+003,7.432324e+001
1.061528e+003,7.643500e+001
1.062493e+003,7.920160e+001
1.063457e+003,8.058099e+001
1.064421e+003,7.734705e+001
1.065385e+003,6.952008e+001
1.066349e+003,6.393597e+001
1.067314e+003,6.525415e+001
1.068278e+003,6.866998e+001
1.069242e+003,7.242896e+001
1.070206e+003,7.545337e+001
1.071171e+003,7.554102e+001
1.072135e+003,7.190588e+001
1.073099e+003,6.642535e+001
1.074063e+003,6.243518e+001
1.075028e+003,6.004633e+001
1.075992e+003,6.188794e+001
1.076956e+003,7.095081e+001
1.077920e+003,7.782306e+001
1.078885e+003,7.842834e+001
1.079849e+003,7.547192e+001
1.080813e+003,7.353619e+001
1.081777e+003,7.343005e+001
1.082741e+003,7.360211e+001
1.083706e+003,7.267267e+001
1.084670e+003,7.144513e+001
1.085634e+003,7.036627e+001
1.086598e+003,6.935565e+001
1.087563e+003,6.824512e+001
1.088527e+003,6.715466e+001
1.089491e+003,6.654346e+001
1.090455e+003,6.676270e+001
1.091420e+003,6.757813e+001
1.092384e+003,6.756866e+001
1.093348e+003,6.567114e+001
1.094312e+003,6.422272e+001
1.095276e+003,6.544806e+001
1.096241e+003,6.865930e+001
1.097205e+003,7.090045e+001
1.098169e+003,7.121509e+001
1.099133e+003,7.134937e+001
1.100098e+003,7.251135e+001
1.101062e+003,7.362555e+001
1.102026e+003,7.359985e+001
1.102990e+003,7.303741e+001
1.103955e+003,7.348279e+001
1.104919e+003,7.576434e+001
1.105883e+003,7.864197e+001
1.106847e+003,7.965533e+001
1.107812e+003,7.866608e+001
1.108776e+003,7.768732e+001
1.109740e+003,7.634637e+001
1.110704e+003,7.597736e+001
1.111668e+003,7.857068e+001
1.112633e+003,8.358789e+001
1.113597e+003,8.734467e+001
1.114561e+003,8.862787e+001
1.115525e+003,8.977466e+001
1.116490e+003,9.119135e+001
1.117454e+003,9.288422e+001
1.118418e+003,9.520917e+001
1.119382e+003,9.830511e+001
1.120347e+003,1.021354e+002
1.121311e+003,1.063267e+002
1.122275e+003,1.097310e+002
1.123239e+003,1.109245e+002
1.124203e+003,1.106448e+002
1.125168e+003,1.112843e+002
1.126132e+003,1.133992e+002
1.127096e+003,1.158087e+002
1.128060e+003,1.169697e+002
1.129025e+003,1.172211e+002
1.129989e+003,1.190389e+002
1.130953e+003,1.229839e+002
1.131917e+003,1.271882e+002
1.132882e+003,1.317141e+002
1.133846e+003,1.361257e+002
1.134810e+003,1.398411e+002
1.135774e+003,1.433334e+002
1.136739e+003,1.476906e+002
1.137703e+003,1.534683e+002
1.138667e+003,1.596647e+002
1.139631e+003,1.641202e+002
1.140595e+003,1.673251e+002
1.141560e+003,1.738178e+002
1.142524e+003,1.842850e+002
1.143488e+003,1.976656e+002
1.144452e+003,2.141028e+002
1.145417e+003,2.327574e+002
1.146381e+003,2.499859e+002
1.147345e+003,2.636050e+002
1.148309e+003,2.812485e+002
1.149274e+003,3.053984e+002
1.150238e+003,3.334372e+002
1.151202e+003,3.661366e+002
1.152166e+003,4.018165e+002
1.153130e+003,4.381260e+002
1.154095e+003,4.733750e+002
1.155059e+003,5.064982e+002
1.156023e+003,5.379940e+002
1.156987e+003,5.662141e+002
1.157952e+003,5.828272e+002
1.158916e+003,5.882438e+002
1.159880e+003,5.864861e+002
1.160844e+003,5.774875e+002
1.161809e+003,5.615145e+002
1.162773e+003,5.405051e+002
1.163737e+003,5.141749e+002
1.164701e+003,4.844540e+002
1.165666e+003,4.494197e+002
1.166630e+003,4.141996e+002
1.167594e+003,3.777110e+002
1.168558e+003,3.432504e+002
1.169522e+003,3.147655e+002
1.170487e+003,2.934835e+002
1.171451e+003,2.783668e+002
1.172415e+003,2.684130e+002
1.173379e+003,2.631419e+002
1.174344e+003,2.610408e+002
1.175308e+003,2.623978e+002
1.176272e+003,2.633339e+002
1.177236e+003,2.628211e+002
1.178201e+003,2.614481e+002
1.179165e+003,2.601343e+002
1.180129e+003,2.585547e+002
1.181093e+003,2.536852e+002
1.182057e+003,2.421880e+002
1.183022e+003,2.318594e+002
1.183986e+003,2.258492e+002
1.184950e+003,2.220719e+002
1.185914e+003,2.188857e+002
1.186879e+003,2.159573e+002
1.187843e+003,2.135903e+002
1.188807e+003,2.118681e+002
1.189771e+003,2.107932e+002
1.190736e+003,2.111719e+002
1.191700e+003,2.131426e+002
1.192664e+003,2.146700e+002
1.193628e+003,2.158416e+002
1.194593e+003,2.168002e+002
1.195557e+003,2.183481e+002
1.196521e+003,2.196489e+002
1.197485e+003,2.176983e+002
1.198449e+003,2.113990e+002
1.199414e+003,2.041744e+002
1.200378e+003,1.964990e+002
1.201342e+003,1.894695e+002
1.202306e+003,1.839437e+002
1.203271e+003,1.793488e+002
1.204235e+003,1.745494e+002
1.205199e+003,1.691139e+002
1.206163e+003,1.636964e+002
1.207128e+003,1.592635e+002
1.208092e+003,1.559136e+002
1.209056e+003,1.531512e+002
1.210020e+003,1.520393e+002
1.210984e+003,1.494680e+002
1.211949e+003,1.437019e+002
1.212913e+003,1.363187e+002
1.213877e+003,1.295795e+002
1.214841e+003,1.237275e+002
1.215806e+003,1.171320e+002
1.216770e+003,1.076181e+002
1.217734e+003,9.952332e+001
1.218698e+003,9.690210e+001
1.219663e+003,9.612689e+001
1.220627e+003,9.274915e+001
1.221591e+003,8.615100e+001
1.222555e+003,7.849805e+001
1.223520e+003,7.180078e+001
1.224484e+003,6.633801e+001
1.225448e+003,6.255530e+001
1.226412e+003,6.077100e+001
1.227376e+003,6.008966e+001
1.228341e+003,6.168341e+001
1.229305e+003,6.274121e+001
1.230269e+003,6.108197e+001
1.231233e+003,5.793835e+001
1.232198e+003,5.616193e+001
1.233162e+003,5.672418e+001
1.234126e+003,5.770959e+001
1.235090e+003,5.736053e+001
1.236055e+003,5.658655e+001
1.237019e+003,5.640552e+001
1.237983e+003,5.659131e+001
1.238947e+003,5.676208e+001
1.239911e+003,5.695752e+001
1.240876e+003,5.754553e+001
1.241840e+003,5.893414e+001
1.242804e+003,6.120703e+001
1.243768e+003,6.313562e+001
1.244733e+003,6.436719e+001
1.245697e+003,6.573859e+001
1.246661e+003,6.733466e+001
1.247625e+003,6.831238e+001
1.248590e+003,6.833789e+001
1.249554e+003,6.768939e+001
1.250518e+003,6.646838e+001
1.251482e+003,6.440363e+001
1.252447e+003,6.234473e+001
1.253411e+003,6.136230e+001
1.254375e+003,6.179620e+001
1.255339e+003,6.444812e+001
1.256303e+003,6.937817e+001
1.257268e+003,7.396588e+001
1.258232e+003,7.630560e+001
1.259196e+003,7.703412e+001
1.260160e+003,7.772809e+001
1.261125e+003,7.846118e+001
1.262089e+003,8.101685e+001
1.263053e+003,8.687128e+001
1.264017e+003,9.221088e+001
1.264982e+003,9.641772e+001
1.265946e+003,9.985077e+001
1.266910e+003,1.028765e+002
1.267874e+003,1.055144e+002
1.268839e+003,1.077860e+002
1.269803e+003,1.097388e+002
1.270767e+003,1.107002e+002
1.271731e+003,1.090834e+002
1.272695e+003,1.051096e+002
1.273660e+003,1.018406e+002
1.274624e+003,9.928516e+001
1.275588e+003,9.583673e+001
1.276552e+003,9.028223e+001
1.277517e+003,8.414282e+001
1.278481e+003,7.964050e+001
1.279445e+003,7.678046e+001
1.280409e+003,7.525586e+001
1.281374e+003,7.611133e+001
1.282338e+003,7.695697e+001
1.283302e+003,7.660498e+001
1.284266e+003,7.544232e+001
1.285230e+003,7.427344e+001
1.286195e+003,7.286993e+001
1.287159e+003,6.955920e+001
1.288123e+003,6.311267e+001
1.289087e+003,5.571307e+001
1.290052e+003,5.350665e+001
1.291016e+003,5.860016e+001
1.291980e+003,6.016803e+001
1.292944e+003,5.472632e+001
1.293909e+003,4.990552e+001
1.294873e+003,4.959326e+001
1.295837e+003,5.164392e+001
1.296801e+003,5.274744e+001
1.297766e+003,5.254895e+001
1.298730e+003,5.352832e+001
1.299694e+003,5.803455e+001
1.300658e+003,6.156238e+001
1.301622e+003,5.727704e+001
1.302587e+003,4.985461e+001
1.303551e+003,4.677673e+001
1.304515e+003,4.930426e+001
1.305479e+003,5.364752e+001
1.306444e+003,5.679901e+001
1.307408e+003,5.883691e+001
1.308372e+003,6.065564e+001
1.309336e+003,6.266614e+001
1.310301e+003,6.301477e+001
1.311265e+003,6.062390e+001
1.312229e+003,5.827698e+001
1.313193e+003,5.630377e+001
1.314157e+003,5.491718e+001
1.315122e+003,5.458606e+001
1.316086e+003,5.495795e+001
1.317050e+003,5.486023e+001
1.318014e+003,5.365552e+001
1.318979e+003,5.218213e+001
1.319943e+003,5.193988e+001
1.320907e+003,5.279767e+001
1.321871e+003,5.167487e+001
1.322836e+003,4.676459e+001
1.323800e+003,4.408417e+001
1.324764e+003,4.894806e+001
1.325728e+003,5.708740e+001
1.326693e+003,6.105493e+001
1.327657e+003,6.038068e+001
1.328621e+003,5.843231e+001
1.329585e+003,5.578888e+001
1.330549e+003,5.467584e+001
1.331514e+003,5.584460e+001
1.332478e+003,5.748175e+001
1.333442e+003,5.860461e+001
1.334406e+003,5.902344e+001
1.335371e+003,5.830743e+001
1.336335e+003,5.625769e+001
1.337299e+003,5.395514e+001
1.338263e+003,5.335199e+001
1.339228e+003,5.464252e+001
1.340192e+003,5.599969e+001
1.341156e+003,5.744128e+001
1.342120e+003,5.889063e+001
1.343084e+003,6.098053e+001
1.344049e+003,6.181464e+001
1.345013e+003,5.902930e+001
1.345977e+003,5.419330e+001
1.346941e+003,5.184009e+001
1.347906e+003,5.368475e+001
1.348870e+003,5.595343e+001
1.349834e+003,5.453668e+001
1.350798e+003,5.145551e+001
1.351763e+003,5.145648e+001
1.352727e+003,5.404242e+001
1.353691e+003,5.546320e+001
1.354655e+003,5.420557e+001
1.355620e+003,5.210303e+001
1.356584e+003,5.149585e+001
1.357548e+003,5.227197e+001
1.358512e+003,5.219934e+001
1.359476e+003,5.033838e+001
1.360441e+003,4.857275e+001
1.361405e+003,4.746729e+001
1.362369e+003,4.687335e+001
1.363333e+003,4.733447e+001
1.364298e+003,4.800720e+001
1.365262e+003,4.755579e+001
1.366226e+003,4.586670e+001
1.367190e+003,4.409869e+001
1.368155e+003,4.326178e+001
1.369119e+003,4.340057e+001
1.370083e+003,4.488263e+001
1.371047e+003,4.858319e+001
1.372011e+003,5.061749e+001
1.372976e+003,4.927783e+001
1.373940e+003,4.778882e+001
1.374904e+003,4.763049e+001
1.375868e+003,4.810431e+001
1.376833e+003,4.825531e+001
1.377797e+003,4.789954e+001
1.378761e+003,4.696564e+001
1.379725e+003,4.504059e+001
1.380690e+003,4.413702e+001
1.381654e+003,4.814221e+001
1.382618e+003,5.373853e+001
1.383582e+003,5.588281e+001
1.384547e+003,5.469623e+001
1.385511e+003,5.347736e+001
1.386475e+003,5.358966e+001
1.387439e+003,5.476050e+001
1.388403e+003,5.759778e+001
1.389368e+003,6.204333e+001
1.390332e+003,6.253406e+001
1.391296e+003,5.629266e+001
1.392260e+003,5.194073e+001
1.393225e+003,5.190399e+001
1.394189e+003,5.329877e+001
1.395153e+003,5.604761e+001
1.396117e+003,5.850812e+001
1.397082e+003,5.782922e+001
1.398046e+003,5.402228e+001
1.399010e+003,5.084399e+001
1.399974e+003,5.157019e+001
1.400938e+003,5.437555e+001
1.401903e+003,5.465625e+001
1.402867e+003,5.250836e+001
1.403831e+003,5.203156e+001
1.404795e+003,5.342480e+001
1.405760e+003,5.515277e+001
1.406724e+003,5.655280e+001
1.407688e+003,5.683856e+001
1.408652e+003,5.520154e+001
1.409617e+003,5.252081e+001
1.410581e+003,5.153912e+001
1.411545e+003,5.361340e+001
1.412509e+003,5.602856e+001
1.413474e+003,5.572827e+001
1.414438e+003,5.370013e+001
1.415402e+003,5.207965e+001
1.416366e+003,5.129663e+001
1.417330e+003,5.168195e+001
1.418295e+003,5.362213e+001
1.419259e+003,5.584387e+001
1.420223e+003,5.654651e+001
1.421187e+003,5.576550e+001
1.422152e+003,5.520947e+001
1.423116e+003,5.533844e+001
1.424080e+003,5.573871e+001
1.425044e+003,5.516077e+001
1.426009e+003,5.535059e+001
1.426973e+003,5.738043e+001
1.427937e+003,6.035236e+001
1.428901e+003,6.435339e+001
1.429865e+003,6.855981e+001
1.430830e+003,7.010870e+001
1.431794e+003,6.702167e+001
1.432758e+003,6.157843e+001
1.433722e+003,5.868042e+001
1.434687e+003,5.890057e+001
1.435651e+003,6.146796e+001
1.436615e+003,6.793243e+001
1.437579e+003,7.180127e+001
1.438544e+003,7.090094e+001
1.439508e+003,6.922107e+001
1.440472e+003,6.953534e+001
1.441436e+003,7.148547e+001
1.442401e+003,7.394470e+001
1.443365e+003,7.635284e+001
1.444329e+003,7.801404e+001
1.445293e+003,7.857391e+001
1.446257e+003,7.812256e+001
1.447222e+003,7.568787e+001
1.448186e+003,7.189392e+001
1.449150e+003,7.105597e+001
1.450114e+003,7.421814e+001
1.451079e+003,7.700208e+001
1.452043e+003,7.794513e+001
1.453007e+003,7.727319e+001
1.453971e+003,7.427625e+001
1.454936e+003,6.920715e+001
1.455900e+003,6.468665e+001
1.456864e+003,6.086298e+001
1.457828e+003,5.978033e+001
1.458792e+003,6.493848e+001
1.459757e+003,7.080957e+001
1.460721e+003,7.334906e+001
1.461685e+003,7.300641e+001
1.462649e+003,7.069611e+001
1.463614e+003,6.709015e+001
1.464578e+003,6.395685e+001
1.465542e+003,6.283820e+001
1.466506e+003,6.284332e+001
1.467471e+003,6.154858e+001
1.468435e+003,5.877484e+001
1.469399e+003,5.782086e+001
1.470363e+003,5.864276e+001
1.471328e+003,6.082611e+001
1.472292e+003,6.585211e+001
1.473256e+003,6.991479e+001
1.474220e+003,7.041498e+001
1.475184e+003,6.868555e+001
1.476149e+003,6.662683e+001
1.477113e+003,6.504517e+001
1.478077e+003,6.468353e+001
1.479041e+003,6.661078e+001
1.480006e+003,7.055200e+001
1.480970e+003,7.485242e+001
1.481934e+003,7.950299e+001
1.482898e+003,8.263354e+001
1.483863e+003,8.318695e+001
1.484827e+003,8.368988e+001
1.485791e+003,8.488959e+001
1.486755e+003,8.688428e+001
1.487719e+003,9.042700e+001
1.488684e+003,9.428687e+001
1.489648e+003,9.524976e+001
1.490612e+003,9.261346e+001
1.491576e+003,9.062927e+001
1.492541e+003,9.261554e+001
1.493505e+003,9.719843e+001
1.494469e+003,1.020649e+002
1.495433e+003,1.067037e+002
1.496398e+003,1.101597e+002
1.497362e+003,1.120805e+002
1.498326e+003,1.156923e+002
1.499290e+003,1.229163e+002
1.500255e+003,1.324427e+002
1.501219e+003,1.429521e+002
1.502183e+003,1.540423e+002
1.503147e+003,1.640590e+002
1.504111e+003,1.721091e+002
1.505076e+003,1.818249e+002
1.506040e+003,1.960660e+002
1.507004e+003,2.124185e+002
1.507968e+003,2.272391e+002
1.508933e+003,2.424689e+002
1.509897e+003,2.622758e+002
1.510861e+003,2.880126e+002
1.511825e+003,3.177012e+002
1.512790e+003,3.497111e+002
1.513754e+003,3.840036e+002
1.514718e+003,4.210956e+002
1.515682e+003,4.605189e+002
1.516646e+003,5.027412e+002
1.517611e+003,5.495116e+002
1.518575e+003,5.959828e+002
1.519539e+003,6.436195e+002
1.520503e+003,6.883990e+002
1.521468e+003,7.312685e+002
1.522432e+003,7.681138e+002
1.523396e+003,7.941009e+002
1.524360e+003,8.082692e+002
1.525325e+003,8.124194e+002
1.526289e+003,8.078165e+002
1.527253e+003,7.957155e+002
1.528217e+003,7.778016e+002
1.529182e+003,7.544426e+002
1.530146e+003,7.287397e+002
1.531110e+003,7.030742e+002
1.532074e+003,6.692058e+002
1.533039e+003,6.241082e+002
1.534003e+003,5.724483e+002
1.534967e+003,5.131423e+002
1.535931e+003,4.526188e+002
1.536896e+003,3.959036e+002
1.537860e+003,3.447786e+002
1.538824e+003,2.997131e+002
1.539788e+003,2.605984e+002
1.540752e+003,2.262252e+002
1.541717e+003,1.949814e+002
1.542681e+003,1.675439e+002
1.543645e+003,1.456002e+002
1.544609e+003,1.303937e+002
1.545573e+003,1.196099e+002
1.546538e+003,1.156234e+002
1.547502e+003,1.115942e+002
1.548466e+003,1.051989e+002
1.549430e+003,9.850488e+001
1.550395e+003,9.306110e+001
1.551359e+003,8.880969e+001
1.552323e+003,8.546985e+001
1.553287e+003,8.295795e+001
1.554252e+003,8.101282e+001
1.555216e+003,7.942542e+001
1.556180e+003,7.803577e+001
1.557144e+003,7.652094e+001
1.558109e+003,7.503021e+001
1.559073e+003,7.394318e+001
1.560037e+003,7.370142e+001
1.561001e+003,7.165356e+001
1.561966e+003,6.552008e+001
1.562930e+003,5.958917e+001
1.563894e+003,5.774670e+001
1.564858e+003,5.876984e+001
1.565823e+003,5.997260e+001
1.566787e+003,6.067493e+001
1.567751e+003,6.028845e+001
1.568715e+003,5.823566e+001
1.569679e+003,5.620331e+001
1.570644e+003,5.625281e+001
1.571608e+003,5.759717e+001
1.572572e+003,5.853851e+001
1.573536e+003,5.925940e+001
1.574500e+003,6.070856e+001
1.575465e+003,6.339459e+001
1.576429e+003,6.626257e+001
1.577393e+003,6.873163e+001
1.578357e+003,7.039795e+001
1.579322e+003,7.047430e+001
1.580286e+003,6.915485e+001
1.581250e+003,6.780756e+001
1.582214e+003,6.655823e+001
1.583179e+003,6.648657e+001
1.584143e+003,6.991699e+001
1.585107e+003,7.313733e+001
1.586071e+003,7.026508e+001
1.587036e+003,6.398907e+001
1.588000e+003,6.170508e+001
1.588964e+003,6.486304e+001
1.589928e+003,6.926782e+001
1.590893e+003,7.343854e+001
1.591857e+003,7.620691e+001
1.592821e+003,7.484698e+001
1.593785e+003,7.028027e+001
1.594750e+003,6.745123e+001
1.595714e+003,6.687836e+001
1.596678e+003,6.744501e+001
1.597642e+003,6.954059e+001
1.598606e+003,7.151563e+001
1.599571e+003,7.200555e+001
1.600535e+003,7.187817e+001
1.601499e+003,7.205969e+001
1.602463e+003,7.250293e+001
1.603427e+003,7.292230e+001
1.604392e+003,7.325415e+001
1.605356e+003,7.335223e+001
1.606320e+003,7.269971e+001
1.607284e+003,7.185229e+001
1.608249e+003,7.287616e+001
1.609213e+003,7.588715e+001
1.610177e+003,7.697760e+001
1.611141e+003,7.526526e+001
1.612106e+003,7.223193e+001
1.613070e+003,6.657410e+001
1.614034e+003,6.163483e+001
1.614998e+003,6.087756e+001
1.615963e+003,6.216296e+001
1.616927e+003,6.153497e+001
1.617891e+003,5.847009e+001
1.618855e+003,5.514258e+001
1.619820e+003,5.254602e+001
1.620784e+003,5.065894e+001
1.621748e+003,5.069861e+001
1.622712e+003,5.263873e+001
1.623677e+003,5.265411e+001
1.624641e+003,5.007501e+001
1.625605e+003,4.976794e+001
1.626569e+003,5.327515e+001
1.627533e+003,5.649939e+001
1.628498e+003,5.920264e+001
1.629462e+003,6.016034e+001
1.630426e+003,5.674518e+001
1.631390e+003,5.094482e+001
1.632354e+003,4.683905e+001
1.633319e+003,4.548669e+001
1.634283e+003,4.619275e+001
1.635247e+003,4.886176e+001
1.636211e+003,5.175067e+001
1.637176e+003,5.147015e+001
1.638140e+003,4.844904e+001
1.639104e+003,4.686279e+001
1.640068e+003,4.689026e+001
1.641033e+003,4.749518e+001
1.641997e+003,4.968994e+001
1.642961e+003,5.096661e+001
1.643925e+003,4.937720e+001
1.644890e+003,4.688239e+001
1.645854e+003,4.494550e+001
1.646818e+003,4.375067e+001
1.647782e+003,4.322284e+001
1.648747e+003,4.332776e+001
1.649711e+003,4.442230e+001
1.650675e+003,4.725720e+001
1.651639e+003,5.097699e+001
1.652604e+003,5.341089e+001
1.653568e+003,5.439978e+001
1.654532e+003,5.460449e+001
1.655496e+003,5.380817e+001
1.656460e+003,5.319464e+001
1.657425e+003,5.430817e+001
1.658389e+003,5.428931e+001
1.659353e+003,5.036829e+001
1.660317e+003,4.549530e+001
1.661281e+003,4.302612e+001
1.662246e+003,4.233179e+001
1.663210e+003,4.069049e+001
1.664174e+003,3.738037e+001
1.665138e+003,3.462122e+001
1.666103e+003,3.419958e+001
1.667067e+003,3.517792e+001
1.668031e+003,3.628650e+001
1.668995e+003,3.752081e+001
1.669960e+003,3.751251e+001
1.670924e+003,3.600311e+001
1.671888e+003,3.432501e+001
1.672852e+003,3.245270e+001
1.673817e+003,3.073199e+001
1.674781e+003,2.856165e+001
1.675745e+003,2.716205e+001
1.676709e+003,2.861053e+001
1.677674e+003,3.198975e+001
1.678638e+003,3.440588e+001
1.679602e+003,3.495129e+001
1.680566e+003,3.438385e+001
1.681531e+003,3.297144e+001
1.682495e+003,3.167151e+001
1.683459e+003,3.214459e+001
1.684423e+003,3.381421e+001
1.685387e+003,3.422797e+001
1.686352e+003,3.320245e+001
1.687316e+003,3.155011e+001
1.688280e+003,2.895764e+001
1.689244e+003,2.683234e+001
1.690208e+003,2.641156e+001
1.691173e+003,2.671802e+001
1.692137e+003,2.708661e+001
1.693101e+003,2.764203e+001
1.694065e+003,2.819604e+001
1.695030e+003,2.840717e+001
1.695994e+003,2.812537e+001
1.696958e+003,2.718481e+001
1.697922e+003,2.617126e+001
1.698887e+003,2.611975e+001
1.699851e+003,2.662769e+001
1.700815e+003,2.589075e+001
1.701779e+003,2.364514e+001
1.702744e+003,2.183313e+001
1.703708e+003,2.128961e+001
1.704672e+003,2.201276e+001
1.705636e+003,2.422693e+001
1.706601e+003,2.652362e+001
1.707565e+003,2.751807e+001
1.708529e+003,2.757745e+001
1.709493e+003,2.689453e+001
1.710458e+003,2.538177e+001
1.711422e+003,2.363251e+001
1.712386e+003,2.144940e+001
1.713350e+003,2.017633e+001
1.714314e+003,2.095325e+001
1.715279e+003,2.267303e+001
1.716243e+003,2.431018e+001
1.717207e+003,2.551184e+001
1.718171e+003,2.486481e+001
1.719135e+003,2.206104e+001
1.720100e+003,1.945966e+001
1.721064e+003,1.845154e+001
1.722028e+003,1.847345e+001
1.722992e+003,1.950317e+001
1.723957e+003,2.143353e+001
1.724921e+003,2.149634e+001
1.725885e+003,1.881348e+001
1.726849e+003,1.633575e+001
1.727814e+003,1.453375e+001
1.728778e+003,1.422583e+001
1.729742e+003,1.702734e+001
1.730706e+003,2.009967e+001
1.731671e+003,2.031610e+001
1.732635e+003,1.812238e+001
1.733599e+003,1.516528e+001
1.734563e+003,1.242493e+001
1.735528e+003,1.090167e+001
1.736492e+003,1.095697e+001
1.737456e+003,1.191736e+001
1.738420e+003,1.314850e+001
1.739385e+003,1.408575e+001
1.740349e+003,1.359344e+001
1.741313e+003,1.167651e+001
1.742277e+003,9.561096e+000
1.743241e+003,5.910339e+000
1.744206e+003,4.668640e+000
1.745170e+003,8.877563e+000
1.746134e+003,1.231750e+001
1.747098e+003,1.075275e+001
1.748063e+003,7.129456e+000
1.749027e+003,4.280212e+000
1.749991e+003,2.971802e+000
1.750955e+003,4.010437e+000
1.751919e+003,7.028870e+000
1.752884e+003,8.736023e+000
1.753848e+003,6.341919e+000
1.754812e+003,2.498108e+000
1.755776e+003,3.078430e+000
1.756741e+003,8.164612e+000
1.757705e+003,1.083551e+001
1.758669e+003,1.022620e+001
1.759633e+003,8.884705e+000
1.760598e+003,5.508301e+000
1.761562e+003,3.171875e+000
1.762526e+003,4.252075e+000
1.763490e+003,5.773987e+000
1.764455e+003,5.695679e+000
1.765419e+003,4.698120e+000
1.766383e+003,3.195068e+000
1.767347e+003,1.700562e+000
1.768312e+003,2.387817e+000
1.769276e+003,6.252197e+000
1.770240e+003,9.944397e+000
1.771204e+003,1.040662e+001
1.772168e+003,8.826538e+000
1.773133e+003,6.718811e+000
1.774097e+003,4.223083e+000
1.775061e+003,3.007629e+000
1.776025e+003,3.005615e+000
1.776990e+003,3.593201e+000
1.777954e+003,5.448303e+000
1.778918e+003,6.977844e+000
1.779882e+003,6.108521e+000
1.780846e+003,4.394470e+000
1.781811e+003,4.866089e+000
1.782775e+003,6.659485e+000
1.783739e+003,6.062195e+000
1.784703e+003,2.316895e+000
1.785668e+003,3.959351e-001
1.786632e+003,3.534241e+000
1.787596e+003,6.710388e+000
1.788560e+003,6.264343e+000
1.789525e+003,4.499146e+000
1.790489e+003,4.095337e+000
1.791453e+003,4.705811e+000
1.792417e+003,5.120300e+000
1.793382e+003,5.080261e+000
1.794346e+003,4.699097e+000
1.795310e+003,3.942932e+000
1.796274e+003,3.428406e+000
1.797239e+003,4.163208e+000
1.798203e+003,6.035400e+000
1.799167e+003,7.507568e+000
1.800131e+003,7.979675e+000
1.801095e+003,7.400757e+000
1.802060e+003,5.346069e+000
1.803024e+003,4.306335e+000
1.803988e+003,4.454895e+000
1.804952e+003,5.271545e+000
1.805917e+003,7.522400e+000
1.806881e+003,9.446228e+000
1.807845e+003,9.208069e+000
1.808809e+003,7.527771e+000
1.809773e+003,5.814209e+000
1.810738e+003,4.573486e+000
1.811702e+003,3.704407e+000
1.812666e+003,3.132507e+000
1.813630e+003,3.639160e+000
1.814595e+003,6.854004e+000
1.815559e+003,1.119397e+001
1.816523e+003,9.560608e+000
1.817487e+003,1.202698e+000
1.818452e+003,-3.453979e+000
1.819416e+003,-2.558044e+000
1.820380e+003,-1.026123e+000
1.821344e+003,-5.029907e-001
1.822309e+003,1.585693e-001
1.823273e+003,3.080505e+000
1.824237e+003,5.810547e+000
1.825201e+003,4.629211e+000
1.826166e+003,1.051453e+000
1.827130e+003,-1.326904e-001
1.828094e+003,1.709900e+000
1.829058e+003,2.497253e+000
1.830022e+003,-2.500000e-001
1.830987e+003,-2.865295e+000
1.831951e+003,-1.354553e+000
1.832915e+003,1.445007e+000
1.833879e+003,1.012817e+000
1.834844e+003,-1.730652e+000
1.835808e+003,-3.520081e+000
1.836772e+003,-3.792603e+000
1.837736e+003,-3.431030e+000
1.838700e+003,-2.929810e+000
1.839665e+003,-2.929260e+000
1.840629e+003,-4.045349e+000
1.841593e+003,-5.365906e+000
1.842557e+003,-5.113281e+000
1.843522e+003,-3.329956e+000
1.844486e+003,-1.965210e+000
1.845450e+003,-5.626831e-001
1.846414e+003,2.977295e-001
1.847379e+003,-6.885376e-001
1.848343e+003,-1.480103e+000
1.849307e+003,-5.419312e-001
1.850271e+003,1.795654e-001
1.851236e+003,-1.516541e+000
1.852200e+003,-3.516174e+000
1.853164e+003,-2.228149e+000
1.854128e+003,1.065369e+000
1.855093e+003,1.398987e+000
1.856057e+003,-2.472900e+000
1.857021e+003,-5.927856e+000
1.857985e+003,-5.144470e+000
1.858949e+003,-2.689453e+000
1.859914e+003,-3.574768e+000
1.860878e+003,-6.674255e+000
1.861842e+003,-5.220337e+000
1.862806e+003,8.636475e-001
1.863771e+003,3.792175e+000
1.864735e+003,1.329590e+000
1.865699e+003,-4.788818e-001
1.866663e+003,1.532288e+000
1.867627e+003,4.567566e+000
1.868592e+003,6.578613e+000
1.869556e+003,7.106506e+000
1.870520e+003,5.655701e+000
1.871484e+003,2.424377e+000
1.872449e+003,-1.468872e+000
1.873413e+003,-5.947144e+000
1.874377e+003,-7.450684e+000
1.875341e+003,-4.043335e+000
1.876306e+003,-1.779785e-001
1.877270e+003,2.413818e+000
1.878234e+003,3.565552e+000
1.879198e+003,2.376038e+000
1.880163e+003,2.670288e-001
1.881127e+003,-1.555176e-001
1.882091e+003,1.169922e+000
1.883055e+003,2.452087e+000
1.884020e+003,2.873474e+000
1.884984e+003,2.965759e+000
1.885948e+003,3.256287e+000
1.886912e+003,3.228149e+000
1.887876e+003,1.595581e+000
1.888841e+003,-1.332336e+000
1.889805e+003,-1.774536e+000
1.890769e+003,9.477539e-001
1.891733e+003,2.514221e+000
1.892698e+003,2.214966e+000
1.893662e+003,8.076782e-001
1.894626e+003,-2.603699e+000
1.895590e+003,-5.300720e+000
1.896554e+003,-4.967773e+000
1.897519e+003,-2.920471e+000
1.898483e+003,-5.164185e-001
1.899447e+003,1.738464e+000
1.900411e+003,3.424744e+000
1.901376e+003,4.589355e+000
1.902340e+003,5.115662e+000
1.903304e+003,5.030884e+000
1.904268e+003,4.065002e+000
1.905233e+003,1.077637e+000
1.906197e+003,-1.709961e+000
1.907161e+003,-1.631104e+000
1.908125e+003,2.731323e-001
1.909090e+003,1.834717e+000
1.910054e+003,2.654663e+000
1.911018e+003,3.322571e+000
1.911982e+003,4.229919e+000
1.912947e+003,5.715332e+000
1.913911e+003,7.949097e+000
1.914875e+003,9.382080e+000
1.915839e+003,7.212219e+000
1.916803e+003,2.247070e+000
1.917768e+003,-9.167480e-002
1.918732e+003,7.539063e-001
1.919696e+003,2.203186e+000
1.920660e+003,5.202881e+000
1.921625e+003,6.407776e+000
1.922589e+003,3.633484e+000
1.923553e+003,8.846436e-001
1.924517e+003,2.932129e-001
1.925481e+003,7.119751e-001
1.926446e+003,1.651550e+000
1.927410e+003,2.705566e+000
1.928374e+003,2.705139e+000
1.929338e+003,1.567871e+000
1.930303e+003,1.556702e+000
1.931267e+003,4.428772e+000
1.932231e+003,6.182007e+000
1.933195e+003,3.237305e+000
1.934160e+003,-2.923584e-002
1.935124e+003,-3.499756e-001
1.936088e+003,5.616455e-001
1.937052e+003,1.267090e+000
1.938017e+003,1.633179e+000
1.938981e+003,1.415283e+000
1.939945e+003,6.641235e-001
1.940909e+003,-9.783936e-002
1.941874e+003,-7.224121e-001
1.942838e+003,-1.637817e+000
1.943802e+003,-3.023682e+000
1.944766e+003,-4.296631e+000
1.945730e+003,-5.035645e+000
1.946695e+003,-5.372925e+000
1.947659e+003,-4.467285e+000
1.948623e+003,-2.267639e+000
1.949587e+003,-7.501221e-002
1.950552e+003,2.523010e+000
1.951516e+003,3.360107e+000
1.952480e+003,6.206055e-001
1.953444e+003,-1.673950e+000
1.954408e+003,7.989502e-002
1.955373e+003,2.634094e+000
1.956337e+003,9.645996e-001
1.957301e+003,-3.095947e+000
1.958265e+003,-3.757141e+000
1.959230e+003,-2.965088e-001
1.960194e+003,1.774902e+000
1.961158e+003,-7.568359e-002
1.962122e+003,-1.683838e+000
1.963087e+003,-2.279053e+000
1.964051e+003,-1.845825e+000
1.965015e+003,1.222656e+000
1.965979e+003,4.489258e+000
1.966944e+003,4.605591e+000
1.967908e+003,2.896301e+000
1.968872e+003,2.386230e+000
1.969836e+003,3.551392e+000
1.970801e+003,5.422668e+000
1.971765e+003,7.477295e+000
1.972729e+003,8.431763e+000
1.973693e+003,6.830872e+000
1.974657e+003,4.559082e+000
1.975622e+003,4.966064e+000
1.976586e+003,6.525330e+000
1.977550e+003,4.446533e+000
1.978514e+003,-1.857910e-001
1.979479e+003,-5.404663e-001
1.980443e+003,3.953979e+000
1.981407e+003,5.668884e+000
1.982371e+003,1.716614e+000
1.983335e+003,-1.815979e+000
1.984300e+003,-3.580322e-001
1.985264e+003,2.850342e+000
1.986228e+003,2.983032e+000
1.987192e+003,7.506104e-001
1.988157e+003,-1.099243e-001
1.989121e+003,7.331543e-001
1.990085e+003,1.929932e+000
1.991049e+003,4.046021e+000
1.992014e+003,5.743408e+000
1.992978e+003,7.077942e+000
1.993942e+003,7.306458e+000
1.994906e+003,4.180298e+000
1.995871e+003,1.930481e+000
1.996835e+003,5.240662e+000
1.997799e+003,1.065399e+001
1.998763e+003,1.322113e+001
1.999728e+003,1.267352e+001
