5.003444e+002,2.204665e+002
5.013087e+002,2.195954e+002
5.022729e+002,2.145062e+002
5.032371e+002,2.077359e+002
5.042014e+002,2.061443e+002
5.051656e+002,2.089474e+002
5.061298e+002,2.110972e+002
5.070941e+002,2.074735e+002
5.080583e+002,1.957587e+002
5.090225e+002,1.897712e+002
5.099868e+002,1.922233e+002
5.109510e+002,1.954792e+002
5.119152e+002,1.957382e+002
5.128795e+002,1.927021e+002
5.138437e+002,1.896373e+002
5.148079e+002,1.883374e+002
5.157722e+002,1.869535e+002
5.167364e+002,1.843369e+002
5.177006e+002,1.802984e+002
5.186649e+002,1.756066e+002
5.196291e+002,1.714765e+002
5.205933e+002,1.683570e+002
5.215576e+002,1.658540e+002
5.225218e+002,1.634585e+002
5.234860e+002,1.609814e+002
5.244503e+002,1.587506e+002
5.254145e+002,1.577635e+002
5.263787e+002,1.560499e+002
5.273430e+002,1.526658e+002
5.283072e+002,1.491818e+002
5.292714e+002,1.477432e+002
5.302357e+002,1.488666e+002
5.311999e+002,1.490417e+002
5.321641e+002,1.493573e+002
5.331284e+002,1.491211e+002
5.340926e+002,1.468892e+002
5.350568e+002,1.416312e+002
5.360211e+002,1.362613e+002
5.369853e+002,1.350446e+002
5.379495e+002,1.353282e+002
5.389138e+002,1.347538e+002
5.398780e+002,1.323020e+002
5.408422e+002,1.286785e+002
5.418065e+002,1.259858e+002
5.427707e+002,1.240938e+002
5.437349e+002,1.221602e+002
5.446992e+002,1.198052e+002
5.456634e+002,1.171965e+002
5.466276e+002,1.151606e+002
5.475919e+002,1.154197e+002
5.485561e+002,1.144895e+002
5.495203e+002,1.105752e+002
5.504846e+002,1.054747e+002
5.514488e+002,1.022808e+002
5.524130e+002,1.035090e+002
5.533773e+002,1.043773e+002
5.543415e+002,1.021390e+002
5.553057e+002,9.851849e+001
5.562700e+002,9.508289e+001
5.572342e+002,9.271179e+001
5.581984e+002,9.081207e+001
5.591627e+002,8.825134e+001
5.601269e+002,8.566302e+001
5.610911e+002,8.363776e+001
5.620554e+002,8.230511e+001
5.630196e+002,8.142578e+001
5.639838e+002,8.092505e+001
5.649481e+002,8.215033e+001
5.659123e+002,8.189972e+001
5.668765e+002,7.945416e+001
5.678408e+002,7.590820e+001
5.688050e+002,7.342969e+001
5.697692e+002,7.201056e+001
5.707335e+002,7.075726e+001
5.716977e+002,7.023413e+001
5.726619e+002,6.988055e+001
5.736262e+002,6.882977e+001
5.745904e+002,6.640118e+001
5.755546e+002,6.401978e+001
5.765189e+002,6.374323e+001
5.774831e+002,6.422852e+001
5.784473e+002,6.361920e+001
5.794116e+002,6.091309e+001
5.803758e+002,5.681781e+001
5.813400e+002,5.589905e+001
5.823043e+002,5.886212e+001
5.832685e+002,5.996100e+001
5.842327e+002,5.626257e+001
5.851970e+002,4.916742e+001
5.861612e+002,4.549164e+001
5.871254e+002,4.909149e+001
5.880897e+002,5.232312e+001
5.890539e+002,5.391760e+001
5.900181e+002,5.382898e+001
5.909824e+002,5.220715e+001
5.919466e+002,4.861969e+001
5.929108e+002,4.531097e+001
5.938751e+002,4.541174e+001
5.948393e+002,4.703088e+001
5.958035e+002,4.674133e+001
5.967678e+002,4.219427e+001
5.977320e+002,3.481073e+001
5.986962e+002,3.535468e+001
5.996605e+002,4.325256e+001
6.006247e+002,4.978381e+001
6.015889e+002,5.047443e+001
6.025532e+002,4.581720e+001
6.035174e+002,4.238177e+001
6.044816e+002,4.221490e+001
6.054459e+002,4.129553e+001
6.064101e+002,3.790387e+001
6.073743e+002,3.349615e+001
6.083386e+002,3.091333e+001
6.093028e+002,3.233319e+001
6.102670e+002,3.495856e+001
6.112313e+002,3.678876e+001
6.121955e+002,3.789374e+001
6.131597e+002,3.829907e+001
6.141240e+002,3.801923e+001
6.150882e+002,3.718292e+001
6.160524e+002,3.678381e+001
6.170167e+002,3.700757e+001
6.179809e+002,3.707959e+001
6.189451e+002,3.613635e+001
6.199094e+002,3.416724e+001
6.208736e+002,3.313452e+001
6.218378e+002,3.539679e+001
6.228021e+002,3.706439e+001
6.237663e+002,3.815198e+001
6.247305e+002,3.853925e+001
6.256948e+002,3.764288e+001
6.266590e+002,3.412488e+001
6.276232e+002,3.042462e+001
6.285875e+002,2.899762e+001
6.295517e+002,2.855719e+001
6.305159e+002,2.730609e+001
6.314802e+002,2.419556e+001
6.324444e+002,2.017529e+001
6.334086e+002,1.901727e+001
6.343729e+002,2.020245e+001
6.353371e+002,2.154913e+001
6.363013e+002,2.221936e+001
6.372656e+002,2.216333e+001
6.382298e+002,2.166003e+001
6.391940e+002,2.031219e+001
6.401583e+002,1.853387e+001
6.411225e+002,1.686810e+001
6.420867e+002,1.562543e+001
6.430510e+002,1.470740e+001
6.440152e+002,1.359167e+001
6.449794e+002,1.257092e+001
6.459437e+002,1.212292e+001
6.469079e+002,1.164478e+001
6.478721e+002,1.081287e+001
6.488364e+002,9.626526e+000
6.498006e+002,8.437622e+000
6.507648e+002,7.754822e+000
6.517291e+002,7.080750e+000
6.526933e+002,5.015503e+000
6.536575e+002,1.094360e+000
6.546218e+002,-2.662598e+000
6.555860e+002,-2.099121e+000
6.565502e+002,6.508545e+000
6.575145e+002,1.123376e+001
6.584787e+002,1.000061e+001
6.594429e+002,7.204224e+000
6.604072e+002,6.493774e+000
6.613714e+002,8.644043e+000
6.623356e+002,1.000018e+001
6.632999e+002,6.902954e+000
6.642641e+002,3.531555e+000
6.652283e+002,2.745117e+000
6.661926e+002,4.674866e+000
6.671568e+002,7.451477e+000
6.681210e+002,8.923523e+000
6.690853e+002,8.705200e+000
6.700495e+002,6.267700e+000
6.710137e+002,1.883545e+000
6.719780e+002,-1.501221e+000
6.729422e+002,-5.135498e-001
6.739064e+002,6.052734e+000
6.748707e+002,8.405518e+000
6.758349e+002,3.225403e+000
6.767991e+002,-1.288574e+000
6.777634e+002,-4.144897e-001
6.787276e+002,5.416992e+000
6.796918e+002,1.018890e+001
6.806561e+002,1.067633e+001
6.816203e+002,9.594177e+000
6.825845e+002,6.747925e+000
6.835488e+002,3.389893e+000
6.845130e+002,1.421875e+000
6.854772e+002,2.464844e+000
6.864415e+002,5.472351e+000
6.874057e+002,7.162964e+000
6.883699e+002,7.450500e+000
6.893342e+002,7.489807e+000
6.902984e+002,8.118164e+000
6.912626e+002,9.241150e+000
6.922269e+002,9.082031e+000
6.931911e+002,8.182251e+000
6.941553e+002,6.645081e+000
6.951196e+002,2.023071e+000
6.960838e+002,-3.369690e+000
6.970480e+002,-4.932373e+000
6.980123e+002,3.718872e-001
6.989765e+002,4.966736e+000
6.999407e+002,4.952393e+000
7.009050e+002,3.463318e+000
7.018692e+002,3.049744e+000
7.028334e+002,4.434265e+000
7.037977e+002,5.973083e+000
7.047619e+002,5.194641e+000
7.057261e+002,3.234070e+000
7.066904e+002,1.126770e+000
7.076546e+002,-9.838867e-001
7.086188e+002,-2.092957e+000
7.095831e+002,-3.657837e-001
7.105473e+002,5.684448e+000
7.115115e+002,8.804138e+000
7.124758e+002,7.745972e+000
7.134400e+002,5.373230e+000
7.144042e+002,3.229919e+000
7.153685e+002,1.637573e+000
7.163327e+002,5.985718e-001
7.172969e+002,-2.042847e-001
7.182612e+002,1.149902e-001
7.192254e+002,3.242554e+000
7.201896e+002,7.468628e+000
7.211539e+002,9.414795e+000
7.221181e+002,6.015625e+000
7.230823e+002,-2.306519e-001
7.240466e+002,-2.615173e+000
7.250108e+002,-1.435181e+000
7.259750e+002,1.345825e+000
7.269393e+002,4.326599e+000
7.279035e+002,6.910034e+000
7.288677e+002,8.574951e+000
7.298320e+002,1.029443e+001
7.307962e+002,1.193677e+001
7.317604e+002,1.378583e+001
7.327247e+002,1.556940e+001
7.336889e+002,1.656268e+001
7.346531e+002,1.586798e+001
7.356174e+002,1.332202e+001
7.365816e+002,7.729187e+000
7.375458e+002,3.163452e+000
7.385101e+002,3.958313e+000
7.394743e+002,1.032629e+001
7.404385e+002,1.770813e+001
7.414028e+002,1.866095e+001
7.423670e+002,1.340088e+001
7.433312e+002,9.127197e+000
7.442955e+002,7.056091e+000
7.452597e+002,6.679321e+000
7.462239e+002,7.003723e+000
7.471882e+002,7.710144e+000
7.481524e+002,9.588989e+000
7.491166e+002,1.337726e+001
7.500809e+002,1.581647e+001
7.510451e+002,1.545569e+001
7.520093e+002,1.271356e+001
7.529736e+002,9.160889e+000
7.539378e+002,4.972046e+000
7.549020e+002,2.509155e+000
7.558663e+002,3.852966e+000
7.568306e+002,7.144226e+000
7.577948e+002,9.492004e+000
7.587590e+002,9.080933e+000
7.597233e+002,7.058411e+000
7.606875e+002,8.681458e+000
7.616517e+002,1.374756e+001
7.626160e+002,1.686475e+001
7.635802e+002,1.647156e+001
7.645444e+002,1.384314e+001
7.655087e+002,1.116779e+001
7.664729e+002,7.289856e+000
7.674371e+002,5.864258e+000
7.684014e+002,8.145325e+000
7.693656e+002,1.133051e+001
7.703298e+002,1.385358e+001
7.712941e+002,1.554871e+001
7.722583e+002,1.727740e+001
7.732225e+002,2.015515e+001
7.741868e+002,2.270642e+001
7.751510e+002,2.352350e+001
7.761152e+002,2.304706e+001
7.770795e+002,2.242822e+001
7.780437e+002,2.261340e+001
7.790079e+002,2.328705e+001
7.799722e+002,2.261053e+001
7.809364e+002,2.034619e+001
7.819006e+002,1.876660e+001
7.828649e+002,1.974060e+001
7.838291e+002,2.262347e+001
7.847933e+002,2.425214e+001
7.857576e+002,2.257294e+001
7.867218e+002,2.137512e+001
7.876860e+002,2.263989e+001
7.886503e+002,2.464056e+001
7.896145e+002,2.592346e+001
7.905787e+002,2.608551e+001
7.915430e+002,2.586102e+001
7.925072e+002,2.540625e+001
7.934714e+002,2.443195e+001
7.944357e+002,2.315228e+001
7.953999e+002,2.198694e+001
7.963641e+002,2.126904e+001
7.973284e+002,2.116010e+001
7.982926e+002,2.168317e+001
7.992568e+002,2.276257e+001
8.002211e+002,2.370081e+001
8.011853e+002,2.386591e+001
8.021495e+002,2.380835e+001
8.031138e+002,2.425415e+001
8.040780e+002,2.546552e+001
8.050422e+002,2.715363e+001
8.060065e+002,2.857043e+001
8.069707e+002,2.885681e+001
8.079349e+002,2.853784e+001
8.088992e+002,2.859668e+001
8.098634e+002,2.948468e+001
8.108276e+002,3.040015e+001
8.117919e+002,2.933118e+001
8.127561e+002,2.639886e+001
8.137203e+002,2.360559e+001
8.146846e+002,2.173834e+001
8.156488e+002,2.057373e+001
8.166130e+002,1.936505e+001
8.175773e+002,1.766016e+001
8.185415e+002,1.783209e+001
8.195057e+002,1.965259e+001
8.204700e+002,2.219025e+001
8.214342e+002,2.614404e+001
8.223984e+002,3.060327e+001
8.233627e+002,3.318549e+001
8.243269e+002,3.257245e+001
8.252911e+002,3.133112e+001
8.262554e+002,3.103186e+001
8.272196e+002,3.093188e+001
8.281838e+002,3.011230e+001
8.291481e+002,2.828772e+001
8.301123e+002,2.594592e+001
8.310765e+002,2.375336e+001
8.320408e+002,2.179468e+001
8.330050e+002,2.145386e+001
8.339692e+002,2.318964e+001
8.349335e+002,2.580847e+001
8.358977e+002,2.841254e+001
8.368619e+002,3.133984e+001
8.378262e+002,3.408197e+001
8.387904e+002,3.770844e+001
8.397546e+002,3.900769e+001
8.407189e+002,3.466473e+001
8.416831e+002,2.813788e+001
8.426473e+002,2.582935e+001
8.436116e+002,3.145355e+001
8.445758e+002,3.847870e+001
8.455400e+002,3.899255e+001
8.465043e+002,3.623175e+001
8.474685e+002,3.417438e+001
8.484327e+002,3.441821e+001
8.493970e+002,3.627759e+001
8.503612e+002,3.800183e+001
8.513254e+002,3.938477e+001
8.522897e+002,3.984680e+001
8.532539e+002,3.812439e+001
8.542181e+002,3.653076e+001
8.551824e+002,3.678265e+001
8.561466e+002,3.931500e+001
8.571108e+002,4.362152e+001
8.580751e+002,5.031207e+001
8.590393e+002,5.514032e+001
8.600035e+002,5.688910e+001
8.609678e+002,5.704333e+001
8.619320e+002,5.655127e+001
8.628962e+002,5.593719e+001
8.638605e+002,5.630304e+001
8.648247e+002,6.054584e+001
8.657889e+002,6.664484e+001
8.667532e+002,7.053314e+001
8.677174e+002,7.166449e+001
8.686816e+002,7.111597e+001
8.696459e+002,6.983948e+001
8.706101e+002,6.766895e+001
8.715743e+002,6.841760e+001
8.725386e+002,7.354901e+001
8.735028e+002,7.948932e+001
8.744670e+002,8.623083e+001
8.754313e+002,9.225439e+001
8.763955e+002,9.510901e+001
8.773597e+002,9.354095e+001
8.783240e+002,9.135486e+001
8.792882e+002,8.972662e+001
8.802524e+002,8.932416e+001
8.812167e+002,9.194104e+001
8.821809e+002,9.720062e+001
8.831451e+002,1.023840e+002
8.841094e+002,1.038868e+002
8.850736e+002,1.023452e+002
8.860378e+002,1.044695e+002
8.870021e+002,1.111841e+002
8.879663e+002,1.167316e+002
8.889305e+002,1.165384e+002
8.898948e+002,1.118303e+002
8.908590e+002,1.099483e+002
8.918232e+002,1.138156e+002
8.927875e+002,1.175421e+002
8.937517e+002,1.194701e+002
8.947159e+002,1.210835e+002
8.956802e+002,1.233460e+002
8.966444e+002,1.261743e+002
8.976086e+002,1.289077e+002
8.985729e+002,1.320514e+002
8.995371e+002,1.346084e+002
9.005013e+002,1.333920e+002
9.014656e+002,1.295172e+002
9.024298e+002,1.274450e+002
9.033940e+002,1.304471e+002
9.043583e+002,1.372993e+002
9.053225e+002,1.415557e+002
9.062867e+002,1.401523e+002
9.072510e+002,1.391183e+002
9.082152e+002,1.400698e+002
9.091794e+002,1.416554e+002
9.101437e+002,1.420693e+002
9.111079e+002,1.409511e+002
9.120721e+002,1.404346e+002
9.130364e+002,1.423500e+002
9.140006e+002,1.437642e+002
9.149648e+002,1.426110e+002
9.159291e+002,1.403633e+002
9.168933e+002,1.399081e+002
9.178575e+002,1.429692e+002
9.188218e+002,1.478652e+002
9.197860e+002,1.498595e+002
9.207502e+002,1.488196e+002
9.217145e+002,1.450072e+002
9.226787e+002,1.368827e+002
9.236429e+002,1.287127e+002
9.246072e+002,1.266851e+002
9.255714e+002,1.319979e+002
9.265356e+002,1.348620e+002
9.274999e+002,1.318674e+002
9.284641e+002,1.277043e+002
9.294283e+002,1.231557e+002
9.303926e+002,1.191702e+002
9.313568e+002,1.171481e+002
9.323210e+002,1.179167e+002
9.332853e+002,1.190506e+002
9.342495e+002,1.156996e+002
9.352137e+002,1.101361e+002
9.361780e+002,1.063904e+002
9.371422e+002,1.057006e+002
9.381064e+002,1.063458e+002
9.390707e+002,1.053641e+002
9.400349e+002,1.016293e+002
9.409991e+002,1.001864e+002
9.419634e+002,1.027095e+002
9.429276e+002,1.047688e+002
9.438918e+002,1.054843e+002
9.448561e+002,1.051416e+002
9.458203e+002,1.040939e+002
9.467845e+002,1.023760e+002
9.477488e+002,1.011368e+002
9.487130e+002,1.017732e+002
9.496772e+002,1.026279e+002
9.506415e+002,1.021915e+002
9.516057e+002,1.005424e+002
9.525699e+002,9.885602e+001
9.535342e+002,9.822723e+001
9.544984e+002,9.823291e+001
9.554626e+002,9.682849e+001
9.564269e+002,9.448621e+001
9.573911e+002,9.264197e+001
9.583553e+002,9.104620e+001
9.593196e+002,9.011365e+001
9.602838e+002,9.112842e+001
9.612480e+002,9.480585e+001
9.622123e+002,9.675647e+001
9.631765e+002,9.569397e+001
9.641407e+002,9.310864e+001
9.651050e+002,8.766315e+001
9.660692e+002,8.110016e+001
9.670334e+002,7.714984e+001
9.679977e+002,7.847803e+001
9.689619e+002,8.276843e+001
9.699261e+002,8.373315e+001
9.708904e+002,8.230023e+001
9.718546e+002,8.253326e+001
9.728188e+002,8.533612e+001
9.737831e+002,8.897717e+001
9.747473e+002,9.114362e+001
9.757115e+002,9.144965e+001
9.766758e+002,9.339746e+001
9.776400e+002,9.982062e+001
9.786042e+002,1.052850e+002
9.795685e+002,1.093066e+002
9.805327e+002,1.105544e+002
9.814969e+002,1.069520e+002
9.824612e+002,9.809851e+001
9.834254e+002,8.880273e+001
9.843896e+002,8.273761e+001
9.853539e+002,7.853973e+001
9.863181e+002,7.561670e+001
9.872823e+002,7.325311e+001
9.882466e+002,7.015509e+001
9.892108e+002,6.565808e+001
9.901750e+002,6.090955e+001
9.911393e+002,5.944324e+001
9.921035e+002,6.259009e+001
9.930677e+002,6.416699e+001
9.940320e+002,6.317432e+001
9.949962e+002,6.213556e+001
9.959604e+002,6.279755e+001
9.969247e+002,6.548444e+001
9.978889e+002,7.114874e+001
9.988531e+002,8.303741e+001
9.998174e+002,9.298517e+001
1.000782e+003,9.545740e+001
1.001746e+003,9.400391e+001
1.002710e+003,9.387030e+001
1.003674e+003,9.717279e+001
1.004639e+003,1.015754e+002
1.005603e+003,1.031143e+002
1.006567e+003,1.012364e+002
1.007531e+003,9.708960e+001
1.008495e+003,8.901569e+001
1.009460e+003,8.217511e+001
1.010424e+003,8.022101e+001
1.011388e+003,8.229340e+001
1.012352e+003,8.502612e+001
1.013317e+003,9.003003e+001
1.014281e+003,9.057288e+001
1.015245e+003,8.263586e+001
1.016209e+003,7.192621e+001
1.017174e+003,6.135278e+001
1.018138e+003,5.229498e+001
1.019102e+003,4.565839e+001
1.020066e+003,4.244885e+001
1.021031e+003,4.201575e+001
1.021995e+003,4.247406e+001
1.022959e+003,4.305511e+001
1.023923e+003,4.131085e+001
1.024887e+003,3.576099e+001
1.025852e+003,2.849493e+001
1.026816e+003,2.291376e+001
1.027780e+003,1.960242e+001
1.028744e+003,1.710461e+001
1.029709e+003,1.555255e+001
1.030673e+003,1.428668e+001
1.031637e+003,1.320966e+001
1.032601e+003,1.196814e+001
1.033566e+003,1.022729e+001
1.034530e+003,8.021423e+000
1.035494e+003,5.932617e+000
1.036458e+003,3.963623e+000
1.037422e+003,2.598877e+000
1.038387e+003,3.344177e+000
1.039351e+003,5.808167e+000
1.040315e+003,7.473450e+000
1.041279e+003,6.380310e+000
1.042244e+003,3.637817e+000
1.043208e+003,3.894836e+000
1.044172e+003,9.107300e+000
1.045136e+003,1.315417e+001
1.046101e+003,1.704889e+001
1.047065e+003,1.922052e+001
1.048029e+003,1.715155e+001
1.048993e+003,1.204224e+001
1.049958e+003,8.705139e+000
1.050922e+003,1.007947e+001
1.051886e+003,1.288940e+001
1.052850e+003,1.407507e+001
1.053814e+003,1.419830e+001
1.054779e+003,1.365442e+001
1.055743e+003,1.258630e+001
1.056707e+003,1.128772e+001
1.057671e+003,1.008148e+001
1.058636e+003,8.867737e+000
1.059600e+003,8.878967e+000
1.060564e+003,1.102197e+001
1.061528e+003,1.420337e+001
1.062493e+003,1.904315e+001
1.063457e+003,2.344928e+001
1.064421e+003,2.574213e+001
1.065385e+003,2.588776e+001
1.066349e+003,2.358582e+001
1.067314e+003,1.592096e+001
1.068278e+003,9.112427e+000
1.069242e+003,8.283325e+000
1.070206e+003,1.115381e+001
1.071171e+003,1.399298e+001
1.072135e+003,1.492316e+001
1.073099e+003,1.449249e+001
1.074063e+003,1.392139e+001
1.075028e+003,1.332867e+001
1.075992e+003,1.389355e+001
1.076956e+003,1.631213e+001
1.077920e+003,1.776221e+001
1.078885e+003,1.715479e+001
1.079849e+003,1.559564e+001
1.080813e+003,1.477771e+001
1.081777e+003,1.507239e+001
1.082741e+003,1.572510e+001
1.083706e+003,1.644293e+001
1.084670e+003,1.634344e+001
1.085634e+003,1.443622e+001
1.086598e+003,1.140637e+001
1.087563e+003,8.698792e+000
1.088527e+003,7.328918e+000
1.089491e+003,7.081421e+000
1.090455e+003,6.873718e+000
1.091420e+003,6.330627e+000
1.092384e+003,5.887695e+000
1.093348e+003,5.483398e+000
1.094312e+003,4.593140e+000
1.095276e+003,2.863953e+000
1.096241e+003,9.796143e-001
1.097205e+003,4.985352e-001
1.098169e+003,2.107483e+000
1.099133e+003,2.507507e+000
1.100098e+003,-1.553833e+000
1.101062e+003,-4.861206e+000
1.102026e+003,-3.206787e+000
1.102990e+003,1.986938e+000
1.103955e+003,6.682800e+000
1.104919e+003,8.335815e+000
1.105883e+003,7.978577e+000
1.106847e+003,8.010986e+000
1.107812e+003,8.355957e+000
1.108776e+003,8.089539e+000
1.109740e+003,6.689880e+000
1.110704e+003,5.695190e+000
1.111668e+003,7.030701e+000
1.112633e+003,1.034308e+001
1.113597e+003,1.275427e+001
1.114561e+003,1.342035e+001
1.115525e+003,1.354816e+001
1.116490e+003,1.260315e+001
1.117454e+003,1.204248e+001
1.118418e+003,1.365515e+001
1.119382e+003,1.695825e+001
1.120347e+003,2.002582e+001
1.121311e+003,2.130609e+001
1.122275e+003,2.081451e+001
1.123239e+003,1.940851e+001
1.124203e+003,1.786188e+001
1.125168e+003,1.798071e+001
1.126132e+003,2.038666e+001
1.127096e+003,2.359729e+001
1.128060e+003,2.660681e+001
1.129025e+003,2.917731e+001
1.129989e+003,3.072479e+001
1.130953e+003,3.014392e+001
1.131917e+003,3.053485e+001
1.132882e+003,3.400049e+001
1.133846e+003,3.770746e+001
1.134810e+003,3.922131e+001
1.135774e+003,3.966083e+001
1.136739e+003,4.197675e+001
1.137703e+003,4.776447e+001
1.138667e+003,5.521790e+001
1.139631e+003,6.122296e+001
1.140595e+003,6.598651e+001
1.141560e+003,7.230969e+001
1.142524e+003,8.068512e+001
1.143488e+003,9.067572e+001
1.144452e+003,1.018737e+002
1.145417e+003,1.142699e+002
1.146381e+003,1.277802e+002
1.147345e+003,1.419318e+002
1.148309e+003,1.581172e+002
1.149274e+003,1.760781e+002
1.150238e+003,1.969696e+002
1.151202e+003,2.245432e+002
1.152166e+003,2.552575e+002
1.153130e+003,2.838532e+002
1.154095e+003,3.070728e+002
1.155059e+003,3.227528e+002
1.156023e+003,3.277279e+002
1.156987e+003,3.228350e+002
1.157952e+003,3.174718e+002
1.158916e+003,3.134622e+002
1.159880e+003,3.044888e+002
1.160844e+003,2.846822e+002
1.161809e+003,2.567316e+002
1.162773e+003,2.269622e+002
1.163737e+003,1.940914e+002
1.164701e+003,1.656225e+002
1.165666e+003,1.455101e+002
1.166630e+003,1.289232e+002
1.167594e+003,1.148563e+002
1.168558e+003,1.028463e+002
1.169522e+003,9.282489e+001
1.170487e+003,8.466125e+001
1.171451e+003,7.806635e+001
1.172415e+003,7.255530e+001
1.173379e+003,6.822986e+001
1.174344e+003,6.671991e+001
1.175308e+003,6.833771e+001
1.176272e+003,6.917120e+001
1.177236e+003,6.769849e+001
1.178201e+003,6.533881e+001
1.179165e+003,6.379413e+001
1.180129e+003,6.275830e+001
1.181093e+003,6.026666e+001
1.182057e+003,5.433197e+001
1.183022e+003,4.981659e+001
1.183986e+003,4.964215e+001
1.184950e+003,5.082538e+001
1.185914e+003,5.059314e+001
1.186879e+003,4.879291e+001
1.187843e+003,4.692139e+001
1.188807e+003,4.604108e+001
1.189771e+003,4.595270e+001
1.190736e+003,4.693579e+001
1.191700e+003,4.918347e+001
1.192664e+003,4.973334e+001
1.193628e+003,4.781104e+001
1.194593e+003,4.539392e+001
1.195557e+003,4.425336e+001
1.196521e+003,4.362451e+001
1.197485e+003,4.056305e+001
1.198449e+003,3.359259e+001
1.199414e+003,2.779242e+001
1.200378e+003,2.754333e+001
1.201342e+003,2.739716e+001
1.202306e+003,2.230383e+001
1.203271e+003,1.455688e+001
1.204235e+003,9.989624e+000
1.205199e+003,1.132813e+001
1.206163e+003,1.534460e+001
1.207128e+003,1.668365e+001
1.208092e+003,1.527997e+001
1.209056e+003,1.151611e+001
1.210020e+003,3.815552e+000
1.210984e+003,-2.624268e+000
1.211949e+003,-5.058044e+000
1.212913e+003,-6.435425e+000
1.213877e+003,-1.078687e+001
1.214841e+003,-1.816144e+001
1.215806e+003,-2.463226e+001
1.216770e+003,-2.862549e+001
1.217734e+003,-3.161072e+001
1.218698e+003,-3.507813e+001
1.219663e+003,-3.845721e+001
1.220627e+003,-4.064465e+001
1.221591e+003,-4.168585e+001
1.222555e+003,-4.295319e+001
1.223520e+003,-4.568793e+001
1.224484e+003,-4.915979e+001
1.225448e+003,-5.065851e+001
1.226412e+003,-4.855145e+001
1.227376e+003,-4.839655e+001
1.228341e+003,-5.201373e+001
1.229305e+003,-5.575159e+001
1.230269e+003,-5.755756e+001
1.231233e+003,-5.814240e+001
1.232198e+003,-5.906207e+001
1.233162e+003,-6.056964e+001
1.234126e+003,-6.145538e+001
1.235090e+003,-6.128998e+001
1.236055e+003,-6.012714e+001
1.237019e+003,-5.692279e+001
1.237983e+003,-5.296649e+001
1.238947e+003,-5.148706e+001
1.239911e+003,-5.359918e+001
1.240876e+003,-5.691309e+001
1.241840e+003,-5.815674e+001
1.242804e+003,-5.722211e+001
1.243768e+003,-5.585510e+001
1.244733e+003,-5.343616e+001
1.245697e+003,-5.136841e+001
1.246661e+003,-4.957471e+001
1.247625e+003,-4.907343e+001
1.248590e+003,-5.168634e+001
1.249554e+003,-5.572864e+001
1.250518e+003,-5.680688e+001
1.251482e+003,-5.300104e+001
1.252447e+003,-4.772729e+001
1.253411e+003,-4.377026e+001
1.254375e+003,-4.133600e+001
1.255339e+003,-4.200562e+001
1.256303e+003,-4.543158e+001
1.257268e+003,-4.730438e+001
1.258232e+003,-4.504913e+001
1.259196e+003,-4.096295e+001
1.260160e+003,-3.929578e+001
1.261125e+003,-4.027533e+001
1.262089e+003,-4.000787e+001
1.263053e+003,-3.742902e+001
1.264017e+003,-3.517255e+001
1.264982e+003,-3.379211e+001
1.265946e+003,-3.274542e+001
1.266910e+003,-3.154456e+001
1.267874e+003,-3.014154e+001
1.268839e+003,-2.855701e+001
1.269803e+003,-2.676855e+001
1.270767e+003,-2.534009e+001
1.271731e+003,-2.541248e+001
1.272695e+003,-2.682941e+001
1.273660e+003,-2.865692e+001
1.274624e+003,-3.204211e+001
1.275588e+003,-3.443274e+001
1.276552e+003,-3.243103e+001
1.277517e+003,-2.868237e+001
1.278481e+003,-2.932404e+001
1.279445e+003,-3.520612e+001
1.280409e+003,-3.970740e+001
1.281374e+003,-3.958032e+001
1.282338e+003,-3.896814e+001
1.283302e+003,-4.044525e+001
1.284266e+003,-4.251147e+001
1.285230e+003,-4.313873e+001
1.286195e+003,-4.235675e+001
1.287159e+003,-4.187073e+001
1.288123e+003,-4.292017e+001
1.289087e+003,-4.473944e+001
1.290052e+003,-4.575763e+001
1.291016e+003,-4.613458e+001
1.291980e+003,-4.613116e+001
1.292944e+003,-4.561584e+001
1.293909e+003,-4.562189e+001
1.294873e+003,-4.641705e+001
1.295837e+003,-4.741248e+001
1.296801e+003,-4.766626e+001
1.297766e+003,-4.717999e+001
1.298730e+003,-4.789648e+001
1.299694e+003,-5.219415e+001
1.300658e+003,-5.609875e+001
1.301622e+003,-5.351477e+001
1.302587e+003,-4.797076e+001
1.303551e+003,-4.531604e+001
1.304515e+003,-4.633728e+001
1.305479e+003,-4.828625e+001
1.306444e+003,-4.950537e+001
1.307408e+003,-4.981952e+001
1.308372e+003,-4.746161e+001
1.309336e+003,-4.046259e+001
1.310301e+003,-3.706976e+001
1.311265e+003,-3.986041e+001
1.312229e+003,-4.306787e+001
1.313193e+003,-4.617902e+001
1.314157e+003,-4.831396e+001
1.315122e+003,-4.803796e+001
1.316086e+003,-4.593817e+001
1.317050e+003,-4.467426e+001
1.318014e+003,-4.590674e+001
1.318979e+003,-4.783862e+001
1.319943e+003,-4.730005e+001
1.320907e+003,-4.445660e+001
1.321871e+003,-4.259149e+001
1.322836e+003,-4.242590e+001
1.323800e+003,-4.296674e+001
1.324764e+003,-4.473407e+001
1.325728e+003,-4.619861e+001
1.326693e+003,-4.411548e+001
1.327657e+003,-3.853516e+001
1.328621e+003,-3.495374e+001
1.329585e+003,-3.418127e+001
1.330549e+003,-3.456116e+001
1.331514e+003,-3.726605e+001
1.332478e+003,-4.058258e+001
1.333442e+003,-4.223950e+001
1.334406e+003,-4.232465e+001
1.335371e+003,-4.275726e+001
1.336335e+003,-4.466815e+001
1.337299e+003,-4.670996e+001
1.338263e+003,-4.637384e+001
1.339228e+003,-4.333105e+001
1.340192e+003,-4.080444e+001
1.341156e+003,-3.892957e+001
1.342120e+003,-3.734827e+001
1.343084e+003,-3.613562e+001
1.344049e+003,-3.579102e+001
1.345013e+003,-3.710107e+001
1.345977e+003,-3.908112e+001
1.346941e+003,-3.916022e+001
1.347906e+003,-3.633130e+001
1.348870e+003,-3.351111e+001
1.349834e+003,-3.401135e+001
1.350798e+003,-3.611469e+001
1.351763e+003,-3.579883e+001
1.352727e+003,-3.339691e+001
1.353691e+003,-3.167505e+001
1.354655e+003,-3.173901e+001
1.355620e+003,-3.222559e+001
1.356584e+003,-3.091510e+001
1.357548e+003,-2.809650e+001
1.358512e+003,-2.798322e+001
1.359476e+003,-3.279578e+001
1.360441e+003,-3.622504e+001
1.361405e+003,-3.446973e+001
1.362369e+003,-3.295001e+001
1.363333e+003,-3.491125e+001
1.364298e+003,-3.846759e+001
1.365262e+003,-4.088519e+001
1.366226e+003,-4.140918e+001
1.367190e+003,-4.084949e+001
1.368155e+003,-3.990173e+001
1.369119e+003,-3.884180e+001
1.370083e+003,-3.856848e+001
1.371047e+003,-3.940851e+001
1.372011e+003,-3.852209e+001
1.372976e+003,-3.499506e+001
1.373940e+003,-3.188904e+001
1.374904e+003,-3.038507e+001
1.375868e+003,-2.952942e+001
1.376833e+003,-2.813239e+001
1.377797e+003,-2.632306e+001
1.378761e+003,-2.524805e+001
1.379725e+003,-2.535040e+001
1.380690e+003,-2.607422e+001
1.381654e+003,-2.690619e+001
1.382618e+003,-2.782806e+001
1.383582e+003,-2.951184e+001
1.384547e+003,-3.163379e+001
1.385511e+003,-3.186566e+001
1.386475e+003,-2.880927e+001
1.387439e+003,-2.475958e+001
1.388403e+003,-2.333820e+001
1.389368e+003,-2.457648e+001
1.390332e+003,-2.486774e+001
1.391296e+003,-2.317352e+001
1.392260e+003,-2.189795e+001
1.393225e+003,-2.156720e+001
1.394189e+003,-2.193323e+001
1.395153e+003,-2.356024e+001
1.396117e+003,-2.546289e+001
1.397082e+003,-2.600531e+001
1.398046e+003,-2.485406e+001
1.399010e+003,-2.343195e+001
1.399974e+003,-2.331000e+001
1.400938e+003,-2.414972e+001
1.401903e+003,-2.356458e+001
1.402867e+003,-2.012512e+001
1.403831e+003,-1.650452e+001
1.404795e+003,-1.204712e+001
1.405760e+003,-9.251831e+000
1.406724e+003,-1.020807e+001
1.407688e+003,-1.375775e+001
1.408652e+003,-1.881616e+001
1.409617e+003,-2.417206e+001
1.410581e+003,-2.718207e+001
1.411545e+003,-2.669757e+001
1.412509e+003,-2.425885e+001
1.413474e+003,-2.018707e+001
1.414438e+003,-1.652631e+001
1.415402e+003,-1.648608e+001
1.416366e+003,-1.916138e+001
1.417330e+003,-2.067377e+001
1.418295e+003,-1.924658e+001
1.419259e+003,-1.716284e+001
1.420223e+003,-1.762964e+001
1.421187e+003,-2.032935e+001
1.422152e+003,-2.182709e+001
1.423116e+003,-2.177753e+001
1.424080e+003,-1.989075e+001
1.425044e+003,-1.360175e+001
1.426009e+003,-8.961670e+000
1.426973e+003,-1.022113e+001
1.427937e+003,-1.354291e+001
1.428901e+003,-1.429333e+001
1.429865e+003,-1.182813e+001
1.430830e+003,-7.895081e+000
1.431794e+003,-3.915405e+000
1.432758e+003,-1.038269e+000
1.433722e+003,-1.177917e+000
1.434687e+003,-4.051453e+000
1.435651e+003,-5.770691e+000
1.436615e+003,-8.015442e+000
1.437579e+003,-9.330811e+000
1.438544e+003,-8.735291e+000
1.439508e+003,-7.660767e+000
1.440472e+003,-6.515686e+000
1.441436e+003,-5.283997e+000
1.442401e+003,-4.256042e+000
1.443365e+003,-3.556458e+000
1.444329e+003,-2.551025e+000
1.445293e+003,-4.581299e-001
1.446257e+003,1.840881e+000
1.447222e+003,2.239136e+000
1.448186e+003,1.002869e+000
1.449150e+003,-2.796021e-001
1.450114e+003,-1.731262e+000
1.451079e+003,-2.768494e+000
1.452043e+003,-2.289368e+000
1.453007e+003,-1.246399e+000
1.453971e+003,-1.364319e+000
1.454936e+003,-2.659851e+000
1.455900e+003,-3.877380e+000
1.456864e+003,-4.654785e+000
1.457828e+003,-4.933350e+000
1.458792e+003,-4.765625e+000
1.459757e+003,-4.505981e+000
1.460721e+003,-4.195740e+000
1.461685e+003,-4.063843e+000
1.462649e+003,-4.707886e+000
1.463614e+003,-5.985840e+000
1.464578e+003,-6.468872e+000
1.465542e+003,-4.883179e+000
1.466506e+003,-2.171631e+000
1.467471e+003,-6.043091e-001
1.468435e+003,1.374512e-001
1.469399e+003,4.818115e-001
1.470363e+003,-1.596191e+000
1.471328e+003,-2.068542e+000
1.472292e+003,1.312073e+000
1.473256e+003,4.459778e+000
1.474220e+003,4.670837e+000
1.475184e+003,3.178955e+000
1.476149e+003,2.180176e+000
1.477113e+003,2.256287e+000
1.478077e+003,2.794373e+000
1.479041e+003,3.559387e+000
1.480006e+003,4.576477e+000
1.480970e+003,4.966797e+000
1.481934e+003,3.708862e+000
1.482898e+003,4.502136e+000
1.483863e+003,9.298035e+000
1.484827e+003,1.296851e+001
1.485791e+003,1.361731e+001
1.486755e+003,1.373755e+001
1.487719e+003,1.524658e+001
1.488684e+003,1.780597e+001
1.489648e+003,2.044507e+001
1.490612e+003,2.303943e+001
1.491576e+003,2.589667e+001
1.492541e+003,2.907281e+001
1.493505e+003,3.248962e+001
1.494469e+003,3.593140e+001
1.495433e+003,3.908099e+001
1.496398e+003,4.312775e+001
1.497362e+003,4.931104e+001
1.498326e+003,5.508850e+001
1.499290e+003,5.732111e+001
1.500255e+003,5.954114e+001
1.501219e+003,6.733148e+001
1.502183e+003,7.960010e+001
1.503147e+003,8.998700e+001
1.504111e+003,9.681970e+001
1.505076e+003,1.029762e+002
1.506040e+003,1.076722e+002
1.507004e+003,1.154371e+002
1.507968e+003,1.323181e+002
1.508933e+003,1.546928e+002
1.509897e+003,1.749547e+002
1.510861e+003,1.923661e+002
1.511825e+003,2.115015e+002
1.512790e+003,2.353080e+002
1.513754e+003,2.617931e+002
1.514718e+003,2.881265e+002
1.515682e+003,3.139213e+002
1.516646e+003,3.390098e+002
1.517611e+003,3.642744e+002
1.518575e+003,3.878897e+002
1.519539e+003,4.109096e+002
1.520503e+003,4.312572e+002
1.521468e+003,4.489904e+002
1.522432e+003,4.623091e+002
1.523396e+003,4.689395e+002
1.524360e+003,4.686439e+002
1.525325e+003,4.627372e+002
1.526289e+003,4.522111e+002
1.527253e+003,4.378973e+002
1.528217e+003,4.210583e+002
1.529182e+003,4.020454e+002
1.530146e+003,3.792926e+002
1.531110e+003,3.498080e+002
1.532074e+003,3.213289e+002
1.533039e+003,2.966167e+002
1.534003e+003,2.684922e+002
1.534967e+003,2.315597e+002
1.535931e+003,1.927842e+002
1.536896e+003,1.579440e+002
1.537860e+003,1.291907e+002
1.538824e+003,1.083869e+002
1.539788e+003,9.586646e+001
1.540752e+003,8.673560e+001
1.541717e+003,7.469965e+001
1.542681e+003,6.112091e+001
1.543645e+003,5.326367e+001
1.544609e+003,5.461945e+001
1.545573e+003,5.415332e+001
1.546538e+003,4.938287e+001
1.547502e+003,4.490771e+001
1.548466e+003,4.227423e+001
1.549430e+003,4.186536e+001
1.550395e+003,4.517950e+001
1.551359e+003,5.029010e+001
1.552323e+003,5.255841e+001
1.553287e+003,5.049219e+001
1.554252e+003,4.664032e+001
1.555216e+003,4.312933e+001
1.556180e+003,3.937915e+001
1.557144e+003,3.346344e+001
1.558109e+003,2.549304e+001
1.559073e+003,2.099139e+001
1.560037e+003,2.073804e+001
1.561001e+003,2.121478e+001
1.561966e+003,2.254938e+001
1.562930e+003,2.406689e+001
1.563894e+003,2.469556e+001
1.564858e+003,2.459412e+001
1.565823e+003,2.439423e+001
1.566787e+003,2.420673e+001
1.567751e+003,2.437494e+001
1.568715e+003,2.540704e+001
1.569679e+003,2.645667e+001
1.570644e+003,2.587756e+001
1.571608e+003,2.416907e+001
1.572572e+003,2.335870e+001
1.573536e+003,2.375629e+001
1.574500e+003,2.589514e+001
1.575465e+003,3.145221e+001
1.576429e+003,3.609552e+001
1.577393e+003,3.454565e+001
1.578357e+003,3.010101e+001
1.579322e+003,3.003668e+001
1.580286e+003,3.462012e+001
1.581250e+003,3.848358e+001
1.582214e+003,3.991028e+001
1.583179e+003,4.064240e+001
1.584143e+003,4.189093e+001
1.585107e+003,4.271490e+001
1.586071e+003,4.221857e+001
1.587036e+003,4.116528e+001
1.588000e+003,4.037555e+001
1.588964e+003,3.967987e+001
1.589928e+003,3.966785e+001
1.590893e+003,4.114349e+001
1.591857e+003,4.327875e+001
1.592821e+003,4.471735e+001
1.593785e+003,4.573279e+001
1.594750e+003,4.769647e+001
1.595714e+003,5.082410e+001
1.596678e+003,5.310217e+001
1.597642e+003,5.237042e+001
1.598606e+003,5.271783e+001
1.599571e+003,6.043665e+001
1.600535e+003,6.958722e+001
1.601499e+003,7.139526e+001
1.602463e+003,6.641663e+001
1.603427e+003,6.130060e+001
1.604392e+003,5.855292e+001
1.605356e+003,5.802783e+001
1.606320e+003,6.090674e+001
1.607284e+003,6.548883e+001
1.608249e+003,6.643054e+001
1.609213e+003,6.358746e+001
1.610177e+003,6.137769e+001
1.611141e+003,6.026025e+001
1.612106e+003,6.051178e+001
1.613070e+003,6.412836e+001
1.614034e+003,6.736615e+001
1.614998e+003,6.661719e+001
1.615963e+003,6.399811e+001
1.616927e+003,6.332349e+001
1.617891e+003,6.489447e+001
1.618855e+003,6.591266e+001
1.619820e+003,6.437531e+001
1.620784e+003,6.201520e+001
1.621748e+003,6.232672e+001
1.622712e+003,6.530786e+001
1.623677e+003,6.729230e+001
1.624641e+003,6.810492e+001
1.625605e+003,6.918903e+001
1.626569e+003,7.060425e+001
1.627533e+003,7.057892e+001
1.628498e+003,6.780597e+001
1.629462e+003,6.467047e+001
1.630426e+003,6.229480e+001
1.631390e+003,6.119659e+001
1.632354e+003,6.269452e+001
1.633319e+003,6.675458e+001
1.634283e+003,7.084070e+001
1.635247e+003,7.314142e+001
1.636211e+003,7.395026e+001
1.637176e+003,7.367993e+001
1.638140e+003,7.261371e+001
1.639104e+003,7.268036e+001
1.640068e+003,7.468787e+001
1.641033e+003,7.393915e+001
1.641997e+003,6.618384e+001
1.642961e+003,6.031549e+001
1.643925e+003,6.213806e+001
1.644890e+003,6.651892e+001
1.645854e+003,6.841040e+001
1.646818e+003,6.829498e+001
1.647782e+003,6.939270e+001
1.648747e+003,7.246655e+001
1.649711e+003,7.392737e+001
1.650675e+003,7.036481e+001
1.651639e+003,6.513293e+001
1.652604e+003,6.514215e+001
1.653568e+003,6.994653e+001
1.654532e+003,7.351935e+001
1.655496e+003,7.576355e+001
1.656460e+003,7.605585e+001
1.657425e+003,7.385101e+001
1.658389e+003,7.038403e+001
1.659353e+003,6.456763e+001
1.660317e+003,5.916376e+001
1.661281e+003,5.757825e+001
1.662246e+003,5.888446e+001
1.663210e+003,6.030560e+001
1.664174e+003,6.097675e+001
1.665138e+003,6.036908e+001
1.666103e+003,5.731787e+001
1.667067e+003,5.333685e+001
1.668031e+003,5.210370e+001
1.668995e+003,5.347876e+001
1.669960e+003,5.369904e+001
1.670924e+003,5.218286e+001
1.671888e+003,5.140894e+001
1.672852e+003,5.247577e+001
1.673817e+003,5.352881e+001
1.674781e+003,5.369427e+001
1.675745e+003,5.296680e+001
1.676709e+003,5.059277e+001
1.677674e+003,4.731732e+001
1.678638e+003,4.554816e+001
1.679602e+003,4.603467e+001
1.680566e+003,4.649463e+001
1.681531e+003,4.538171e+001
1.682495e+003,4.343457e+001
1.683459e+003,4.117157e+001
1.684423e+003,3.853375e+001
1.685387e+003,3.655664e+001
1.686352e+003,3.544727e+001
1.687316e+003,3.531659e+001
1.688280e+003,3.692755e+001
1.689244e+003,3.810925e+001
1.690208e+003,3.553870e+001
1.691173e+003,3.267419e+001
1.692137e+003,3.472504e+001
1.693101e+003,4.022095e+001
1.694065e+003,4.291479e+001
1.695030e+003,4.087659e+001
1.695994e+003,3.795721e+001
1.696958e+003,3.680237e+001
1.697922e+003,3.606342e+001
1.698887e+003,3.319415e+001
1.699851e+003,2.956824e+001
1.700815e+003,3.032446e+001
1.701779e+003,3.551044e+001
1.702744e+003,3.621710e+001
1.703708e+003,2.886877e+001
1.704672e+003,2.143701e+001
1.705636e+003,1.875305e+001
1.706601e+003,1.911444e+001
1.707565e+003,2.204749e+001
1.708529e+003,2.654480e+001
1.709493e+003,2.817566e+001
1.710458e+003,2.609454e+001
1.711422e+003,2.382776e+001
1.712386e+003,2.309082e+001
1.713350e+003,2.294336e+001
1.714314e+003,2.264856e+001
1.715279e+003,2.174286e+001
1.716243e+003,1.916266e+001
1.717207e+003,1.550311e+001
1.718171e+003,1.374109e+001
1.719135e+003,1.477673e+001
1.720100e+003,1.580823e+001
1.721064e+003,1.474786e+001
1.722028e+003,1.288275e+001
1.722992e+003,1.240210e+001
1.723957e+003,1.341028e+001
1.724921e+003,1.426953e+001
1.725885e+003,1.437000e+001
1.726849e+003,1.412323e+001
1.727814e+003,1.405737e+001
1.728778e+003,1.440717e+001
1.729742e+003,1.515851e+001
1.730706e+003,1.620319e+001
1.731671e+003,1.756311e+001
1.732635e+003,1.838531e+001
1.733599e+003,1.774048e+001
1.734563e+003,1.593976e+001
1.735528e+003,1.363892e+001
1.736492e+003,1.101764e+001
1.737456e+003,9.281128e+000
1.738420e+003,1.007898e+001
1.739385e+003,1.216333e+001
1.740349e+003,1.191992e+001
1.741313e+003,8.929260e+000
1.742277e+003,7.160278e+000
1.743241e+003,8.257507e+000
1.744206e+003,8.535767e+000
1.745170e+003,5.440979e+000
1.746134e+003,3.451965e+000
1.747098e+003,6.242676e+000
1.748063e+003,1.050806e+001
1.749027e+003,1.234784e+001
1.749991e+003,1.212018e+001
1.750955e+003,1.241412e+001
1.751919e+003,1.389410e+001
1.752884e+003,1.474182e+001
1.753848e+003,1.344971e+001
1.754812e+003,1.055890e+001
1.755776e+003,7.144104e+000
1.756741e+003,3.600464e+000
1.757705e+003,2.718567e+000
1.758669e+003,5.609497e+000
1.759633e+003,6.976929e+000
1.760598e+003,4.186523e+000
1.761562e+003,2.327026e+000
1.762526e+003,4.383057e+000
1.763490e+003,7.027344e+000
1.764455e+003,8.057861e+000
1.765419e+003,8.118408e+000
1.766383e+003,8.207764e+000
1.767347e+003,8.312561e+000
1.768312e+003,7.975159e+000
1.769276e+003,6.867981e+000
1.770240e+003,5.489502e+000
1.771204e+003,4.534668e+000
1.772168e+003,4.583679e+000
1.773133e+003,6.696045e+000
1.774097e+003,1.056378e+001
1.775061e+003,1.331427e+001
1.776025e+003,1.435938e+001
1.776990e+003,1.351611e+001
1.777954e+003,1.004755e+001
1.778918e+003,7.449097e+000
1.779882e+003,8.865540e+000
1.780846e+003,1.137292e+001
1.781811e+003,1.133405e+001
1.782775e+003,9.470764e+000
1.783739e+003,7.646667e+000
1.784703e+003,6.136108e+000
1.785668e+003,5.954285e+000
1.786632e+003,8.368286e+000
1.787596e+003,1.020160e+001
1.788560e+003,8.234436e+000
1.789525e+003,5.883545e+000
1.790489e+003,8.599731e+000
1.791453e+003,1.444745e+001
1.792417e+003,1.705975e+001
1.793382e+003,1.528571e+001
1.794346e+003,1.256885e+001
1.795310e+003,1.061774e+001
1.796274e+003,8.837524e+000
1.797239e+003,6.521851e+000
1.798203e+003,4.878784e+000
1.799167e+003,6.844177e+000
1.800131e+003,1.281287e+001
1.801095e+003,1.447864e+001
1.802060e+003,9.228516e+000
1.803024e+003,5.717285e+000
1.803988e+003,4.549561e+000
1.804952e+003,5.021362e+000
1.805917e+003,8.701050e+000
1.806881e+003,1.222791e+001
1.807845e+003,1.134521e+001
1.808809e+003,8.262512e+000
1.809773e+003,8.277832e+000
1.810738e+003,1.205627e+001
1.811702e+003,1.544794e+001
1.812666e+003,1.583466e+001
1.813630e+003,1.515564e+001
1.814595e+003,1.621619e+001
1.815559e+003,1.804651e+001
1.816523e+003,1.641351e+001
1.817487e+003,1.083765e+001
1.818452e+003,8.583679e+000
1.819416e+003,1.159570e+001
1.820380e+003,1.429547e+001
1.821344e+003,1.495654e+001
1.822309e+003,1.452820e+001
1.823273e+003,1.394550e+001
1.824237e+003,1.284167e+001
1.825201e+003,8.972351e+000
1.826166e+003,4.240601e+000
1.827130e+003,4.712891e+000
1.828094e+003,1.110205e+001
1.829058e+003,1.591467e+001
1.830022e+003,1.561688e+001
1.830987e+003,1.332703e+001
1.831951e+003,1.043726e+001
1.832915e+003,7.994019e+000
1.833879e+003,7.989258e+000
1.834844e+003,9.644592e+000
1.835808e+003,9.994263e+000
1.836772e+003,8.928406e+000
1.837736e+003,1.023334e+001
1.838700e+003,1.551971e+001
1.839665e+003,1.983276e+001
1.840629e+003,1.861584e+001
1.841593e+003,1.407465e+001
1.842557e+003,1.009503e+001
1.843522e+003,6.702026e+000
1.844486e+003,7.189453e+000
1.845450e+003,1.614563e+001
1.846414e+003,2.097839e+001
1.847379e+003,1.793707e+001
1.848343e+003,1.473969e+001
1.849307e+003,1.333075e+001
1.850271e+003,1.324402e+001
1.851236e+003,1.499634e+001
1.852200e+003,1.754688e+001
1.853164e+003,1.958984e+001
1.854128e+003,2.041681e+001
1.855093e+003,1.929358e+001
1.856057e+003,1.658087e+001
1.857021e+003,1.498035e+001
1.857985e+003,1.675934e+001
1.858949e+003,1.961798e+001
1.859914e+003,1.925262e+001
1.860878e+003,1.655579e+001
1.861842e+003,1.656152e+001
1.862806e+003,1.927240e+001
1.863771e+003,1.935083e+001
1.864735e+003,1.470538e+001
1.865699e+003,1.242572e+001
1.866663e+003,1.683917e+001
1.867627e+003,2.287518e+001
1.868592e+003,2.703870e+001
1.869556e+003,2.855078e+001
1.870520e+003,2.505603e+001
1.871484e+003,1.768982e+001
1.872449e+003,1.489532e+001
1.873413e+003,1.999658e+001
1.874377e+003,2.399200e+001
1.875341e+003,2.187518e+001
1.876306e+003,1.943927e+001
1.877270e+003,1.952136e+001
1.878234e+003,2.074115e+001
1.879198e+003,2.237750e+001
1.880163e+003,2.398157e+001
1.881127e+003,2.522717e+001
1.882091e+003,2.593774e+001
1.883055e+003,2.529047e+001
1.884020e+003,2.316919e+001
1.884984e+003,2.174170e+001
1.885948e+003,2.303894e+001
1.886912e+003,2.579803e+001
1.887876e+003,2.768671e+001
1.888841e+003,2.873108e+001
1.889805e+003,2.839258e+001
1.890769e+003,2.617816e+001
1.891733e+003,2.536658e+001
1.892698e+003,2.668939e+001
1.893662e+003,2.763269e+001
1.894626e+003,2.660645e+001
1.895590e+003,2.621100e+001
1.896554e+003,3.033850e+001
1.897519e+003,3.495795e+001
1.898483e+003,3.377911e+001
1.899447e+003,2.828271e+001
1.900411e+003,2.500598e+001
1.901376e+003,2.516095e+001
1.902340e+003,2.707172e+001
1.903304e+003,3.200458e+001
1.904268e+003,3.541016e+001
1.905233e+003,3.337476e+001
1.906197e+003,2.984424e+001
1.907161e+003,2.880621e+001
1.908125e+003,2.946741e+001
1.909090e+003,2.978430e+001
1.910054e+003,2.937726e+001
1.911018e+003,2.881177e+001
1.911982e+003,2.853510e+001
1.912947e+003,2.902692e+001
1.913911e+003,3.053802e+001
1.914875e+003,3.227881e+001
1.915839e+003,3.279663e+001
1.916803e+003,3.225824e+001
1.917768e+003,3.321136e+001
1.918732e+003,3.640961e+001
1.919696e+003,3.765912e+001
1.920660e+003,3.618591e+001
1.921625e+003,3.552765e+001
1.922589e+003,3.732898e+001
1.923553e+003,3.811664e+001
1.924517e+003,3.406506e+001
1.925481e+003,3.010406e+001
1.926446e+003,3.129749e+001
1.927410e+003,3.547333e+001
1.928374e+003,3.862183e+001
1.929338e+003,4.011560e+001
1.930303e+003,3.976398e+001
1.931267e+003,3.736310e+001
1.932231e+003,3.541809e+001
1.933195e+003,3.487970e+001
1.934160e+003,3.457526e+001
1.935124e+003,3.314630e+001
1.936088e+003,3.166907e+001
1.937052e+003,3.205109e+001
1.938017e+003,3.386725e+001
1.938981e+003,3.580237e+001
1.939945e+003,3.734637e+001
1.940909e+003,3.808630e+001
1.941874e+003,3.784692e+001
1.942838e+003,3.753802e+001
1.943802e+003,3.836218e+001
1.944766e+003,3.963361e+001
1.945730e+003,3.915015e+001
1.946695e+003,3.691241e+001
1.947659e+003,3.458105e+001
1.948623e+003,3.184406e+001
1.949587e+003,3.179443e+001
1.950552e+003,3.568414e+001
1.951516e+003,3.931628e+001
1.952480e+003,4.148169e+001
1.953444e+003,4.262701e+001
1.954408e+003,4.235791e+001
1.955373e+003,4.148315e+001
1.956337e+003,4.138147e+001
1.957301e+003,4.234906e+001
1.958265e+003,4.439868e+001
1.959230e+003,4.778802e+001
1.960194e+003,5.043335e+001
1.961158e+003,5.186066e+001
1.962122e+003,5.159601e+001
1.963087e+003,4.840924e+001
1.964051e+003,4.503473e+001
1.965015e+003,4.269293e+001
1.965979e+003,4.188757e+001
1.966944e+003,4.383362e+001
1.967908e+003,4.654346e+001
1.968872e+003,4.600342e+001
1.969836e+003,4.287738e+001
1.970801e+003,4.265649e+001
1.971765e+003,4.746869e+001
1.972729e+003,5.216803e+001
1.973693e+003,5.216351e+001
1.974657e+003,5.030530e+001
1.975622e+003,5.084155e+001
1.976586e+003,5.264807e+001
1.977550e+003,5.298560e+001
1.978514e+003,5.217279e+001
1.979479e+003,5.163800e+001
1.980443e+003,5.152094e+001
1.981407e+003,5.133752e+001
1.982371e+003,5.098749e+001
1.983335e+003,5.209790e+001
1.984300e+003,5.600989e+001
1.985264e+003,6.012823e+001
1.986228e+003,6.051166e+001
1.987192e+003,5.801056e+001
1.988157e+003,5.719098e+001
1.989121e+003,5.883331e+001
1.990085e+003,5.885913e+001
1.991049e+003,5.677496e+001
1.992014e+003,5.447144e+001
1.992978e+003,4.978772e+001
1.993942e+003,4.780408e+001
1.994906e+003,5.280292e+001
1.995871e+003,5.848444e+001
1.996835e+003,6.052313e+001
1.997799e+003,6.037958e+001
1.998763e+003,5.927246e+001
1.999728e+003,5.784821e+001
