5.003444e+002,3.109949e+001
5.013087e+002,3.049146e+001
5.022729e+002,2.963531e+001
5.032371e+002,2.864172e+001
5.042014e+002,2.616864e+001
5.051656e+002,2.264532e+001
5.061298e+002,2.030322e+001
5.070941e+002,2.134448e+001
5.080583e+002,2.668109e+001
5.090225e+002,2.896179e+001
5.099868e+002,2.653986e+001
5.109510e+002,2.382739e+001
5.119152e+002,2.330353e+001
5.128795e+002,2.526190e+001
5.138437e+002,2.672174e+001
5.148079e+002,2.730951e+001
5.157722e+002,2.681879e+001
5.167364e+002,2.379895e+001
5.177006e+002,1.878259e+001
5.186649e+002,1.453528e+001
5.196291e+002,1.598932e+001
5.205933e+002,1.989221e+001
5.215576e+002,2.232715e+001
5.225218e+002,2.251605e+001
5.234860e+002,2.090302e+001
5.244503e+002,1.857312e+001
5.254145e+002,1.559277e+001
5.263787e+002,1.412360e+001
5.273430e+002,1.461884e+001
5.283072e+002,1.629663e+001
5.292714e+002,1.820532e+001
5.302357e+002,2.058942e+001
5.311999e+002,2.132751e+001
5.321641e+002,2.020142e+001
5.331284e+002,1.850696e+001
5.340926e+002,1.689777e+001
5.350568e+002,1.540833e+001
5.360211e+002,1.395404e+001
5.369853e+002,1.310870e+001
5.379495e+002,1.257971e+001
5.389138e+002,1.162872e+001
5.398780e+002,1.010309e+001
5.408422e+002,8.790161e+000
5.418065e+002,1.079340e+001
5.427707e+002,1.551422e+001
5.437349e+002,1.867328e+001
5.446992e+002,1.877972e+001
5.456634e+002,1.668781e+001
5.466276e+002,1.554401e+001
5.475919e+002,1.611804e+001
5.485561e+002,1.720325e+001
5.495203e+002,1.976886e+001
5.504846e+002,2.219769e+001
5.514488e+002,2.205951e+001
5.524130e+002,1.757404e+001
5.533773e+002,1.301678e+001
5.543415e+002,9.988281e+000
5.553057e+002,8.325745e+000
5.562700e+002,8.091309e+000
5.572342e+002,9.256470e+000
5.581984e+002,1.103101e+001
5.591627e+002,1.203003e+001
5.601269e+002,1.257941e+001
5.610911e+002,1.274469e+001
5.620554e+002,1.245300e+001
5.630196e+002,1.156042e+001
5.639838e+002,9.922302e+000
5.649481e+002,7.087524e+000
5.659123e+002,4.221802e+000
5.668765e+002,1.275146e+000
5.678408e+002,-1.137390e+000
5.688050e+002,-1.729858e+000
5.697692e+002,4.276123e-001
5.707335e+002,2.740173e+000
5.716977e+002,5.133240e+000
5.726619e+002,7.213379e+000
5.736262e+002,8.573547e+000
5.745904e+002,8.955078e+000
5.755546e+002,8.654968e+000
5.765189e+002,7.502319e+000
5.774831e+002,5.747192e+000
5.784473e+002,4.290344e+000
5.794116e+002,3.892639e+000
5.803758e+002,4.687988e+000
5.813400e+002,5.479675e+000
5.823043e+002,5.756897e+000
5.832685e+002,5.969116e+000
5.842327e+002,6.998901e+000
5.851970e+002,8.792664e+000
5.861612e+002,9.482788e+000
5.871254e+002,6.519409e+000
5.880897e+002,4.437073e+000
5.890539e+002,4.598755e+000
5.900181e+002,5.924500e+000
5.909824e+002,6.605164e+000
5.919466e+002,5.481445e+000
5.929108e+002,3.778687e+000
5.938751e+002,2.076294e+000
5.948393e+002,9.253540e-001
5.958035e+002,1.666626e+000
5.967678e+002,5.275879e+000
5.977320e+002,1.117731e+001
5.986962e+002,1.358600e+001
5.996605e+002,1.231848e+001
6.006247e+002,1.024127e+001
6.015889e+002,8.592834e+000
6.025532e+002,7.359070e+000
6.035174e+002,5.650208e+000
6.044816e+002,1.686768e+000
6.054459e+002,-5.814819e-001
6.064101e+002,8.681641e-001
6.073743e+002,4.145264e+000
6.083386e+002,5.706726e+000
6.093028e+002,2.974121e+000
6.102670e+002,-1.088867e-001
6.112313e+002,-8.247681e-001
6.121955e+002,7.086182e-002
6.131597e+002,1.829224e+000
6.141240e+002,3.887390e+000
6.150882e+002,5.932495e+000
6.160524e+002,6.677612e+000
6.170167e+002,6.523743e+000
6.179809e+002,6.502258e+000
6.189451e+002,7.123047e+000
6.199094e+002,7.993958e+000
6.208736e+002,7.385132e+000
6.218378e+002,3.421021e+000
6.228021e+002,8.361206e-001
6.237663e+002,2.843018e-001
6.247305e+002,1.411926e+000
6.256948e+002,3.900574e+000
6.266590e+002,8.558899e+000
6.276232e+002,1.142480e+001
6.285875e+002,1.020087e+001
6.295517e+002,6.989929e+000
6.305159e+002,3.587463e+000
6.314802e+002,9.404297e-001
6.324444e+002,-1.325134e+000
6.334086e+002,-4.645447e+000
6.343729e+002,-8.031616e+000
6.353371e+002,-8.084229e+000
6.363013e+002,-3.042542e+000
6.372656e+002,5.106445e+000
6.382298e+002,9.548462e+000
6.391940e+002,7.244751e+000
6.401583e+002,4.301453e+000
6.411225e+002,4.829102e-001
6.420867e+002,-3.037415e+000
6.430510e+002,-5.206360e+000
6.440152e+002,-5.974854e+000
6.449794e+002,-5.751221e+000
6.459437e+002,-4.409363e+000
6.469079e+002,-2.646362e+000
6.478721e+002,-2.356567e-001
6.488364e+002,2.622925e+000
6.498006e+002,4.630676e+000
6.507648e+002,2.106018e+000
6.517291e+002,-3.198181e+000
6.526933e+002,-6.734680e+000
6.536575e+002,-7.652161e+000
6.546218e+002,-6.844360e+000
6.555860e+002,-6.028442e+000
6.565502e+002,-5.683228e+000
6.575145e+002,-4.155151e+000
6.584787e+002,1.518555e-001
6.594429e+002,4.284058e+000
6.604072e+002,5.513489e+000
6.613714e+002,3.180481e+000
6.623356e+002,1.193420e+000
6.632999e+002,2.009094e+000
6.642641e+002,2.681824e+000
6.652283e+002,1.228210e+000
6.661926e+002,-1.797180e+000
6.671568e+002,-3.858276e+000
6.681210e+002,-1.624084e+000
6.690853e+002,3.139343e+000
6.700495e+002,6.148010e+000
6.710137e+002,7.324158e+000
6.719780e+002,7.114624e+000
6.729422e+002,5.818359e+000
6.739064e+002,3.000000e+000
6.748707e+002,9.605103e-001
6.758349e+002,-3.765869e-001
6.767991e+002,-1.270874e+000
6.777634e+002,-9.500122e-001
6.787276e+002,4.879150e-001
6.796918e+002,8.708496e-001
6.806561e+002,-3.305969e+000
6.816203e+002,-6.275146e+000
6.825845e+002,-4.391541e+000
6.835488e+002,-2.441406e-002
6.845130e+002,2.635986e+000
6.854772e+002,3.442993e-001
6.864415e+002,-3.993103e+000
6.874057e+002,-3.869263e+000
6.883699e+002,-1.085754e+000
6.893342e+002,5.792236e-001
6.902984e+002,-1.005798e+000
6.912626e+002,-5.039795e+000
6.922269e+002,-6.690735e+000
6.931911e+002,-2.963928e+000
6.941553e+002,1.115723e-001
6.951196e+002,1.665405e+000
6.960838e+002,1.869446e+000
6.970480e+002,8.865967e-001
6.980123e+002,-2.090881e+000
6.989765e+002,-3.491394e+000
6.999407e+002,-9.697876e-001
7.009050e+002,2.549438e+000
7.018692e+002,4.879028e+000
7.028334e+002,5.179321e+000
7.037977e+002,4.182434e+000
7.047619e+002,2.900024e+000
7.057261e+002,1.634644e+000
7.066904e+002,3.771973e-001
7.076546e+002,-8.904419e-001
7.086188e+002,-2.034302e+000
7.095831e+002,-2.872681e+000
7.105473e+002,-3.676575e+000
7.115115e+002,-3.739624e+000
7.124758e+002,-2.453735e+000
7.134400e+002,-1.403992e+000
7.144042e+002,-1.611206e+000
7.153685e+002,-2.942688e+000
7.163327e+002,-3.880249e+000
7.172969e+002,-4.038269e+000
7.182612e+002,-3.182068e+000
7.192254e+002,-1.964111e-001
7.201896e+002,3.670410e+000
7.211539e+002,6.096985e+000
7.221181e+002,5.042358e+000
7.230823e+002,1.881653e+000
7.240466e+002,7.451172e-001
7.250108e+002,1.393127e+000
7.259750e+002,1.603821e+000
7.269393e+002,-5.067749e-001
7.279035e+002,-4.736572e+000
7.288677e+002,-6.372070e+000
7.298320e+002,-8.252563e-001
7.307962e+002,3.101074e+000
7.317604e+002,3.919250e+000
7.327247e+002,3.271912e+000
7.336889e+002,3.255920e+000
7.346531e+002,4.166626e+000
7.356174e+002,4.127014e+000
7.365816e+002,2.352295e+000
7.375458e+002,4.557495e-001
7.385101e+002,-4.781494e-001
7.394743e+002,-1.469727e-001
7.404385e+002,1.021545e+000
7.414028e+002,2.409607e+000
7.423670e+002,3.273132e+000
7.433312e+002,3.591003e+000
7.442955e+002,3.861633e+000
7.452597e+002,4.493835e+000
7.462239e+002,5.817200e+000
7.471882e+002,8.007385e+000
7.481524e+002,9.289368e+000
7.491166e+002,9.111511e+000
7.500809e+002,7.844971e+000
7.510451e+002,4.622803e+000
7.520093e+002,2.974854e-001
7.529736e+002,-2.307129e+000
7.539378e+002,-4.600220e-001
7.549020e+002,2.290588e+000
7.558663e+002,4.017578e+000
7.568306e+002,4.837341e+000
7.577948e+002,4.553284e+000
7.587590e+002,3.042603e+000
7.597233e+002,8.599243e-001
7.606875e+002,8.054199e-001
7.616517e+002,2.828064e+000
7.626160e+002,4.339905e+000
7.635802e+002,4.779480e+000
7.645444e+002,4.441223e+000
7.655087e+002,3.719238e+000
7.664729e+002,2.074341e+000
7.674371e+002,1.018066e+000
7.684014e+002,1.035645e+000
7.693656e+002,1.121582e+000
7.703298e+002,3.451538e-001
7.712941e+002,-1.185730e+000
7.722583e+002,-1.894165e+000
7.732225e+002,-4.516602e-003
7.741868e+002,2.615356e+000
7.751510e+002,4.744873e+000
7.761152e+002,6.331421e+000
7.770795e+002,7.691406e+000
7.780437e+002,9.062439e+000
7.790079e+002,1.016473e+001
7.799722e+002,8.829407e+000
7.809364e+002,4.837158e+000
7.819006e+002,1.382141e+000
7.828649e+002,2.768555e-001
7.838291e+002,1.012146e+000
7.847933e+002,1.206055e+000
7.857576e+002,-4.302368e-001
7.867218e+002,-1.572998e+000
7.876860e+002,-1.005859e+000
7.886503e+002,2.342529e-001
7.896145e+002,1.113831e+000
7.905787e+002,1.403076e+000
7.915430e+002,2.101135e+000
7.925072e+002,5.025269e+000
7.934714e+002,7.786133e+000
7.944357e+002,7.962769e+000
7.953999e+002,5.811646e+000
7.963641e+002,2.759949e+000
7.973284e+002,1.724854e-001
7.982926e+002,-1.983582e+000
7.992568e+002,-2.273926e+000
8.002211e+002,-4.902344e-001
8.011853e+002,6.285400e-001
8.021495e+002,2.889404e-001
8.031138e+002,-5.505981e-001
8.040780e+002,2.313232e-002
8.050422e+002,2.760010e+000
8.060065e+002,5.208801e+000
8.069707e+002,5.985352e+000
8.079349e+002,6.047607e+000
8.088992e+002,6.865417e+000
8.098634e+002,8.939819e+000
8.108276e+002,1.082635e+001
8.117919e+002,9.712219e+000
8.127561e+002,6.152405e+000
8.137203e+002,1.875549e+000
8.146846e+002,-2.443298e+000
8.156488e+002,-5.061523e+000
8.166130e+002,-3.799561e+000
8.175773e+002,2.218628e+000
8.185415e+002,6.248169e+000
8.195057e+002,6.796997e+000
8.204700e+002,6.947876e+000
8.214342e+002,8.353882e+000
8.223984e+002,1.014288e+001
8.233627e+002,9.413269e+000
8.243269e+002,3.172668e+000
8.252911e+002,-1.194153e+000
8.262554e+002,1.802002e+000
8.272196e+002,7.514343e+000
8.281838e+002,1.113489e+001
8.291481e+002,1.093158e+001
8.301123e+002,8.936707e+000
8.310765e+002,8.631042e+000
8.320408e+002,9.809998e+000
8.330050e+002,1.049292e+001
8.339692e+002,1.064972e+001
8.349335e+002,1.040540e+001
8.358977e+002,1.006012e+001
8.368619e+002,9.897278e+000
8.378262e+002,9.089539e+000
8.387904e+002,5.533325e+000
8.397546e+002,3.149780e+000
8.407189e+002,3.764099e+000
8.416831e+002,6.080261e+000
8.426473e+002,7.615051e+000
8.436116e+002,7.087769e+000
8.445758e+002,6.642212e+000
8.455400e+002,8.481018e+000
8.465043e+002,1.094067e+001
8.474685e+002,1.292883e+001
8.484327e+002,1.427814e+001
8.493970e+002,1.508789e+001
8.503612e+002,1.502600e+001
8.513254e+002,1.374329e+001
8.522897e+002,1.252411e+001
8.532539e+002,1.081952e+001
8.542181e+002,9.372314e+000
8.551824e+002,9.233032e+000
8.561466e+002,1.058472e+001
8.571108e+002,1.190942e+001
8.580751e+002,1.146600e+001
8.590393e+002,1.104156e+001
8.600035e+002,1.150793e+001
8.609678e+002,1.277167e+001
8.619320e+002,1.491254e+001
8.628962e+002,1.779248e+001
8.638605e+002,2.049982e+001
8.648247e+002,2.186633e+001
8.657889e+002,2.182538e+001
8.667532e+002,1.969385e+001
8.677174e+002,1.540076e+001
8.686816e+002,1.144086e+001
8.696459e+002,1.103784e+001
8.706101e+002,1.509894e+001
8.715743e+002,1.737659e+001
8.725386e+002,1.564362e+001
8.735028e+002,1.519238e+001
8.744670e+002,1.798804e+001
8.754313e+002,2.229858e+001
8.763955e+002,2.512823e+001
8.773597e+002,2.547485e+001
8.783240e+002,2.511102e+001
8.792882e+002,2.474707e+001
8.802524e+002,2.441711e+001
8.812167e+002,2.423309e+001
8.821809e+002,2.423157e+001
8.831451e+002,2.457703e+001
8.841094e+002,2.567560e+001
8.850736e+002,2.758801e+001
8.860378e+002,2.676788e+001
8.870021e+002,2.183777e+001
8.879663e+002,1.839160e+001
8.889305e+002,2.094653e+001
8.898948e+002,2.780817e+001
8.908590e+002,3.052722e+001
8.918232e+002,2.558722e+001
8.927875e+002,2.190857e+001
8.937517e+002,2.132422e+001
8.947159e+002,2.263184e+001
8.956802e+002,2.511407e+001
8.966444e+002,2.811481e+001
8.976086e+002,3.078333e+001
8.985729e+002,3.326849e+001
8.995371e+002,3.447937e+001
9.005013e+002,3.099585e+001
9.014656e+002,2.414325e+001
9.024298e+002,1.967041e+001
9.033940e+002,2.201813e+001
9.043583e+002,2.982581e+001
9.053225e+002,3.437689e+001
9.062867e+002,3.240540e+001
9.072510e+002,3.055737e+001
9.082152e+002,2.905829e+001
9.091794e+002,2.847766e+001
9.101437e+002,2.983130e+001
9.111079e+002,3.327539e+001
9.120721e+002,3.586041e+001
9.130364e+002,3.450293e+001
9.140006e+002,3.221558e+001
9.149648e+002,3.116394e+001
9.159291e+002,3.105652e+001
9.168933e+002,3.018066e+001
9.178575e+002,2.722491e+001
9.188218e+002,2.325677e+001
9.197860e+002,2.315619e+001
9.207502e+002,2.688513e+001
9.217145e+002,2.887799e+001
9.226787e+002,2.770721e+001
9.236429e+002,2.559674e+001
9.246072e+002,2.536462e+001
9.255714e+002,2.724652e+001
9.265356e+002,2.830371e+001
9.274999e+002,2.723035e+001
9.284641e+002,2.584686e+001
9.294283e+002,2.454242e+001
9.303926e+002,2.370813e+001
9.313568e+002,2.407965e+001
9.323210e+002,2.612683e+001
9.332853e+002,2.808673e+001
9.342495e+002,2.638275e+001
9.352137e+002,2.272565e+001
9.361780e+002,1.950067e+001
9.371422e+002,1.754297e+001
9.381064e+002,1.739294e+001
9.390707e+002,1.973438e+001
9.400349e+002,2.487061e+001
9.409991e+002,2.781158e+001
9.419634e+002,2.654523e+001
9.429276e+002,2.578973e+001
9.438918e+002,2.833356e+001
9.448561e+002,3.180536e+001
9.458203e+002,3.141437e+001
9.467845e+002,2.502106e+001
9.477488e+002,1.953949e+001
9.487130e+002,2.127167e+001
9.496772e+002,2.510803e+001
9.506415e+002,2.733356e+001
9.516057e+002,2.763873e+001
9.525699e+002,2.757843e+001
9.535342e+002,2.863300e+001
9.544984e+002,3.054053e+001
9.554626e+002,3.252698e+001
9.564269e+002,3.551971e+001
9.573911e+002,3.727594e+001
9.583553e+002,3.641370e+001
9.593196e+002,3.406073e+001
9.602838e+002,3.163177e+001
9.612480e+002,2.855286e+001
9.622123e+002,2.762445e+001
9.631765e+002,3.293835e+001
9.641407e+002,3.752856e+001
9.651050e+002,3.764404e+001
9.660692e+002,3.418323e+001
9.670334e+002,2.972546e+001
9.679977e+002,2.602197e+001
9.689619e+002,2.355847e+001
9.699261e+002,2.314233e+001
9.708904e+002,2.400671e+001
9.718546e+002,2.514276e+001
9.728188e+002,2.619794e+001
9.737831e+002,2.734967e+001
9.747473e+002,2.910193e+001
9.757115e+002,3.176648e+001
9.766758e+002,3.402185e+001
9.776400e+002,3.738379e+001
9.786042e+002,3.908563e+001
9.795685e+002,3.657739e+001
9.805327e+002,3.231183e+001
9.814969e+002,2.987976e+001
9.824612e+002,3.071307e+001
9.834254e+002,3.296466e+001
9.843896e+002,3.571265e+001
9.853539e+002,3.767963e+001
9.863181e+002,3.672278e+001
9.872823e+002,3.316125e+001
9.882466e+002,2.976910e+001
9.892108e+002,2.927222e+001
9.901750e+002,3.175519e+001
9.911393e+002,3.411481e+001
9.921035e+002,3.446375e+001
9.930677e+002,3.572711e+001
9.940320e+002,3.867859e+001
9.949962e+002,4.280573e+001
9.959604e+002,4.840613e+001
9.969247e+002,5.535828e+001
9.978889e+002,6.063873e+001
9.988531e+002,6.110724e+001
9.998174e+002,6.032520e+001
1.000782e+003,6.120178e+001
1.001746e+003,6.277246e+001
1.002710e+003,6.266864e+001
1.003674e+003,6.013599e+001
1.004639e+003,5.761267e+001
1.005603e+003,5.978223e+001
1.006567e+003,6.706128e+001
1.007531e+003,7.032300e+001
1.008495e+003,6.833997e+001
1.009460e+003,6.526318e+001
1.010424e+003,6.362701e+001
1.011388e+003,6.307166e+001
1.012352e+003,6.179742e+001
1.013317e+003,5.929736e+001
1.014281e+003,5.608832e+001
1.015245e+003,5.103442e+001
1.016209e+003,4.623334e+001
1.017174e+003,4.418671e+001
1.018138e+003,4.429224e+001
1.019102e+003,4.328778e+001
1.020066e+003,3.840833e+001
1.021031e+003,3.151605e+001
1.021995e+003,2.722241e+001
1.022959e+003,2.468713e+001
1.023923e+003,2.250195e+001
1.024887e+003,2.029645e+001
1.025852e+003,1.791412e+001
1.026816e+003,1.472253e+001
1.027780e+003,1.017346e+001
1.028744e+003,8.913879e+000
1.029709e+003,1.498511e+001
1.030673e+003,1.986664e+001
1.031637e+003,2.077631e+001
1.032601e+003,1.885065e+001
1.033566e+003,1.543427e+001
1.034530e+003,1.122589e+001
1.035494e+003,7.945862e+000
1.036458e+003,7.808594e+000
1.037422e+003,9.411743e+000
1.038387e+003,1.056885e+001
1.039351e+003,1.111328e+001
1.040315e+003,1.165088e+001
1.041279e+003,1.286322e+001
1.042244e+003,1.457690e+001
1.043208e+003,1.507013e+001
1.044172e+003,1.253778e+001
1.045136e+003,1.113794e+001
1.046101e+003,1.183057e+001
1.047065e+003,1.308557e+001
1.048029e+003,1.410651e+001
1.048993e+003,1.466730e+001
1.049958e+003,1.461755e+001
1.050922e+003,1.383374e+001
1.051886e+003,1.322217e+001
1.052850e+003,1.383917e+001
1.053814e+003,1.495282e+001
1.054779e+003,1.573236e+001
1.055743e+003,1.588379e+001
1.056707e+003,1.542194e+001
1.057671e+003,1.436633e+001
1.058636e+003,1.263483e+001
1.059600e+003,1.082800e+001
1.060564e+003,8.754822e+000
1.061528e+003,7.809631e+000
1.062493e+003,8.624023e+000
1.063457e+003,9.662903e+000
1.064421e+003,9.232056e+000
1.065385e+003,7.335999e+000
1.066349e+003,6.076294e+000
1.067314e+003,6.965515e+000
1.068278e+003,8.361816e+000
1.069242e+003,9.480286e+000
1.070206e+003,1.033649e+001
1.071171e+003,1.055963e+001
1.072135e+003,9.996216e+000
1.073099e+003,9.410034e+000
1.074063e+003,1.047150e+001
1.075028e+003,1.358044e+001
1.075992e+003,1.497675e+001
1.076956e+003,1.330878e+001
1.077920e+003,1.189539e+001
1.078885e+003,1.315784e+001
1.079849e+003,1.556146e+001
1.080813e+003,1.565674e+001
1.081777e+003,1.252643e+001
1.082741e+003,1.002808e+001
1.083706e+003,9.805603e+000
1.084670e+003,1.028766e+001
1.085634e+003,1.157874e+001
1.086598e+003,1.277979e+001
1.087563e+003,1.221228e+001
1.088527e+003,9.276672e+000
1.089491e+003,5.889587e+000
1.090455e+003,5.404175e+000
1.091420e+003,7.921082e+000
1.092384e+003,9.304932e+000
1.093348e+003,8.920532e+000
1.094312e+003,8.054871e+000
1.095276e+003,7.584778e+000
1.096241e+003,7.649780e+000
1.097205e+003,7.894104e+000
1.098169e+003,7.734192e+000
1.099133e+003,8.505493e+000
1.100098e+003,1.254736e+001
1.101062e+003,1.626642e+001
1.102026e+003,1.715552e+001
1.102990e+003,1.584711e+001
1.103955e+003,1.403894e+001
1.104919e+003,1.272705e+001
1.105883e+003,1.205292e+001
1.106847e+003,1.284888e+001
1.107812e+003,1.504034e+001
1.108776e+003,1.542981e+001
1.109740e+003,1.284277e+001
1.110704e+003,1.062695e+001
1.111668e+003,1.185278e+001
1.112633e+003,1.597247e+001
1.113597e+003,1.961652e+001
1.114561e+003,2.222803e+001
1.115525e+003,2.413422e+001
1.116490e+003,2.515143e+001
1.117454e+003,2.578265e+001
1.118418e+003,2.632434e+001
1.119382e+003,2.720306e+001
1.120347e+003,2.894897e+001
1.121311e+003,3.157965e+001
1.122275e+003,3.376160e+001
1.123239e+003,3.337952e+001
1.124203e+003,3.121021e+001
1.125168e+003,3.110114e+001
1.126132e+003,3.424139e+001
1.127096e+003,3.739655e+001
1.128060e+003,3.744763e+001
1.129025e+003,3.503870e+001
1.129989e+003,3.385126e+001
1.130953e+003,3.408777e+001
1.131917e+003,3.534387e+001
1.132882e+003,3.768298e+001
1.133846e+003,4.093079e+001
1.134810e+003,4.604816e+001
1.135774e+003,5.192505e+001
1.136739e+003,5.560419e+001
1.137703e+003,5.548541e+001
1.138667e+003,5.488953e+001
1.139631e+003,6.020880e+001
1.140595e+003,7.079504e+001
1.141560e+003,8.036719e+001
1.142524e+003,8.884918e+001
1.143488e+003,9.676440e+001
1.144452e+003,1.030997e+002
1.145417e+003,1.089443e+002
1.146381e+003,1.183292e+002
1.147345e+003,1.315312e+002
1.148309e+003,1.476808e+002
1.149274e+003,1.702680e+002
1.150238e+003,1.920974e+002
1.151202e+003,2.097766e+002
1.152166e+003,2.242157e+002
1.153130e+003,2.383439e+002
1.154095e+003,2.528932e+002
1.155059e+003,2.635902e+002
1.156023e+003,2.644592e+002
1.156987e+003,2.562821e+002
1.157952e+003,2.471982e+002
1.158916e+003,2.380231e+002
1.159880e+003,2.277023e+002
1.160844e+003,2.145769e+002
1.161809e+003,1.989409e+002
1.162773e+003,1.819824e+002
1.163737e+003,1.628956e+002
1.164701e+003,1.464396e+002
1.165666e+003,1.360632e+002
1.166630e+003,1.267980e+002
1.167594e+003,1.154954e+002
1.168558e+003,1.047148e+002
1.169522e+003,9.866132e+001
1.170487e+003,9.821204e+001
1.171451e+003,1.000467e+002
1.172415e+003,1.005729e+002
1.173379e+003,9.980115e+001
1.174344e+003,9.879016e+001
1.175308e+003,9.789746e+001
1.176272e+003,9.521521e+001
1.177236e+003,8.852014e+001
1.178201e+003,8.121851e+001
1.179165e+003,7.757465e+001
1.180129e+003,7.734082e+001
1.181093e+003,7.737280e+001
1.182057e+003,7.808899e+001
1.183022e+003,7.779950e+001
1.183986e+003,7.515747e+001
1.184950e+003,7.193311e+001
1.185914e+003,6.929456e+001
1.186879e+003,6.792358e+001
1.187843e+003,6.889166e+001
1.188807e+003,7.305481e+001
1.189771e+003,7.852393e+001
1.190736e+003,7.975476e+001
1.191700e+003,7.619293e+001
1.192664e+003,7.342419e+001
1.193628e+003,7.228223e+001
1.194593e+003,7.201788e+001
1.195557e+003,7.251294e+001
1.196521e+003,7.334686e+001
1.197485e+003,7.349005e+001
1.198449e+003,7.332928e+001
1.199414e+003,7.094104e+001
1.200378e+003,6.229065e+001
1.201342e+003,5.407355e+001
1.202306e+003,5.051245e+001
1.203271e+003,5.061212e+001
1.204235e+003,5.224677e+001
1.205199e+003,5.409442e+001
1.206163e+003,5.500006e+001
1.207128e+003,5.276819e+001
1.208092e+003,4.723486e+001
1.209056e+003,4.248279e+001
1.210020e+003,3.880316e+001
1.210984e+003,3.522498e+001
1.211949e+003,3.187024e+001
1.212913e+003,2.804462e+001
1.213877e+003,2.227661e+001
1.214841e+003,1.472748e+001
1.215806e+003,9.152588e+000
1.216770e+003,7.212952e+000
1.217734e+003,7.252625e+000
1.218698e+003,8.781555e+000
1.219663e+003,1.050757e+001
1.220627e+003,1.088202e+001
1.221591e+003,9.711914e+000
1.222555e+003,7.845947e+000
1.223520e+003,6.117310e+000
1.224484e+003,4.632996e+000
1.225448e+003,3.176208e+000
1.226412e+003,1.829712e+000
1.227376e+003,8.428955e-002
1.228341e+003,-3.249146e+000
1.229305e+003,-5.899048e+000
1.230269e+003,-6.180298e+000
1.231233e+003,-5.067261e+000
1.232198e+003,-4.433472e+000
1.233162e+003,-4.606018e+000
1.234126e+003,-4.789978e+000
1.235090e+003,-5.062073e+000
1.236055e+003,-4.919617e+000
1.237019e+003,-3.242615e+000
1.237983e+003,-8.214722e-001
1.238947e+003,4.430542e-001
1.239911e+003,-5.041504e-002
1.240876e+003,-9.601440e-001
1.241840e+003,-3.301392e-001
1.242804e+003,2.026672e+000
1.243768e+003,2.876465e+000
1.244733e+003,-1.781616e-001
1.245697e+003,-1.498901e+000
1.246661e+003,-3.704834e-002
1.247625e+003,2.039673e+000
1.248590e+003,3.779236e+000
1.249554e+003,5.108765e+000
1.250518e+003,5.619019e+000
1.251482e+003,4.817139e+000
1.252447e+003,4.125610e+000
1.253411e+003,6.276001e+000
1.254375e+003,9.820251e+000
1.255339e+003,1.107825e+001
1.256303e+003,1.014795e+001
1.257268e+003,9.447998e+000
1.258232e+003,9.887390e+000
1.259196e+003,1.111688e+001
1.260160e+003,1.332629e+001
1.261125e+003,1.713531e+001
1.262089e+003,2.002728e+001
1.263053e+003,1.987805e+001
1.264017e+003,2.041022e+001
1.264982e+003,2.435797e+001
1.265946e+003,2.828583e+001
1.266910e+003,2.873724e+001
1.267874e+003,2.582990e+001
1.268839e+003,2.184875e+001
1.269803e+003,1.830579e+001
1.270767e+003,1.526465e+001
1.271731e+003,1.278003e+001
1.272695e+003,1.114056e+001
1.273660e+003,1.131738e+001
1.274624e+003,1.382190e+001
1.275588e+003,1.527130e+001
1.276552e+003,1.302759e+001
1.277517e+003,9.499023e+000
1.278481e+003,9.456299e+000
1.279445e+003,1.339734e+001
1.280409e+003,1.550629e+001
1.281374e+003,1.310144e+001
1.282338e+003,9.562134e+000
1.283302e+003,5.238770e+000
1.284266e+003,1.613525e+000
1.285230e+003,1.020325e+000
1.286195e+003,3.073853e+000
1.287159e+003,4.838440e+000
1.288123e+003,4.041016e+000
1.289087e+003,1.901428e+000
1.290052e+003,1.505798e+000
1.291016e+003,3.267517e+000
1.291980e+003,4.356323e+000
1.292944e+003,3.717590e+000
1.293909e+003,3.190979e+000
1.294873e+003,4.760559e+000
1.295837e+003,6.697876e+000
1.296801e+003,5.760254e+000
1.297766e+003,1.841675e+000
1.298730e+003,-8.222046e-001
1.299694e+003,4.313354e-001
1.300658e+003,2.375427e+000
1.301622e+003,7.521362e-001
1.302587e+003,-2.060059e+000
1.303551e+003,-1.762146e+000
1.304515e+003,2.193420e+000
1.305479e+003,5.774414e+000
1.306444e+003,5.318359e+000
1.307408e+003,2.122314e+000
1.308372e+003,1.271240e+000
1.309336e+003,3.856689e+000
1.310301e+003,5.328369e+000
1.311265e+003,4.907837e+000
1.312229e+003,4.467834e+000
1.313193e+003,5.058289e+000
1.314157e+003,5.383789e+000
1.315122e+003,3.419678e+000
1.316086e+003,-5.477295e-001
1.317050e+003,-4.073425e+000
1.318014e+003,-5.427979e+000
1.318979e+003,-5.033813e+000
1.319943e+003,-3.544067e+000
1.320907e+003,-9.396362e-001
1.321871e+003,1.397278e+000
1.322836e+003,2.978821e+000
1.323800e+003,4.181396e+000
1.324764e+003,5.501404e+000
1.325728e+003,6.558655e+000
1.326693e+003,6.062073e+000
1.327657e+003,3.744141e+000
1.328621e+003,2.752380e+000
1.329585e+003,5.754089e+000
1.330549e+003,9.127014e+000
1.331514e+003,1.009436e+001
1.332478e+003,9.708313e+000
1.333442e+003,9.080933e+000
1.334406e+003,8.570068e+000
1.335371e+003,8.323303e+000
1.336335e+003,8.360229e+000
1.337299e+003,7.758728e+000
1.338263e+003,4.297302e+000
1.339228e+003,-2.851013e+000
1.340192e+003,-4.799438e+000
1.341156e+003,4.218445e+000
1.342120e+003,9.566162e+000
1.343084e+003,5.652161e+000
1.344049e+003,-1.361084e-001
1.345013e+003,-1.382324e+000
1.345977e+003,1.321228e+000
1.346941e+003,4.245728e+000
1.347906e+003,6.111145e+000
1.348870e+003,6.594604e+000
1.349834e+003,4.210938e+000
1.350798e+003,8.901367e-001
1.351763e+003,9.487305e-001
1.352727e+003,3.940918e+000
1.353691e+003,6.760193e+000
1.354655e+003,8.576294e+000
1.355620e+003,9.039856e+000
1.356584e+003,6.971802e+000
1.357548e+003,2.943542e+000
1.358512e+003,1.349792e+000
1.359476e+003,3.132568e+000
1.360441e+003,3.997131e+000
1.361405e+003,2.876038e+000
1.362369e+003,9.987793e-001
1.363333e+003,-2.476624e+000
1.364298e+003,-5.623596e+000
1.365262e+003,-4.941956e+000
1.366226e+003,-4.631348e-001
1.367190e+003,3.317993e+000
1.368155e+003,2.348877e+000
1.369119e+003,-1.701843e+000
1.370083e+003,-3.537231e+000
1.371047e+003,-2.476929e+000
1.372011e+003,-9.087524e-001
1.372976e+003,1.779480e+000
1.373940e+003,3.376526e+000
1.374904e+003,2.221375e+000
1.375868e+003,3.951416e-001
1.376833e+003,7.528076e-001
1.377797e+003,3.100403e+000
1.378761e+003,4.684082e+000
1.379725e+003,4.439514e+000
1.380690e+003,3.133545e+000
1.381654e+003,2.032471e-001
1.382618e+003,-2.452148e+000
1.383582e+003,-1.684570e+000
1.384547e+003,2.249207e+000
1.385511e+003,6.322449e+000
1.386475e+003,8.983704e+000
1.387439e+003,1.057916e+001
1.388403e+003,1.181848e+001
1.389368e+003,1.265900e+001
1.390332e+003,1.191052e+001
1.391296e+003,8.127625e+000
1.392260e+003,6.169434e+000
1.393225e+003,8.721191e+000
1.394189e+003,1.129034e+001
1.395153e+003,1.181140e+001
1.396117e+003,1.047034e+001
1.397082e+003,7.071350e+000
1.398046e+003,2.396667e+000
1.399010e+003,-8.450317e-001
1.399974e+003,-3.256836e-001
1.400938e+003,2.505371e+000
1.401903e+003,4.281006e+000
1.402867e+003,5.644409e+000
1.403831e+003,7.442261e+000
1.404795e+003,8.835876e+000
1.405760e+003,1.084290e+001
1.406724e+003,1.505640e+001
1.407688e+003,1.797729e+001
1.408652e+003,1.484454e+001
1.409617e+003,7.085754e+000
1.410581e+003,1.744263e+000
1.411545e+003,1.776062e+000
1.412509e+003,3.724487e+000
1.413474e+003,4.358643e+000
1.414438e+003,4.190735e+000
1.415402e+003,4.893250e+000
1.416366e+003,6.641418e+000
1.417330e+003,8.417480e+000
1.418295e+003,9.846375e+000
1.419259e+003,1.113135e+001
1.420223e+003,1.269775e+001
1.421187e+003,1.404779e+001
1.422152e+003,1.303241e+001
1.423116e+003,8.789856e+000
1.424080e+003,6.297974e+000
1.425044e+003,7.626648e+000
1.426009e+003,9.533020e+000
1.426973e+003,1.137738e+001
1.427937e+003,1.262732e+001
1.428901e+003,1.225751e+001
1.429865e+003,1.092163e+001
1.430830e+003,1.123126e+001
1.431794e+003,1.465680e+001
1.432758e+003,1.831348e+001
1.433722e+003,1.659576e+001
1.434687e+003,9.250244e+000
1.435651e+003,7.054626e+000
1.436615e+003,1.351886e+001
1.437579e+003,1.735016e+001
1.438544e+003,1.604211e+001
1.439508e+003,1.373346e+001
1.440472e+003,1.283173e+001
1.441436e+003,1.356696e+001
1.442401e+003,1.609906e+001
1.443365e+003,2.004950e+001
1.444329e+003,2.320605e+001
1.445293e+003,2.400659e+001
1.446257e+003,2.335040e+001
1.447222e+003,2.229071e+001
1.448186e+003,2.092468e+001
1.449150e+003,2.038904e+001
1.450114e+003,2.111401e+001
1.451079e+003,2.079083e+001
1.452043e+003,1.755615e+001
1.453007e+003,1.360443e+001
1.453971e+003,1.196259e+001
1.454936e+003,1.217261e+001
1.455900e+003,1.132318e+001
1.456864e+003,8.343384e+000
1.457828e+003,6.645447e+000
1.458792e+003,9.011353e+000
1.459757e+003,1.230756e+001
1.460721e+003,1.459827e+001
1.461685e+003,1.569086e+001
1.462649e+003,1.522412e+001
1.463614e+003,1.343970e+001
1.464578e+003,1.190137e+001
1.465542e+003,1.181720e+001
1.466506e+003,1.279651e+001
1.467471e+003,1.445520e+001
1.468435e+003,1.768127e+001
1.469399e+003,1.930798e+001
1.470363e+003,1.675378e+001
1.471328e+003,1.509509e+001
1.472292e+003,1.588831e+001
1.473256e+003,1.677277e+001
1.474220e+003,1.644836e+001
1.475184e+003,1.557233e+001
1.476149e+003,1.513556e+001
1.477113e+003,1.529346e+001
1.478077e+003,1.567261e+001
1.479041e+003,1.619910e+001
1.480006e+003,1.725244e+001
1.480970e+003,1.933185e+001
1.481934e+003,2.236115e+001
1.482898e+003,2.505664e+001
1.483863e+003,2.888300e+001
1.484827e+003,3.019623e+001
1.485791e+003,2.544916e+001
1.486755e+003,2.065125e+001
1.487719e+003,2.177844e+001
1.488684e+003,2.709998e+001
1.489648e+003,3.122113e+001
1.490612e+003,3.260236e+001
1.491576e+003,3.360199e+001
1.492541e+003,3.568591e+001
1.493505e+003,3.895422e+001
1.494469e+003,4.507520e+001
1.495433e+003,5.282483e+001
1.496398e+003,5.617407e+001
1.497362e+003,5.360864e+001
1.498326e+003,5.131525e+001
1.499290e+003,5.137720e+001
1.500255e+003,5.415735e+001
1.501219e+003,6.097980e+001
1.502183e+003,7.105829e+001
1.503147e+003,8.069678e+001
1.504111e+003,8.910956e+001
1.505076e+003,9.679047e+001
1.506040e+003,1.023406e+002
1.507004e+003,1.093630e+002
1.507968e+003,1.220720e+002
1.508933e+003,1.384893e+002
1.509897e+003,1.545219e+002
1.510861e+003,1.699699e+002
1.511825e+003,1.873413e+002
1.512790e+003,2.083472e+002
1.513754e+003,2.310858e+002
1.514718e+003,2.526082e+002
1.515682e+003,2.725827e+002
1.516646e+003,2.924014e+002
1.517611e+003,3.139580e+002
1.518575e+003,3.321984e+002
1.519539e+003,3.457832e+002
1.520503e+003,3.561277e+002
1.521468e+003,3.639250e+002
1.522432e+003,3.684584e+002
1.523396e+003,3.687469e+002
1.524360e+003,3.646704e+002
1.525325e+003,3.566261e+002
1.526289e+003,3.450049e+002
1.527253e+003,3.308567e+002
1.528217e+003,3.159446e+002
1.529182e+003,3.005912e+002
1.530146e+003,2.819555e+002
1.531110e+003,2.582616e+002
1.532074e+003,2.338020e+002
1.533039e+003,2.071698e+002
1.534003e+003,1.803872e+002
1.534967e+003,1.538280e+002
1.535931e+003,1.293798e+002
1.536896e+003,1.082965e+002
1.537860e+003,9.117773e+001
1.538824e+003,7.914825e+001
1.539788e+003,7.229584e+001
1.540752e+003,6.715594e+001
1.541717e+003,5.942383e+001
1.542681e+003,4.994049e+001
1.543645e+003,4.280890e+001
1.544609e+003,3.925586e+001
1.545573e+003,3.621008e+001
1.546538e+003,3.313354e+001
1.547502e+003,3.013647e+001
1.548466e+003,2.734705e+001
1.549430e+003,2.556244e+001
1.550395e+003,2.586511e+001
1.551359e+003,2.733240e+001
1.552323e+003,2.776788e+001
1.553287e+003,2.648346e+001
1.554252e+003,2.447833e+001
1.555216e+003,2.237579e+001
1.556180e+003,2.061835e+001
1.557144e+003,2.056329e+001
1.558109e+003,2.242664e+001
1.559073e+003,2.374982e+001
1.560037e+003,2.442578e+001
1.561001e+003,2.337775e+001
1.561966e+003,1.931262e+001
1.562930e+003,1.532617e+001
1.563894e+003,1.380310e+001
1.564858e+003,1.424664e+001
1.565823e+003,1.606708e+001
1.566787e+003,1.888947e+001
1.567751e+003,1.993036e+001
1.568715e+003,1.705902e+001
1.569679e+003,1.403448e+001
1.570644e+003,1.633154e+001
1.571608e+003,2.153906e+001
1.572572e+003,2.314703e+001
1.573536e+003,2.114966e+001
1.574500e+003,1.944928e+001
1.575465e+003,1.923560e+001
1.576429e+003,1.948193e+001
1.577393e+003,1.903839e+001
1.578357e+003,1.837573e+001
1.579322e+003,1.928015e+001
1.580286e+003,2.172339e+001
1.581250e+003,2.213507e+001
1.582214e+003,1.869623e+001
1.583179e+003,1.578986e+001
1.584143e+003,1.738928e+001
1.585107e+003,2.019409e+001
1.586071e+003,2.027478e+001
1.587036e+003,1.860468e+001
1.588000e+003,1.647308e+001
1.588964e+003,1.372894e+001
1.589928e+003,1.259595e+001
1.590893e+003,1.582562e+001
1.591857e+003,2.040021e+001
1.592821e+003,2.113544e+001
1.593785e+003,1.897784e+001
1.594750e+003,1.967218e+001
1.595714e+003,2.445801e+001
1.596678e+003,2.710248e+001
1.597642e+003,2.323706e+001
1.598606e+003,1.938043e+001
1.599571e+003,2.266412e+001
1.600535e+003,2.814795e+001
1.601499e+003,2.862421e+001
1.602463e+003,2.449310e+001
1.603427e+003,2.151099e+001
1.604392e+003,2.215173e+001
1.605356e+003,2.355707e+001
1.606320e+003,2.257050e+001
1.607284e+003,2.022424e+001
1.608249e+003,1.997852e+001
1.609213e+003,2.197473e+001
1.610177e+003,2.110736e+001
1.611141e+003,1.466174e+001
1.612106e+003,1.003406e+001
1.613070e+003,1.270691e+001
1.614034e+003,1.672937e+001
1.614998e+003,1.801569e+001
1.615963e+003,1.763379e+001
1.616927e+003,1.731219e+001
1.617891e+003,1.740552e+001
1.618855e+003,1.801312e+001
1.619820e+003,1.916260e+001
1.620784e+003,1.983502e+001
1.621748e+003,1.887366e+001
1.622712e+003,1.712836e+001
1.623677e+003,1.662555e+001
1.624641e+003,1.745825e+001
1.625605e+003,1.956049e+001
1.626569e+003,2.388885e+001
1.627533e+003,2.588733e+001
1.628498e+003,2.187799e+001
1.629462e+003,1.692017e+001
1.630426e+003,1.496899e+001
1.631390e+003,1.540503e+001
1.632354e+003,1.672247e+001
1.633319e+003,1.825317e+001
1.634283e+003,1.880243e+001
1.635247e+003,1.722943e+001
1.636211e+003,1.473914e+001
1.637176e+003,1.378802e+001
1.638140e+003,1.442346e+001
1.639104e+003,1.473651e+001
1.640068e+003,1.437927e+001
1.641033e+003,1.415411e+001
1.641997e+003,1.459296e+001
1.642961e+003,1.510974e+001
1.643925e+003,1.538007e+001
1.644890e+003,1.553754e+001
1.645854e+003,1.514392e+001
1.646818e+003,1.472717e+001
1.647782e+003,1.645325e+001
1.648747e+003,2.061615e+001
1.649711e+003,2.261212e+001
1.650675e+003,1.804761e+001
1.651639e+003,1.099530e+001
1.652604e+003,9.939087e+000
1.653568e+003,1.441406e+001
1.654532e+003,1.724072e+001
1.655496e+003,1.795038e+001
1.656460e+003,1.734229e+001
1.657425e+003,1.417517e+001
1.658389e+003,1.202002e+001
1.659353e+003,1.395636e+001
1.660317e+003,1.686816e+001
1.661281e+003,1.755823e+001
1.662246e+003,1.605243e+001
1.663210e+003,1.343042e+001
1.664174e+003,1.026312e+001
1.665138e+003,7.706421e+000
1.666103e+003,6.609802e+000
1.667067e+003,6.425415e+000
1.668031e+003,6.270569e+000
1.668995e+003,6.268311e+000
1.669960e+003,7.242126e+000
1.670924e+003,9.826599e+000
1.671888e+003,1.122101e+001
1.672852e+003,8.703125e+000
1.673817e+003,7.115295e+000
1.674781e+003,1.141766e+001
1.675745e+003,1.673132e+001
1.676709e+003,1.722668e+001
1.677674e+003,1.388287e+001
1.678638e+003,1.096661e+001
1.679602e+003,9.828369e+000
1.680566e+003,9.333313e+000
1.681531e+003,8.785095e+000
1.682495e+003,8.617920e+000
1.683459e+003,9.614868e+000
1.684423e+003,1.123798e+001
1.685387e+003,1.098395e+001
1.686352e+003,8.374878e+000
1.687316e+003,7.189453e+000
1.688280e+003,9.428345e+000
1.689244e+003,1.182666e+001
1.690208e+003,1.178680e+001
1.691173e+003,1.053857e+001
1.692137e+003,9.150574e+000
1.693101e+003,8.108459e+000
1.694065e+003,7.897888e+000
1.695030e+003,8.329590e+000
1.695994e+003,8.981323e+000
1.696958e+003,1.055920e+001
1.697922e+003,1.144031e+001
1.698887e+003,8.509033e+000
1.699851e+003,3.484009e+000
1.700815e+003,1.808105e+000
1.701779e+003,3.686096e+000
1.702744e+003,4.061890e+000
1.703708e+003,1.013000e+000
1.704672e+003,-6.603394e-001
1.705636e+003,3.094788e+000
1.706601e+003,8.514099e+000
1.707565e+003,1.096008e+001
1.708529e+003,1.114783e+001
1.709493e+003,9.994568e+000
1.710458e+003,7.358826e+000
1.711422e+003,5.150269e+000
1.712386e+003,4.950989e+000
1.713350e+003,5.074219e+000
1.714314e+003,3.276855e+000
1.715279e+003,7.442627e-001
1.716243e+003,5.859375e-003
1.717207e+003,9.086304e-001
1.718171e+003,1.573486e+000
1.719135e+003,1.557922e+000
1.720100e+003,1.425659e+000
1.721064e+003,1.384216e+000
1.722028e+003,1.294556e+000
1.722992e+003,1.291565e+000
1.723957e+003,1.718445e+000
1.724921e+003,2.255676e+000
1.725885e+003,2.225342e+000
1.726849e+003,2.487488e+000
1.727814e+003,4.132996e+000
1.728778e+003,6.156372e+000
1.729742e+003,8.773804e+000
1.730706e+003,1.073553e+001
1.731671e+003,1.039142e+001
1.732635e+003,7.902588e+000
1.733599e+003,3.665588e+000
1.734563e+003,-1.128357e+000
1.735528e+003,-2.992004e+000
1.736492e+003,-2.830200e-001
1.737456e+003,3.530640e+000
1.738420e+003,4.362976e+000
1.739385e+003,2.756042e+000
1.740349e+003,1.787659e+000
1.741313e+003,1.923218e+000
1.742277e+003,1.743469e+000
1.743241e+003,9.199829e-001
1.744206e+003,9.105835e-001
1.745170e+003,2.221191e+000
1.746134e+003,3.620605e+000
1.747098e+003,5.314331e+000
1.748063e+003,6.022644e+000
1.749027e+003,3.416565e+000
1.749991e+003,-1.160278e+000
1.750955e+003,-4.381042e+000
1.751919e+003,-5.059631e+000
1.752884e+003,-3.822449e+000
1.753848e+003,-1.140808e+000
1.754812e+003,1.834229e+000
1.755776e+003,2.933838e+000
1.756741e+003,2.547241e+000
1.757705e+003,2.985840e+000
1.758669e+003,4.753662e+000
1.759633e+003,4.922302e+000
1.760598e+003,1.143494e+000
1.761562e+003,-1.858521e+000
1.762526e+003,-1.345825e+000
1.763490e+003,-2.700195e-001
1.764455e+003,-7.222900e-001
1.765419e+003,-1.926208e+000
1.766383e+003,-2.868103e+000
1.767347e+003,-3.437073e+000
1.768312e+003,-3.381287e+000
1.769276e+003,-2.653809e+000
1.770240e+003,-2.734131e+000
1.771204e+003,-5.374817e+000
1.772168e+003,-8.606445e+000
1.773133e+003,-7.973999e+000
1.774097e+003,-4.035767e+000
1.775061e+003,-2.786072e+000
1.776025e+003,-5.698853e+000
1.776990e+003,-7.142883e+000
1.777954e+003,-3.852844e+000
1.778918e+003,-5.819092e-001
1.779882e+003,-1.816833e+000
1.780846e+003,-4.835388e+000
1.781811e+003,-5.453064e+000
1.782775e+003,-4.261230e+000
1.783739e+003,-3.746338e+000
1.784703e+003,-4.265137e+000
1.785668e+003,-3.789246e+000
1.786632e+003,-7.987671e-001
1.787596e+003,1.605896e+000
1.788560e+003,1.125427e+000
1.789525e+003,-3.063965e-001
1.790489e+003,-6.293335e-001
1.791453e+003,-1.064453e-001
1.792417e+003,6.986694e-001
1.793382e+003,1.555359e+000
1.794346e+003,1.492493e+000
1.795310e+003,-1.237793e-001
1.796274e+003,-2.078918e+000
1.797239e+003,-2.706726e+000
1.798203e+003,-2.115356e+000
1.799167e+003,-2.152893e+000
1.800131e+003,-3.849426e+000
1.801095e+003,-4.486816e+000
1.802060e+003,-2.353516e+000
1.803024e+003,-5.634766e-001
1.803988e+003,-2.145386e-001
1.804952e+003,1.925049e-001
1.805917e+003,2.378845e+000
1.806881e+003,4.083740e+000
1.807845e+003,2.011475e+000
1.808809e+003,-1.750549e+000
1.809773e+003,-2.313477e+000
1.810738e+003,7.977295e-001
1.811702e+003,3.133362e+000
1.812666e+003,1.916809e+000
1.813630e+003,-8.636475e-002
1.814595e+003,1.038940e+000
1.815559e+003,4.140442e+000
1.816523e+003,4.815186e+000
1.817487e+003,2.938416e+000
1.818452e+003,9.384155e-001
1.819416e+003,-1.088989e+000
1.820380e+003,-2.149902e+000
1.821344e+003,-2.355957e+000
1.822309e+003,-1.737549e+000
1.823273e+003,1.132446e+000
1.824237e+003,4.186096e+000
1.825201e+003,4.638489e+000
1.826166e+003,3.261719e+000
1.827130e+003,2.460510e+000
1.828094e+003,2.540710e+000
1.829058e+003,3.096375e+000
1.830022e+003,4.783264e+000
1.830987e+003,5.722656e+000
1.831951e+003,3.656860e+000
1.832915e+003,4.236450e-001
1.833879e+003,-1.848145e+000
1.834844e+003,-2.911804e+000
1.835808e+003,-1.776367e+000
1.836772e+003,1.337463e+000
1.837736e+003,2.816406e+000
1.838700e+003,8.375854e-001
1.839665e+003,-1.288879e+000
1.840629e+003,-1.384888e-001
1.841593e+003,2.330933e+000
1.842557e+003,1.348938e+000
1.843522e+003,-3.021301e+000
1.844486e+003,-4.362610e+000
1.845450e+003,4.965820e-001
1.846414e+003,3.204468e+000
1.847379e+003,1.534607e+000
1.848343e+003,-4.541016e-001
1.849307e+003,-1.639343e+000
1.850271e+003,-2.260986e+000
1.851236e+003,-2.520264e+000
1.852200e+003,-2.019958e+000
1.853164e+003,4.270020e-001
1.854128e+003,3.412903e+000
1.855093e+003,3.084045e+000
1.856057e+003,-1.278503e+000
1.857021e+003,-5.153870e+000
1.857985e+003,-4.856445e+000
1.858949e+003,-2.803894e+000
1.859914e+003,-3.277954e+000
1.860878e+003,-5.553589e+000
1.861842e+003,-6.074036e+000
1.862806e+003,-4.919495e+000
1.863771e+003,-2.954468e+000
1.864735e+003,-1.702881e-002
1.865699e+003,1.538391e+000
1.866663e+003,4.445190e-001
1.867627e+003,-1.204224e+000
1.868592e+003,-2.192566e+000
1.869556e+003,-2.816223e+000
1.870520e+003,-2.521912e+000
1.871484e+003,-1.660767e+000
1.872449e+003,-2.609802e+000
1.873413e+003,-5.338928e+000
1.874377e+003,-6.662720e+000
1.875341e+003,-6.414185e+000
1.876306e+003,-5.431946e+000
1.877270e+003,-4.053040e+000
1.878234e+003,-2.475281e+000
1.879198e+003,-9.924316e-002
1.880163e+003,2.223694e+000
1.881127e+003,2.655090e+000
1.882091e+003,1.498718e+000
1.883055e+003,1.075562e+000
1.884020e+003,2.156067e+000
1.884984e+003,2.370483e+000
1.885948e+003,-4.989624e-001
1.886912e+003,-4.413269e+000
1.887876e+003,-5.034912e+000
1.888841e+003,-2.675598e+000
1.889805e+003,-1.816467e+000
1.890769e+003,-2.864380e+000
1.891733e+003,-3.203918e+000
1.892698e+003,-2.737244e+000
1.893662e+003,-1.881165e+000
1.894626e+003,1.428223e-002
1.895590e+003,1.489624e+000
1.896554e+003,1.089417e+000
1.897519e+003,4.203491e-001
1.898483e+003,1.543213e+000
1.899447e+003,3.488403e+000
1.900411e+003,3.449829e+000
1.901376e+003,9.383545e-001
1.902340e+003,-3.532715e-001
1.903304e+003,2.425781e+000
1.904268e+003,4.292908e+000
1.905233e+003,9.005737e-001
1.906197e+003,-3.338318e+000
1.907161e+003,-3.532227e+000
1.908125e+003,-1.234680e+000
1.909090e+003,1.936646e-001
1.910054e+003,2.675781e-001
1.911018e+003,4.858398e-002
1.911982e+003,1.714478e-001
1.912947e+003,1.065613e+000
1.913911e+003,2.947571e+000
1.914875e+003,4.569153e+000
1.915839e+003,3.640808e+000
1.916803e+003,7.120361e-001
1.917768e+003,2.888184e-001
1.918732e+003,3.170593e+000
1.919696e+003,5.046143e+000
1.920660e+003,5.943726e+000
1.921625e+003,6.166931e+000
1.922589e+003,5.032593e+000
1.923553e+003,3.916687e+000
1.924517e+003,3.537231e+000
1.925481e+003,3.603088e+000
1.926446e+003,3.735596e+000
1.927410e+003,4.210327e+000
1.928374e+003,6.051025e+000
1.929338e+003,8.832764e+000
1.930303e+003,9.324585e+000
1.931267e+003,6.245789e+000
1.932231e+003,4.240967e+000
1.933195e+003,5.655273e+000
1.934160e+003,7.713806e+000
1.935124e+003,8.548584e+000
1.936088e+003,8.550232e+000
1.937052e+003,8.819519e+000
1.938017e+003,9.137207e+000
1.938981e+003,8.317688e+000
1.939945e+003,6.297363e+000
1.940909e+003,3.891602e+000
1.941874e+003,1.490601e+000
1.942838e+003,-3.974609e-001
1.943802e+003,-9.721069e-001
1.944766e+003,-5.570068e-001
1.945730e+003,-5.430908e-001
1.946695e+003,-1.096802e+000
1.947659e+003,-1.488464e+000
1.948623e+003,-1.800903e+000
1.949587e+003,-2.212585e+000
1.950552e+003,-2.797607e+000
1.951516e+003,-2.301636e+000
1.952480e+003,3.050537e-001
1.953444e+003,2.713257e+000
1.954408e+003,2.934509e+000
1.955373e+003,1.994019e+000
1.956337e+003,1.561035e+000
1.957301e+003,1.924622e+000
1.958265e+003,2.798157e+000
1.959230e+003,4.259827e+000
1.960194e+003,5.958801e+000
1.961158e+003,7.910217e+000
1.962122e+003,8.742920e+000
1.963087e+003,8.282593e+000
1.964051e+003,6.592346e+000
1.965015e+003,2.073120e+000
1.965979e+003,-1.527527e+000
1.966944e+003,6.171265e-001
1.967908e+003,5.310059e+000
1.968872e+003,6.000305e+000
1.969836e+003,2.821228e+000
1.970801e+003,1.650818e+000
1.971765e+003,4.881775e+000
1.972729e+003,8.346252e+000
1.973693e+003,8.475708e+000
1.974657e+003,6.948975e+000
1.975622e+003,5.533813e+000
1.976586e+003,4.448853e+000
1.977550e+003,5.125977e+000
1.978514e+003,7.297424e+000
1.979479e+003,8.620422e+000
1.980443e+003,8.689270e+000
1.981407e+003,8.420288e+000
1.982371e+003,8.283813e+000
1.983335e+003,8.271057e+000
1.984300e+003,8.184143e+000
1.985264e+003,7.772522e+000
1.986228e+003,6.794067e+000
1.987192e+003,5.517700e+000
1.988157e+003,5.514648e+000
1.989121e+003,7.448120e+000
1.990085e+003,7.956726e+000
1.991049e+003,6.468567e+000
1.992014e+003,5.148865e+000
1.992978e+003,3.694763e+000
1.993942e+003,2.788208e+000
1.994906e+003,2.863953e+000
1.995871e+003,3.382324e+000
1.996835e+003,4.904175e+000
1.997799e+003,6.295898e+000
1.998763e+003,4.854065e+000
1.999728e+003,1.305359e+000
