5.003444e+002,5.349396e+001
5.013087e+002,5.255801e+001
5.022729e+002,5.162024e+001
5.032371e+002,5.068893e+001
5.042014e+002,4.893280e+001
5.051656e+002,4.656979e+001
5.061298e+002,4.460376e+001
5.070941e+002,4.394742e+001
5.080583e+002,4.479919e+001
5.090225e+002,4.537704e+001
5.099868e+002,4.533704e+001
5.109510e+002,4.544614e+001
5.119152e+002,4.648785e+001
5.128795e+002,4.861682e+001
5.138437e+002,4.964215e+001
5.148079e+002,4.805420e+001
5.157722e+002,4.602686e+001
5.167364e+002,4.401532e+001
5.177006e+002,4.225671e+001
5.186649e+002,4.094305e+001
5.196291e+002,4.069891e+001
5.205933e+002,4.122675e+001
5.215576e+002,4.216589e+001
5.225218e+002,4.323276e+001
5.234860e+002,4.405020e+001
5.244503e+002,4.414575e+001
5.254145e+002,4.354373e+001
5.263787e+002,4.241025e+001
5.273430e+002,4.002057e+001
5.283072e+002,3.757639e+001
5.292714e+002,3.690662e+001
5.302357e+002,3.914700e+001
5.311999e+002,4.013919e+001
5.321641e+002,3.869873e+001
5.331284e+002,3.695898e+001
5.340926e+002,3.680457e+001
5.350568e+002,3.896359e+001
5.360211e+002,4.070834e+001
5.369853e+002,3.933511e+001
5.379495e+002,3.689139e+001
5.389138e+002,3.463608e+001
5.398780e+002,3.316422e+001
5.408422e+002,3.242749e+001
5.418065e+002,3.265982e+001
5.427707e+002,3.370746e+001
5.437349e+002,3.457968e+001
5.446992e+002,3.496106e+001
5.456634e+002,3.497720e+001
5.466276e+002,3.515765e+001
5.475919e+002,3.639569e+001
5.485561e+002,3.670773e+001
5.495203e+002,3.517126e+001
5.504846e+002,3.281775e+001
5.514488e+002,3.125534e+001
5.524130e+002,3.148926e+001
5.533773e+002,3.182666e+001
5.543415e+002,3.157321e+001
5.553057e+002,3.086374e+001
5.562700e+002,2.954962e+001
5.572342e+002,2.753452e+001
5.581984e+002,2.548413e+001
5.591627e+002,2.572803e+001
5.601269e+002,2.736682e+001
5.610911e+002,2.807947e+001
5.620554e+002,2.651279e+001
5.630196e+002,2.303381e+001
5.639838e+002,2.163104e+001
5.649481e+002,2.406076e+001
5.659123e+002,2.600415e+001
5.668765e+002,2.721786e+001
5.678408e+002,2.771130e+001
5.688050e+002,2.703900e+001
5.697692e+002,2.300717e+001
5.707335e+002,2.022266e+001
5.716977e+002,2.090002e+001
5.726619e+002,2.341736e+001
5.736262e+002,2.578867e+001
5.745904e+002,2.683209e+001
5.755546e+002,2.666370e+001
5.765189e+002,2.466641e+001
5.774831e+002,2.176532e+001
5.784473e+002,2.001859e+001
5.794116e+002,2.088983e+001
5.803758e+002,2.415094e+001
5.813400e+002,2.536722e+001
5.823043e+002,2.392868e+001
5.832685e+002,2.217896e+001
5.842327e+002,2.081110e+001
5.851970e+002,1.994009e+001
5.861612e+002,1.962122e+001
5.871254e+002,2.027579e+001
5.880897e+002,2.084164e+001
5.890539e+002,2.094675e+001
5.900181e+002,2.076685e+001
5.909824e+002,2.075708e+001
5.919466e+002,2.143646e+001
5.929108e+002,2.196716e+001
5.938751e+002,2.105383e+001
5.948393e+002,1.952585e+001
5.958035e+002,1.893945e+001
5.967678e+002,2.041840e+001
5.977320e+002,2.348804e+001
5.986962e+002,2.333386e+001
5.996605e+002,1.972241e+001
6.006247e+002,1.666602e+001
6.015889e+002,1.640561e+001
6.025532e+002,1.872464e+001
6.035174e+002,2.001807e+001
6.044816e+002,1.868396e+001
6.054459e+002,1.808084e+001
6.064101e+002,1.928067e+001
6.073743e+002,2.142538e+001
6.083386e+002,2.290375e+001
6.093028e+002,2.270697e+001
6.102670e+002,2.209659e+001
6.112313e+002,2.216266e+001
6.121955e+002,2.247006e+001
6.131597e+002,2.243643e+001
6.141240e+002,2.165829e+001
6.150882e+002,2.028357e+001
6.160524e+002,1.868396e+001
6.170167e+002,1.699036e+001
6.179809e+002,1.620520e+001
6.189451e+002,1.694958e+001
6.199094e+002,1.890106e+001
6.208736e+002,2.016443e+001
6.218378e+002,2.031393e+001
6.228021e+002,2.054675e+001
6.237663e+002,2.127579e+001
6.247305e+002,2.212476e+001
6.256948e+002,2.233154e+001
6.266590e+002,2.119690e+001
6.276232e+002,1.987784e+001
6.285875e+002,1.941040e+001
6.295517e+002,1.927954e+001
6.305159e+002,1.876660e+001
6.314802e+002,1.747235e+001
6.324444e+002,1.583481e+001
6.334086e+002,1.552664e+001
6.343729e+002,1.622458e+001
6.353371e+002,1.679150e+001
6.363013e+002,1.677066e+001
6.372656e+002,1.628360e+001
6.382298e+002,1.591693e+001
6.391940e+002,1.624860e+001
6.401583e+002,1.571878e+001
6.411225e+002,1.351990e+001
6.420867e+002,1.118234e+001
6.430510e+002,1.064642e+001
6.440152e+002,1.287155e+001
6.449794e+002,1.476105e+001
6.459437e+002,1.434088e+001
6.469079e+002,1.327121e+001
6.478721e+002,1.310080e+001
6.488364e+002,1.426703e+001
6.498006e+002,1.557202e+001
6.507648e+002,1.418005e+001
6.517291e+002,1.123889e+001
6.526933e+002,9.846863e+000
6.536575e+002,1.063342e+001
6.546218e+002,1.254260e+001
6.555860e+002,1.353763e+001
6.565502e+002,1.287592e+001
6.575145e+002,1.281662e+001
6.584787e+002,1.445148e+001
6.594429e+002,1.578622e+001
6.604072e+002,1.466748e+001
6.613714e+002,1.045514e+001
6.623356e+002,7.452454e+000
6.632999e+002,8.327667e+000
6.642641e+002,1.015042e+001
6.652283e+002,1.219424e+001
6.661926e+002,1.400430e+001
6.671568e+002,1.507956e+001
6.681210e+002,1.437900e+001
6.690853e+002,1.262271e+001
6.700495e+002,1.196494e+001
6.710137e+002,1.242618e+001
6.719780e+002,1.346625e+001
6.729422e+002,1.459924e+001
6.739064e+002,1.596646e+001
6.748707e+002,1.600183e+001
6.758349e+002,1.334036e+001
6.767991e+002,1.123471e+001
6.777634e+002,1.160281e+001
6.787276e+002,1.420468e+001
6.796918e+002,1.641397e+001
6.806561e+002,1.727704e+001
6.816203e+002,1.711749e+001
6.825845e+002,1.500244e+001
6.835488e+002,1.219705e+001
6.845130e+002,1.096887e+001
6.854772e+002,1.326807e+001
6.864415e+002,1.689032e+001
6.874057e+002,1.574655e+001
6.883699e+002,1.140527e+001
6.893342e+002,8.488281e+000
6.902984e+002,9.766296e+000
6.912626e+002,1.446103e+001
6.922269e+002,1.682422e+001
6.931911e+002,1.485962e+001
6.941553e+002,1.370413e+001
6.951196e+002,1.363779e+001
6.960838e+002,1.433441e+001
6.970480e+002,1.557248e+001
6.980123e+002,1.778064e+001
6.989765e+002,1.952155e+001
6.999407e+002,2.080194e+001
7.009050e+002,2.111023e+001
7.018692e+002,1.945685e+001
7.028334e+002,1.579166e+001
7.037977e+002,1.170425e+001
7.047619e+002,1.003006e+001
7.057261e+002,9.948334e+000
7.066904e+002,9.304321e+000
7.076546e+002,7.765686e+000
7.086188e+002,6.540680e+000
7.095831e+002,7.729126e+000
7.105473e+002,1.274036e+001
7.115115e+002,1.529959e+001
7.124758e+002,1.388226e+001
7.134400e+002,1.197855e+001
7.144042e+002,1.177713e+001
7.153685e+002,1.340762e+001
7.163327e+002,1.504449e+001
7.172969e+002,1.643076e+001
7.182612e+002,1.710236e+001
7.192254e+002,1.618176e+001
7.201896e+002,1.431360e+001
7.211539e+002,1.271576e+001
7.221181e+002,1.240598e+001
7.230823e+002,1.313379e+001
7.240466e+002,1.421176e+001
7.250108e+002,1.568408e+001
7.259750e+002,1.736172e+001
7.269393e+002,1.915598e+001
7.279035e+002,2.071759e+001
7.288677e+002,2.054681e+001
7.298320e+002,1.728387e+001
7.307962e+002,1.453574e+001
7.317604e+002,1.195575e+001
7.327247e+002,1.027307e+001
7.336889e+002,1.079691e+001
7.346531e+002,1.441718e+001
7.356174e+002,1.734531e+001
7.365816e+002,1.731720e+001
7.375458e+002,1.655450e+001
7.385101e+002,1.699207e+001
7.394743e+002,1.891074e+001
7.404385e+002,2.074429e+001
7.414028e+002,1.980478e+001
7.423670e+002,1.633649e+001
7.433312e+002,1.333340e+001
7.442955e+002,1.114838e+001
7.452597e+002,1.018085e+001
7.462239e+002,1.112540e+001
7.471882e+002,1.477753e+001
7.481524e+002,1.644803e+001
7.491166e+002,1.402991e+001
7.500809e+002,1.194342e+001
7.510451e+002,1.235721e+001
7.520093e+002,1.461127e+001
7.529736e+002,1.591431e+001
7.539378e+002,1.428375e+001
7.549020e+002,1.292346e+001
7.558663e+002,1.410706e+001
7.568306e+002,1.666376e+001
7.577948e+002,1.908313e+001
7.587590e+002,2.035690e+001
7.597233e+002,2.053104e+001
7.606875e+002,1.955237e+001
7.616517e+002,1.773148e+001
7.626160e+002,1.709851e+001
7.635802e+002,1.872403e+001
7.645444e+002,2.132520e+001
7.655087e+002,2.201047e+001
7.664729e+002,1.933765e+001
7.674371e+002,1.776068e+001
7.684014e+002,1.813757e+001
7.693656e+002,1.891531e+001
7.703298e+002,1.911090e+001
7.712941e+002,1.864813e+001
7.722583e+002,1.826709e+001
7.732225e+002,1.846307e+001
7.741868e+002,1.901260e+001
7.751510e+002,2.003287e+001
7.761152e+002,2.126227e+001
7.770795e+002,2.212558e+001
7.780437e+002,2.208609e+001
7.790079e+002,2.123004e+001
7.799722e+002,2.072302e+001
7.809364e+002,2.063779e+001
7.819006e+002,2.027405e+001
7.828649e+002,1.923007e+001
7.838291e+002,1.786420e+001
7.847933e+002,1.710168e+001
7.857576e+002,1.690457e+001
7.867218e+002,1.704904e+001
7.876860e+002,1.823618e+001
7.886503e+002,1.947321e+001
7.896145e+002,1.972009e+001
7.905787e+002,1.878326e+001
7.915430e+002,1.784189e+001
7.925072e+002,1.832877e+001
7.934714e+002,1.912238e+001
7.944357e+002,1.932965e+001
7.953999e+002,1.892590e+001
7.963641e+002,1.792462e+001
7.973284e+002,1.618744e+001
7.982926e+002,1.358896e+001
7.992568e+002,1.318607e+001
8.002211e+002,1.570032e+001
8.011853e+002,1.779553e+001
8.021495e+002,1.844830e+001
8.031138e+002,1.816074e+001
8.040780e+002,1.793430e+001
8.050422e+002,1.725278e+001
8.060065e+002,1.741687e+001
8.069707e+002,1.978702e+001
8.079349e+002,2.232571e+001
8.088992e+002,2.276569e+001
8.098634e+002,2.055319e+001
8.108276e+002,1.781424e+001
8.117919e+002,1.765048e+001
8.127561e+002,1.876712e+001
8.137203e+002,1.921231e+001
8.146846e+002,1.891379e+001
8.156488e+002,1.805652e+001
8.166130e+002,1.660999e+001
8.175773e+002,1.421100e+001
8.185415e+002,1.317294e+001
8.195057e+002,1.367969e+001
8.204700e+002,1.469467e+001
8.214342e+002,1.649103e+001
8.223984e+002,1.854160e+001
8.233627e+002,1.937610e+001
8.243269e+002,1.775351e+001
8.252911e+002,1.650223e+001
8.262554e+002,1.795181e+001
8.272196e+002,2.009940e+001
8.281838e+002,2.056430e+001
8.291481e+002,1.867499e+001
8.301123e+002,1.605002e+001
8.310765e+002,1.559451e+001
8.320408e+002,1.716165e+001
8.330050e+002,1.841577e+001
8.339692e+002,1.935333e+001
8.349335e+002,1.976459e+001
8.358977e+002,1.906476e+001
8.368619e+002,1.698157e+001
8.378262e+002,1.653400e+001
8.387904e+002,1.983051e+001
8.397546e+002,2.215756e+001
8.407189e+002,2.183005e+001
8.416831e+002,1.990030e+001
8.426473e+002,1.817871e+001
8.436116e+002,1.737881e+001
8.445758e+002,1.745834e+001
8.455400e+002,1.871362e+001
8.465043e+002,2.021817e+001
8.474685e+002,2.127228e+001
8.484327e+002,2.173346e+001
8.493970e+002,2.161703e+001
8.503612e+002,2.066565e+001
8.513254e+002,1.851355e+001
8.522897e+002,1.801093e+001
8.532539e+002,1.962790e+001
8.542181e+002,2.180496e+001
8.551824e+002,2.430402e+001
8.561466e+002,2.712161e+001
8.571108e+002,2.884604e+001
8.580751e+002,2.772409e+001
8.590393e+002,2.650488e+001
8.600035e+002,2.607953e+001
8.609678e+002,2.630966e+001
8.619320e+002,2.709753e+001
8.628962e+002,2.831763e+001
8.638605e+002,2.955240e+001
8.648247e+002,3.023224e+001
8.657889e+002,3.039069e+001
8.667532e+002,3.007364e+001
8.677174e+002,2.928717e+001
8.686816e+002,2.830295e+001
8.696459e+002,2.736148e+001
8.706101e+002,2.643384e+001
8.715743e+002,2.654089e+001
8.725386e+002,2.831131e+001
8.735028e+002,3.022870e+001
8.744670e+002,3.237054e+001
8.754313e+002,3.407681e+001
8.763955e+002,3.404016e+001
8.773597e+002,3.133871e+001
8.783240e+002,2.892450e+001
8.792882e+002,2.912399e+001
8.802524e+002,3.026288e+001
8.812167e+002,3.087466e+001
8.821809e+002,3.075824e+001
8.831451e+002,3.096042e+001
8.841094e+002,3.301093e+001
8.850736e+002,3.679547e+001
8.860378e+002,3.758932e+001
8.870021e+002,3.436636e+001
8.879663e+002,3.178015e+001
8.889305e+002,3.310147e+001
8.898948e+002,3.733466e+001
8.908590e+002,3.950452e+001
8.918232e+002,3.807748e+001
8.927875e+002,3.674689e+001
8.937517e+002,3.613367e+001
8.947159e+002,3.604929e+001
8.956802e+002,3.605463e+001
8.966444e+002,3.607373e+001
8.976086e+002,3.676138e+001
8.985729e+002,3.947992e+001
8.995371e+002,4.299121e+001
9.005013e+002,4.514999e+001
9.014656e+002,4.604532e+001
9.024298e+002,4.608572e+001
9.033940e+002,4.537006e+001
9.043583e+002,4.393665e+001
9.053225e+002,4.311832e+001
9.062867e+002,4.373755e+001
9.072510e+002,4.367532e+001
9.082152e+002,4.256259e+001
9.091794e+002,4.133044e+001
9.101437e+002,4.082043e+001
9.111079e+002,4.115067e+001
9.120721e+002,4.183963e+001
9.130364e+002,4.332617e+001
9.140006e+002,4.413882e+001
9.149648e+002,4.275214e+001
9.159291e+002,4.026813e+001
9.168933e+002,3.905151e+001
9.178575e+002,4.064160e+001
9.188218e+002,4.369739e+001
9.197860e+002,4.351520e+001
9.207502e+002,3.993454e+001
9.217145e+002,3.737704e+001
9.226787e+002,3.717850e+001
9.236429e+002,3.822348e+001
9.246072e+002,3.896582e+001
9.255714e+002,3.923303e+001
9.265356e+002,3.948639e+001
9.274999e+002,3.987308e+001
9.284641e+002,4.003680e+001
9.294283e+002,4.000922e+001
9.303926e+002,3.975549e+001
9.313568e+002,3.921014e+001
9.323210e+002,3.832803e+001
9.332853e+002,3.709357e+001
9.342495e+002,3.464307e+001
9.352137e+002,3.197049e+001
9.361780e+002,3.124094e+001
9.371422e+002,3.299597e+001
9.381064e+002,3.572516e+001
9.390707e+002,3.728979e+001
9.400349e+002,3.740311e+001
9.409991e+002,3.712540e+001
9.419634e+002,3.635184e+001
9.429276e+002,3.530801e+001
9.438918e+002,3.327606e+001
9.448561e+002,3.131894e+001
9.458203e+002,3.169626e+001
9.467845e+002,3.566196e+001
9.477488e+002,3.903870e+001
9.487130e+002,3.756607e+001
9.496772e+002,3.492847e+001
9.506415e+002,3.388007e+001
9.516057e+002,3.461026e+001
9.525699e+002,3.587692e+001
9.535342e+002,3.645404e+001
9.544984e+002,3.634085e+001
9.554626e+002,3.603247e+001
9.564269e+002,3.579105e+001
9.573911e+002,3.541046e+001
9.583553e+002,3.466959e+001
9.593196e+002,3.372772e+001
9.602838e+002,3.274500e+001
9.612480e+002,3.151718e+001
9.622123e+002,3.093097e+001
9.631765e+002,3.166296e+001
9.641407e+002,3.275656e+001
9.651050e+002,3.426187e+001
9.660692e+002,3.560513e+001
9.670334e+002,3.572498e+001
9.679977e+002,3.400781e+001
9.689619e+002,3.180884e+001
9.699261e+002,3.222006e+001
9.708904e+002,3.421008e+001
9.718546e+002,3.506573e+001
9.728188e+002,3.391089e+001
9.737831e+002,3.236258e+001
9.747473e+002,3.280515e+001
9.757115e+002,3.579175e+001
9.766758e+002,3.807803e+001
9.776400e+002,3.976224e+001
9.786042e+002,4.088120e+001
9.795685e+002,4.088232e+001
9.805327e+002,4.031799e+001
9.814969e+002,4.021942e+001
9.824612e+002,4.103830e+001
9.834254e+002,4.161304e+001
9.843896e+002,4.027628e+001
9.853539e+002,3.805457e+001
9.863181e+002,3.615601e+001
9.872823e+002,3.445792e+001
9.882466e+002,3.199237e+001
9.892108e+002,2.800336e+001
9.901750e+002,2.325885e+001
9.911393e+002,2.203278e+001
9.921035e+002,2.690192e+001
9.930677e+002,3.040912e+001
9.940320e+002,3.177744e+001
9.949962e+002,3.239243e+001
9.959604e+002,3.330347e+001
9.969247e+002,3.465167e+001
9.978889e+002,3.641040e+001
9.988531e+002,3.881644e+001
9.998174e+002,4.082233e+001
1.000782e+003,4.176367e+001
1.001746e+003,4.220761e+001
1.002710e+003,4.307211e+001
1.003674e+003,4.464642e+001
1.004639e+003,4.612814e+001
1.005603e+003,4.598282e+001
1.006567e+003,4.396381e+001
1.007531e+003,4.356448e+001
1.008495e+003,4.586337e+001
1.009460e+003,4.763501e+001
1.010424e+003,4.634677e+001
1.011388e+003,4.292935e+001
1.012352e+003,4.117645e+001
1.013317e+003,4.248053e+001
1.014281e+003,4.333051e+001
1.015245e+003,4.227737e+001
1.016209e+003,4.063370e+001
1.017174e+003,3.975864e+001
1.018138e+003,3.942050e+001
1.019102e+003,3.792960e+001
1.020066e+003,3.373505e+001
1.021031e+003,2.826047e+001
1.021995e+003,2.556250e+001
1.022959e+003,2.491632e+001
1.023923e+003,2.396552e+001
1.024887e+003,2.158203e+001
1.025852e+003,1.910419e+001
1.026816e+003,1.921301e+001
1.027780e+003,2.301065e+001
1.028744e+003,2.472662e+001
1.029709e+003,2.206482e+001
1.030673e+003,1.941864e+001
1.031637e+003,1.817612e+001
1.032601e+003,1.758261e+001
1.033566e+003,1.628064e+001
1.034530e+003,1.387384e+001
1.035494e+003,1.180896e+001
1.036458e+003,1.163046e+001
1.037422e+003,1.282773e+001
1.038387e+003,1.509625e+001
1.039351e+003,1.810980e+001
1.040315e+003,2.014923e+001
1.041279e+003,1.984647e+001
1.042244e+003,1.782791e+001
1.043208e+003,1.693555e+001
1.044172e+003,1.835468e+001
1.045136e+003,1.852554e+001
1.046101e+003,1.622528e+001
1.047065e+003,1.402838e+001
1.048029e+003,1.373734e+001
1.048993e+003,1.499551e+001
1.049958e+003,1.621283e+001
1.050922e+003,1.687509e+001
1.051886e+003,1.696890e+001
1.052850e+003,1.579318e+001
1.053814e+003,1.436569e+001
1.054779e+003,1.411487e+001
1.055743e+003,1.527216e+001
1.056707e+003,1.709155e+001
1.057671e+003,1.875443e+001
1.058636e+003,2.023099e+001
1.059600e+003,2.055569e+001
1.060564e+003,1.921823e+001
1.061528e+003,1.793329e+001
1.062493e+003,1.665948e+001
1.063457e+003,1.541440e+001
1.064421e+003,1.416507e+001
1.065385e+003,1.299237e+001
1.066349e+003,1.267953e+001
1.067314e+003,1.487903e+001
1.068278e+003,1.652124e+001
1.069242e+003,1.425708e+001
1.070206e+003,1.048941e+001
1.071171e+003,9.271088e+000
1.072135e+003,1.205911e+001
1.073099e+003,1.654126e+001
1.074063e+003,1.900128e+001
1.075028e+003,1.935135e+001
1.075992e+003,1.862595e+001
1.076956e+003,1.566251e+001
1.077920e+003,1.346509e+001
1.078885e+003,1.376746e+001
1.079849e+003,1.552295e+001
1.080813e+003,1.684915e+001
1.081777e+003,1.755673e+001
1.082741e+003,1.766119e+001
1.083706e+003,1.609332e+001
1.084670e+003,1.451981e+001
1.085634e+003,1.373276e+001
1.086598e+003,1.370605e+001
1.087563e+003,1.445270e+001
1.088527e+003,1.595358e+001
1.089491e+003,1.768243e+001
1.090455e+003,1.834738e+001
1.091420e+003,1.767947e+001
1.092384e+003,1.720337e+001
1.093348e+003,1.709964e+001
1.094312e+003,1.663699e+001
1.095276e+003,1.490048e+001
1.096241e+003,1.267215e+001
1.097205e+003,1.244577e+001
1.098169e+003,1.543793e+001
1.099133e+003,1.735382e+001
1.100098e+003,1.550671e+001
1.101062e+003,1.330185e+001
1.102026e+003,1.283002e+001
1.102990e+003,1.384192e+001
1.103955e+003,1.512875e+001
1.104919e+003,1.591617e+001
1.105883e+003,1.631824e+001
1.106847e+003,1.651715e+001
1.107812e+003,1.652618e+001
1.108776e+003,1.769986e+001
1.109740e+003,2.115970e+001
1.110704e+003,2.359082e+001
1.111668e+003,2.170505e+001
1.112633e+003,1.681836e+001
1.113597e+003,1.453415e+001
1.114561e+003,1.655032e+001
1.115525e+003,1.810791e+001
1.116490e+003,1.704175e+001
1.117454e+003,1.571027e+001
1.118418e+003,1.578610e+001
1.119382e+003,1.710056e+001
1.120347e+003,1.860178e+001
1.121311e+003,1.952298e+001
1.122275e+003,1.974054e+001
1.123239e+003,1.916608e+001
1.124203e+003,1.810858e+001
1.125168e+003,1.792105e+001
1.126132e+003,1.887418e+001
1.127096e+003,2.038458e+001
1.128060e+003,2.235995e+001
1.129025e+003,2.449207e+001
1.129989e+003,2.530392e+001
1.130953e+003,2.358878e+001
1.131917e+003,2.297656e+001
1.132882e+003,2.513736e+001
1.133846e+003,2.794708e+001
1.134810e+003,3.060229e+001
1.135774e+003,3.277338e+001
1.136739e+003,3.405841e+001
1.137703e+003,3.424463e+001
1.138667e+003,3.400961e+001
1.139631e+003,3.450320e+001
1.140595e+003,3.571207e+001
1.141560e+003,3.718646e+001
1.142524e+003,3.875272e+001
1.143488e+003,4.159970e+001
1.144452e+003,4.720364e+001
1.145417e+003,5.470428e+001
1.146381e+003,6.061948e+001
1.147345e+003,6.354535e+001
1.148309e+003,6.837683e+001
1.149274e+003,7.826804e+001
1.150238e+003,8.836755e+001
1.151202e+003,9.593365e+001
1.152166e+003,1.020601e+002
1.153130e+003,1.095803e+002
1.154095e+003,1.194822e+002
1.155059e+003,1.288084e+002
1.156023e+003,1.334439e+002
1.156987e+003,1.337343e+002
1.157952e+003,1.340994e+002
1.158916e+003,1.353296e+002
1.159880e+003,1.341973e+002
1.160844e+003,1.276265e+002
1.161809e+003,1.173758e+002
1.162773e+003,1.077890e+002
1.163737e+003,9.900461e+001
1.164701e+003,9.042978e+001
1.165666e+003,8.140460e+001
1.166630e+003,7.337732e+001
1.167594e+003,6.687341e+001
1.168558e+003,6.166963e+001
1.169522e+003,5.736362e+001
1.170487e+003,5.387872e+001
1.171451e+003,5.184344e+001
1.172415e+003,5.220425e+001
1.173379e+003,5.422313e+001
1.174344e+003,5.402895e+001
1.175308e+003,5.162424e+001
1.176272e+003,4.930658e+001
1.177236e+003,4.792996e+001
1.178201e+003,4.700751e+001
1.179165e+003,4.584062e+001
1.180129e+003,4.431383e+001
1.181093e+003,4.263177e+001
1.182057e+003,4.047461e+001
1.183022e+003,3.891052e+001
1.183986e+003,3.868491e+001
1.184950e+003,3.892805e+001
1.185914e+003,3.893639e+001
1.186879e+003,3.859273e+001
1.187843e+003,3.797723e+001
1.188807e+003,3.708295e+001
1.189771e+003,3.623938e+001
1.190736e+003,3.678468e+001
1.191700e+003,3.887801e+001
1.192664e+003,4.059264e+001
1.193628e+003,4.170789e+001
1.194593e+003,4.268365e+001
1.195557e+003,4.450754e+001
1.196521e+003,4.644771e+001
1.197485e+003,4.555977e+001
1.198449e+003,4.041020e+001
1.199414e+003,3.568710e+001
1.200378e+003,3.378510e+001
1.201342e+003,3.277451e+001
1.202306e+003,3.182875e+001
1.203271e+003,3.067696e+001
1.204235e+003,2.891191e+001
1.205199e+003,2.650137e+001
1.206163e+003,2.450681e+001
1.207128e+003,2.485583e+001
1.208092e+003,2.775868e+001
1.209056e+003,2.820607e+001
1.210020e+003,2.528371e+001
1.210984e+003,2.227908e+001
1.211949e+003,2.005038e+001
1.212913e+003,1.821075e+001
1.213877e+003,1.647052e+001
1.214841e+003,1.481551e+001
1.215806e+003,1.274770e+001
1.216770e+003,9.432800e+000
1.217734e+003,6.634491e+000
1.218698e+003,5.802124e+000
1.219663e+003,5.806366e+000
1.220627e+003,5.145584e+000
1.221591e+003,3.695419e+000
1.222555e+003,2.647369e+000
1.223520e+003,3.171753e+000
1.224484e+003,4.807953e+000
1.225448e+003,5.065430e+000
1.226412e+003,3.099319e+000
1.227376e+003,1.465744e+000
1.228341e+003,-1.342163e-001
1.229305e+003,-1.183762e+000
1.230269e+003,-1.361893e+000
1.231233e+003,-8.158569e-001
1.232198e+003,5.496521e-001
1.233162e+003,2.912430e+000
1.234126e+003,4.560715e+000
1.235090e+003,3.590790e+000
1.236055e+003,1.704926e+000
1.237019e+003,7.650604e-001
1.237983e+003,4.754028e-001
1.238947e+003,-3.172302e-002
1.239911e+003,-1.049881e+000
1.240876e+003,-2.107468e+000
1.241840e+003,-2.652283e+000
1.242804e+003,-2.703445e+000
1.243768e+003,-1.815903e+000
1.244733e+003,1.637527e+000
1.245697e+003,3.846786e+000
1.246661e+003,3.272797e+000
1.247625e+003,2.243530e+000
1.248590e+003,3.098083e+000
1.249554e+003,5.227341e+000
1.250518e+003,5.865463e+000
1.251482e+003,3.570786e+000
1.252447e+003,6.353302e-001
1.253411e+003,-3.571014e-001
1.254375e+003,3.123322e-001
1.255339e+003,2.488602e+000
1.256303e+003,6.058426e+000
1.257268e+003,8.343704e+000
1.258232e+003,7.281158e+000
1.259196e+003,4.469299e+000
1.260160e+003,3.343811e+000
1.261125e+003,4.262848e+000
1.262089e+003,5.469254e+000
1.263053e+003,7.221115e+000
1.264017e+003,8.423706e+000
1.264982e+003,8.411865e+000
1.265946e+003,8.150909e+000
1.266910e+003,8.787170e+000
1.267874e+003,1.012514e+001
1.268839e+003,1.092784e+001
1.269803e+003,1.037537e+001
1.270767e+003,9.095856e+000
1.271731e+003,8.198608e+000
1.272695e+003,7.783844e+000
1.273660e+003,7.946762e+000
1.274624e+003,8.838913e+000
1.275588e+003,9.325653e+000
1.276552e+003,8.675659e+000
1.277517e+003,7.503662e+000
1.278481e+003,6.906036e+000
1.279445e+003,6.963364e+000
1.280409e+003,6.622330e+000
1.281374e+003,5.350296e+000
1.282338e+003,3.898743e+000
1.283302e+003,2.133026e+000
1.284266e+003,6.997528e-001
1.285230e+003,6.579742e-001
1.286195e+003,1.824585e+000
1.287159e+003,2.815659e+000
1.288123e+003,2.542816e+000
1.289087e+003,1.622894e+000
1.290052e+003,1.722427e+000
1.291016e+003,3.185104e+000
1.291980e+003,4.085800e+000
1.292944e+003,4.203690e+000
1.293909e+003,3.879059e+000
1.294873e+003,3.252869e+000
1.295837e+003,2.460663e+000
1.296801e+003,1.538452e+000
1.297766e+003,5.279236e-001
1.298730e+003,-3.500824e-001
1.299694e+003,-1.122665e+000
1.300658e+003,-1.638947e+000
1.301622e+003,-1.633408e+000
1.302587e+003,-1.220764e+000
1.303551e+003,-4.466705e-001
1.304515e+003,6.528778e-001
1.305479e+003,1.564301e+000
1.306444e+003,1.782990e+000
1.307408e+003,1.435394e+000
1.308372e+003,1.119797e+000
1.309336e+003,8.406677e-001
1.310301e+003,5.483398e-001
1.311265e+003,1.540680e-001
1.312229e+003,9.155273e-004
1.313193e+003,4.198761e-001
1.314157e+003,9.224548e-001
1.315122e+003,9.683685e-001
1.316086e+003,4.994812e-001
1.317050e+003,-1.386871e-001
1.318014e+003,-6.643066e-001
1.318979e+003,-1.195755e+000
1.319943e+003,-2.324646e+000
1.320907e+003,-3.761322e+000
1.321871e+003,-3.575943e+000
1.322836e+003,-1.449310e+000
1.323800e+003,8.204803e-001
1.324764e+003,2.648956e+000
1.325728e+003,3.897186e+000
1.326693e+003,4.287674e+000
1.327657e+003,3.741440e+000
1.328621e+003,2.093018e+000
1.329585e+003,-1.977829e+000
1.330549e+003,-4.209686e+000
1.331514e+003,-1.255829e+000
1.332478e+003,2.817398e+000
1.333442e+003,4.090744e+000
1.334406e+003,2.795151e+000
1.335371e+003,1.576675e+000
1.336335e+003,2.022659e+000
1.337299e+003,2.955322e+000
1.338263e+003,1.956512e+000
1.339228e+003,-1.389954e+000
1.340192e+003,-2.662537e+000
1.341156e+003,-1.447296e-001
1.342120e+003,1.750519e+000
1.343084e+003,1.700348e+000
1.344049e+003,1.210800e+000
1.345013e+003,2.004974e+000
1.345977e+003,3.607346e+000
1.346941e+003,3.774963e+000
1.347906e+003,1.578125e+000
1.348870e+003,-2.836151e-001
1.349834e+003,1.289444e+000
1.350798e+003,4.244553e+000
1.351763e+003,4.756058e+000
1.352727e+003,3.144043e+000
1.353691e+003,1.068863e+000
1.354655e+003,-1.085632e+000
1.355620e+003,-2.710251e+000
1.356584e+003,-3.048981e+000
1.357548e+003,-2.133255e+000
1.358512e+003,-4.032593e-001
1.359476e+003,2.672165e+000
1.360441e+003,4.684326e+000
1.361405e+003,4.652344e+000
1.362369e+003,3.996964e+000
1.363333e+003,3.045959e+000
1.364298e+003,2.086029e+000
1.365262e+003,1.449890e+000
1.366226e+003,1.169693e+000
1.367190e+003,8.810425e-001
1.368155e+003,2.423248e-001
1.369119e+003,-4.228058e-001
1.370083e+003,3.512573e-002
1.371047e+003,2.252487e+000
1.372011e+003,3.042175e+000
1.372976e+003,5.118256e-001
1.373940e+003,-1.168747e+000
1.374904e+003,5.254974e-001
1.375868e+003,3.369675e+000
1.376833e+003,4.445648e+000
1.377797e+003,3.626190e+000
1.378761e+003,2.655716e+000
1.379725e+003,2.268600e+000
1.380690e+003,2.040909e+000
1.381654e+003,1.069580e+000
1.382618e+003,2.992554e-001
1.383582e+003,1.491837e+000
1.384547e+003,4.421204e+000
1.385511e+003,7.018295e+000
1.386475e+003,8.320450e+000
1.387439e+003,8.320450e+000
1.388403e+003,6.561310e+000
1.389368e+003,3.039093e+000
1.390332e+003,5.649719e-001
1.391296e+003,-5.851746e-001
1.392260e+003,-8.581390e-001
1.393225e+003,-4.858398e-002
1.394189e+003,1.084717e+000
1.395153e+003,2.560822e+000
1.396117e+003,3.890320e+000
1.397082e+003,4.375961e+000
1.398046e+003,3.936996e+000
1.399010e+003,3.156448e+000
1.399974e+003,2.491119e+000
1.400938e+003,1.660522e+000
1.401903e+003,6.307983e-002
1.402867e+003,-2.566315e+000
1.403831e+003,-2.851364e+000
1.404795e+003,8.636475e-001
1.405760e+003,4.252625e+000
1.406724e+003,5.685577e+000
1.407688e+003,5.696106e+000
1.408652e+003,4.621338e+000
1.409617e+003,3.024826e+000
1.410581e+003,2.664139e+000
1.411545e+003,4.491913e+000
1.412509e+003,6.227020e+000
1.413474e+003,4.681396e+000
1.414438e+003,2.073166e+000
1.415402e+003,2.853485e+000
1.416366e+003,6.602219e+000
1.417330e+003,9.672211e+000
1.418295e+003,1.074713e+001
1.419259e+003,1.033521e+001
1.420223e+003,8.220795e+000
1.421187e+003,4.779526e+000
1.422152e+003,3.015137e+000
1.423116e+003,3.538864e+000
1.424080e+003,4.415192e+000
1.425044e+003,5.310425e+000
1.426009e+003,6.005707e+000
1.426973e+003,6.146774e+000
1.427937e+003,6.176743e+000
1.428901e+003,7.015854e+000
1.429865e+003,8.456299e+000
1.430830e+003,8.952484e+000
1.431794e+003,7.464508e+000
1.432758e+003,5.281357e+000
1.433722e+003,5.198990e+000
1.434687e+003,7.633591e+000
1.435651e+003,9.249542e+000
1.436615e+003,8.256653e+000
1.437579e+003,8.236877e+000
1.438544e+003,1.126820e+001
1.439508e+003,1.367091e+001
1.440472e+003,1.218959e+001
1.441436e+003,8.727692e+000
1.442401e+003,6.884735e+000
1.443365e+003,7.504791e+000
1.444329e+003,9.387009e+000
1.445293e+003,1.204173e+001
1.446257e+003,1.452852e+001
1.447222e+003,1.463025e+001
1.448186e+003,1.276355e+001
1.449150e+003,1.120035e+001
1.450114e+003,1.009459e+001
1.451079e+003,9.240707e+000
1.452043e+003,8.677902e+000
1.453007e+003,8.391541e+000
1.453971e+003,8.301941e+000
1.454936e+003,8.339661e+000
1.455900e+003,8.427582e+000
1.456864e+003,8.628006e+000
1.457828e+003,8.862167e+000
1.458792e+003,9.167389e+000
1.459757e+003,9.228302e+000
1.460721e+003,8.518311e+000
1.461685e+003,7.444397e+000
1.462649e+003,6.839584e+000
1.463614e+003,6.976578e+000
1.464578e+003,7.609863e+000
1.465542e+003,8.548584e+000
1.466506e+003,9.589996e+000
1.467471e+003,1.031967e+001
1.468435e+003,1.089665e+001
1.469399e+003,1.114861e+001
1.470363e+003,1.042123e+001
1.471328e+003,9.956787e+000
1.472292e+003,1.015353e+001
1.473256e+003,1.031915e+001
1.474220e+003,1.018889e+001
1.475184e+003,9.855392e+000
1.476149e+003,9.252243e+000
1.477113e+003,8.407257e+000
1.478077e+003,7.840118e+000
1.479041e+003,8.177856e+000
1.480006e+003,9.226700e+000
1.480970e+003,1.005284e+001
1.481934e+003,1.037639e+001
1.482898e+003,1.108765e+001
1.483863e+003,1.306802e+001
1.484827e+003,1.409467e+001
1.485791e+003,1.270097e+001
1.486755e+003,1.109547e+001
1.487719e+003,1.118532e+001
1.488684e+003,1.267508e+001
1.489648e+003,1.461713e+001
1.490612e+003,1.673080e+001
1.491576e+003,1.856731e+001
1.492541e+003,1.962068e+001
1.493505e+003,2.024767e+001
1.494469e+003,2.126370e+001
1.495433e+003,2.246426e+001
1.496398e+003,2.344473e+001
1.497362e+003,2.416795e+001
1.498326e+003,2.536995e+001
1.499290e+003,2.754463e+001
1.500255e+003,3.028171e+001
1.501219e+003,3.304416e+001
1.502183e+003,3.578952e+001
1.503147e+003,3.849754e+001
1.504111e+003,4.103334e+001
1.505076e+003,4.420851e+001
1.506040e+003,4.872885e+001
1.507004e+003,5.395596e+001
1.507968e+003,5.959247e+001
1.508933e+003,6.529282e+001
1.509897e+003,6.985390e+001
1.510861e+003,7.342989e+001
1.511825e+003,7.886945e+001
1.512790e+003,8.847617e+001
1.513754e+003,1.000915e+002
1.514718e+003,1.096259e+002
1.515682e+003,1.169632e+002
1.516646e+003,1.251615e+002
1.517611e+003,1.344074e+002
1.518575e+003,1.450035e+002
1.519539e+003,1.605833e+002
1.520503e+003,1.741136e+002
1.521468e+003,1.811789e+002
1.522432e+003,1.841336e+002
1.523396e+003,1.868012e+002
1.524360e+003,1.893835e+002
1.525325e+003,1.889339e+002
1.526289e+003,1.835395e+002
1.527253e+003,1.754549e+002
1.528217e+003,1.686117e+002
1.529182e+003,1.631535e+002
1.530146e+003,1.570576e+002
1.531110e+003,1.513344e+002
1.532074e+003,1.426701e+002
1.533039e+003,1.292777e+002
1.534003e+003,1.144671e+002
1.534967e+003,9.904024e+001
1.535931e+003,8.401355e+001
1.536896e+003,6.931119e+001
1.537860e+003,5.593442e+001
1.538824e+003,4.647115e+001
1.539788e+003,4.199608e+001
1.540752e+003,3.977089e+001
1.541717e+003,3.637387e+001
1.542681e+003,3.210364e+001
1.543645e+003,2.836380e+001
1.544609e+003,2.546461e+001
1.545573e+003,2.275795e+001
1.546538e+003,1.942183e+001
1.547502e+003,1.694647e+001
1.548466e+003,1.635840e+001
1.549430e+003,1.682806e+001
1.550395e+003,1.769582e+001
1.551359e+003,1.863280e+001
1.552323e+003,1.947768e+001
1.553287e+003,2.013199e+001
1.554252e+003,1.981412e+001
1.555216e+003,1.757117e+001
1.556180e+003,1.454938e+001
1.557144e+003,1.359712e+001
1.558109e+003,1.485939e+001
1.559073e+003,1.564819e+001
1.560037e+003,1.601544e+001
1.561001e+003,1.522412e+001
1.561966e+003,1.142688e+001
1.562930e+003,8.237106e+000
1.563894e+003,9.994827e+000
1.564858e+003,1.460571e+001
1.565823e+003,1.675632e+001
1.566787e+003,1.546484e+001
1.567751e+003,1.333478e+001
1.568715e+003,1.149455e+001
1.569679e+003,1.058626e+001
1.570644e+003,1.214806e+001
1.571608e+003,1.492154e+001
1.572572e+003,1.530429e+001
1.573536e+003,1.322836e+001
1.574500e+003,1.152205e+001
1.575465e+003,1.119286e+001
1.576429e+003,1.124721e+001
1.577393e+003,1.089526e+001
1.578357e+003,1.029150e+001
1.579322e+003,9.618317e+000
1.580286e+003,9.012375e+000
1.581250e+003,9.456467e+000
1.582214e+003,1.155608e+001
1.583179e+003,1.359021e+001
1.584143e+003,1.414975e+001
1.585107e+003,1.393286e+001
1.586071e+003,1.440062e+001
1.587036e+003,1.521553e+001
1.588000e+003,1.430244e+001
1.588964e+003,1.091879e+001
1.589928e+003,8.960846e+000
1.590893e+003,1.229019e+001
1.591857e+003,1.729430e+001
1.592821e+003,1.801372e+001
1.593785e+003,1.533904e+001
1.594750e+003,1.456174e+001
1.595714e+003,1.658298e+001
1.596678e+003,1.833939e+001
1.597642e+003,1.848170e+001
1.598606e+003,1.821217e+001
1.599571e+003,1.816774e+001
1.600535e+003,1.858112e+001
1.601499e+003,2.010849e+001
1.602463e+003,2.243118e+001
1.603427e+003,2.414325e+001
1.604392e+003,2.471907e+001
1.605356e+003,2.433885e+001
1.606320e+003,2.259656e+001
1.607284e+003,2.024640e+001
1.608249e+003,1.969482e+001
1.609213e+003,2.102533e+001
1.610177e+003,2.165630e+001
1.611141e+003,2.112364e+001
1.612106e+003,1.998221e+001
1.613070e+003,1.758920e+001
1.614034e+003,1.549417e+001
1.614998e+003,1.494489e+001
1.615963e+003,1.544688e+001
1.616927e+003,1.630089e+001
1.617891e+003,1.722720e+001
1.618855e+003,1.775034e+001
1.619820e+003,1.749921e+001
1.620784e+003,1.676117e+001
1.621748e+003,1.599162e+001
1.622712e+003,1.543721e+001
1.623677e+003,1.569368e+001
1.624641e+003,1.700867e+001
1.625605e+003,1.774698e+001
1.626569e+003,1.682858e+001
1.627533e+003,1.584163e+001
1.628498e+003,1.562447e+001
1.629462e+003,1.590144e+001
1.630426e+003,1.665186e+001
1.631390e+003,1.758911e+001
1.632354e+003,1.822107e+001
1.633319e+003,1.841884e+001
1.634283e+003,1.834407e+001
1.635247e+003,1.804799e+001
1.636211e+003,1.767737e+001
1.637176e+003,1.763959e+001
1.638140e+003,1.795401e+001
1.639104e+003,1.801302e+001
1.640068e+003,1.772960e+001
1.641033e+003,1.719374e+001
1.641997e+003,1.616708e+001
1.642961e+003,1.540067e+001
1.643925e+003,1.540851e+001
1.644890e+003,1.568089e+001
1.645854e+003,1.581279e+001
1.646818e+003,1.571129e+001
1.647782e+003,1.496429e+001
1.648747e+003,1.358701e+001
1.649711e+003,1.337622e+001
1.650675e+003,1.620474e+001
1.651639e+003,2.053221e+001
1.652604e+003,2.304396e+001
1.653568e+003,2.372867e+001
1.654532e+003,2.405960e+001
1.655496e+003,2.417331e+001
1.656460e+003,2.371802e+001
1.657425e+003,2.284618e+001
1.658389e+003,2.110820e+001
1.659353e+003,1.679788e+001
1.660317e+003,1.262628e+001
1.661281e+003,1.211664e+001
1.662246e+003,1.426645e+001
1.663210e+003,1.559749e+001
1.664174e+003,1.500044e+001
1.665138e+003,1.367883e+001
1.666103e+003,1.235086e+001
1.667067e+003,1.126959e+001
1.668031e+003,1.129364e+001
1.668995e+003,1.233672e+001
1.669960e+003,1.255556e+001
1.670924e+003,1.160588e+001
1.671888e+003,1.088364e+001
1.672852e+003,1.062000e+001
1.673817e+003,1.084241e+001
1.674781e+003,1.232607e+001
1.675745e+003,1.369832e+001
1.676709e+003,1.311552e+001
1.677674e+003,1.106110e+001
1.678638e+003,9.354187e+000
1.679602e+003,8.570923e+000
1.680566e+003,7.924744e+000
1.681531e+003,6.522690e+000
1.682495e+003,5.451080e+000
1.683459e+003,6.999878e+000
1.684423e+003,1.055539e+001
1.685387e+003,1.257437e+001
1.686352e+003,1.265977e+001
1.687316e+003,1.222768e+001
1.688280e+003,1.146465e+001
1.689244e+003,1.077374e+001
1.690208e+003,1.061414e+001
1.691173e+003,1.050772e+001
1.692137e+003,9.836563e+000
1.693101e+003,8.900406e+000
1.694065e+003,8.576004e+000
1.695030e+003,9.004791e+000
1.695994e+003,8.928711e+000
1.696958e+003,7.233627e+000
1.697922e+003,5.195038e+000
1.698887e+003,4.341187e+000
1.699851e+003,4.478653e+000
1.700815e+003,5.103546e+000
1.701779e+003,6.086029e+000
1.702744e+003,6.727005e+000
1.703708e+003,6.985596e+000
1.704672e+003,6.669296e+000
1.705636e+003,4.878754e+000
1.706601e+003,2.864517e+000
1.707565e+003,2.948517e+000
1.708529e+003,4.593430e+000
1.709493e+003,5.888885e+000
1.710458e+003,6.570892e+000
1.711422e+003,7.172272e+000
1.712386e+003,8.747406e+000
1.713350e+003,9.516388e+000
1.714314e+003,6.975143e+000
1.715279e+003,3.083923e+000
1.716243e+003,1.297165e+000
1.717207e+003,1.528030e+000
1.718171e+003,1.818573e+000
1.719135e+003,1.650757e+000
1.720100e+003,1.650818e+000
1.721064e+003,2.282608e+000
1.722028e+003,2.940475e+000
1.722992e+003,2.768387e+000
1.723957e+003,2.070480e+000
1.724921e+003,1.922623e+000
1.725885e+003,2.230820e+000
1.726849e+003,2.293793e+000
1.727814e+003,1.704239e+000
1.728778e+003,1.701416e+000
1.729742e+003,3.599167e+000
1.730706e+003,5.531036e+000
1.731671e+003,4.936569e+000
1.732635e+003,2.980209e+000
1.733599e+003,3.089890e+000
1.734563e+003,5.478195e+000
1.735528e+003,6.680161e+000
1.736492e+003,4.815613e+000
1.737456e+003,1.613922e+000
1.738420e+003,-1.097916e+000
1.739385e+003,-3.083450e+000
1.740349e+003,-2.971069e+000
1.741313e+003,-6.193542e-002
1.742277e+003,1.842880e+000
1.743241e+003,2.102966e+000
1.744206e+003,2.630493e+000
1.745170e+003,4.247818e+000
1.746134e+003,5.376266e+000
1.747098e+003,4.745468e+000
1.748063e+003,3.435837e+000
1.749027e+003,2.727737e+000
1.749991e+003,2.574402e+000
1.750955e+003,2.136230e+000
1.751919e+003,1.197220e+000
1.752884e+003,5.995178e-001
1.753848e+003,1.058090e+000
1.754812e+003,1.849976e+000
1.755776e+003,1.558121e+000
1.756741e+003,3.269043e-001
1.757705e+003,-6.651306e-001
1.758669e+003,-1.833435e+000
1.759633e+003,-1.781052e+000
1.760598e+003,1.078796e+000
1.761562e+003,2.890564e+000
1.762526e+003,1.937759e+000
1.763490e+003,3.973541e-001
1.764455e+003,-4.836731e-001
1.765419e+003,-7.345276e-001
1.766383e+003,-5.497437e-001
1.767347e+003,-1.220093e-001
1.768312e+003,3.334045e-001
1.769276e+003,6.920471e-001
1.770240e+003,5.979767e-001
1.771204e+003,-3.797150e-001
1.772168e+003,-1.654129e+000
1.773133e+003,-2.308807e+000
1.774097e+003,-2.317795e+000
1.775061e+003,-1.143906e+000
1.776025e+003,1.345398e+000
1.776990e+003,3.648895e+000
1.777954e+003,5.852783e+000
1.778918e+003,6.868866e+000
1.779882e+003,5.020813e+000
1.780846e+003,2.000839e+000
1.781811e+003,-2.994690e-001
1.782775e+003,-1.650345e+000
1.783739e+003,-9.779053e-001
1.784703e+003,2.148788e+000
1.785668e+003,4.477402e+000
1.786632e+003,4.363373e+000
1.787596e+003,3.164719e+000
1.788560e+003,1.273331e+000
1.789525e+003,-3.623352e-001
1.790489e+003,-1.455383e-001
1.791453e+003,1.258270e+000
1.792417e+003,1.684784e+000
1.793382e+003,7.645569e-001
1.794346e+003,-1.342621e-001
1.795310e+003,-3.045654e-001
1.796274e+003,-2.794342e-001
1.797239e+003,-6.807861e-001
1.798203e+003,-1.009781e+000
1.799167e+003,5.732727e-002
1.800131e+003,2.741531e+000
1.801095e+003,3.613327e+000
1.802060e+003,1.576157e+000
1.803024e+003,1.320496e-001
1.803988e+003,-6.511993e-001
1.804952e+003,-6.246033e-001
1.805917e+003,1.434830e+000
1.806881e+003,3.354813e+000
1.807845e+003,2.400330e+000
1.808809e+003,-1.269379e-001
1.809773e+003,-1.371597e+000
1.810738e+003,-6.683350e-001
1.811702e+003,9.779205e-001
1.812666e+003,2.890594e+000
1.813630e+003,4.648376e+000
1.814595e+003,5.773407e+000
1.815559e+003,6.124008e+000
1.816523e+003,4.940094e+000
1.817487e+003,2.035858e+000
1.818452e+003,1.837921e-001
1.819416e+003,1.672363e-002
1.820380e+003,-3.129730e-001
1.821344e+003,-2.377945e+000
1.822309e+003,-3.419205e+000
1.823273e+003,-2.791290e-001
1.824237e+003,3.587357e+000
1.825201e+003,4.396072e+000
1.826166e+003,2.914932e+000
1.827130e+003,1.593323e+000
1.828094e+003,8.344879e-001
1.829058e+003,5.830383e-002
1.830022e+003,-1.131836e+000
1.830987e+003,-1.936356e+000
1.831951e+003,-1.118469e+000
1.832915e+003,7.473755e-002
1.833879e+003,-5.625000e-001
1.834844e+003,-2.370773e+000
1.835808e+003,-3.010223e+000
1.836772e+003,-2.205704e+000
1.837736e+003,-1.561279e+000
1.838700e+003,-1.845840e+000
1.839665e+003,-1.929276e+000
1.840629e+003,-5.331573e-001
1.841593e+003,1.224304e+000
1.842557e+003,6.634827e-001
1.843522e+003,-2.171326e+000
1.844486e+003,-3.357941e+000
1.845450e+003,-1.694107e+000
1.846414e+003,-3.630524e-001
1.847379e+003,4.936829e-001
1.848343e+003,8.145752e-001
1.849307e+003,-2.989197e-002
1.850271e+003,-6.441345e-001
1.851236e+003,5.395813e-001
1.852200e+003,2.331833e+000
1.853164e+003,2.788971e+000
1.854128e+003,1.934250e+000
1.855093e+003,1.276535e+000
1.856057e+003,1.413742e+000
1.857021e+003,1.134857e+000
1.857985e+003,-7.727966e-001
1.858949e+003,-3.090164e+000
1.859914e+003,-3.639786e+000
1.860878e+003,-2.635361e+000
1.861842e+003,-1.203461e+000
1.862806e+003,6.347046e-001
1.863771e+003,1.384628e+000
1.864735e+003,5.462646e-001
1.865699e+003,-5.782166e-001
1.866663e+003,-1.866943e+000
1.867627e+003,-2.165192e+000
1.868592e+003,5.107574e-001
1.869556e+003,4.018143e+000
1.870520e+003,4.191437e+000
1.871484e+003,1.535965e+000
1.872449e+003,-6.042328e-001
1.873413e+003,-1.715195e+000
1.874377e+003,-1.773849e+000
1.875341e+003,-1.788330e-001
1.876306e+003,1.129440e+000
1.877270e+003,5.388641e-001
1.878234e+003,-3.767700e-001
1.879198e+003,2.057037e-001
1.880163e+003,1.650330e+000
1.881127e+003,2.930923e+000
1.882091e+003,3.614319e+000
1.883055e+003,2.876160e+000
1.884020e+003,5.776520e-001
1.884984e+003,-1.480911e+000
1.885948e+003,-1.651871e+000
1.886912e+003,-6.209869e-001
1.887876e+003,3.218842e-001
1.888841e+003,1.194321e+000
1.889805e+003,2.062531e+000
1.890769e+003,3.014648e+000
1.891733e+003,3.389282e+000
1.892698e+003,2.537109e+000
1.893662e+003,2.369766e+000
1.894626e+003,4.631775e+000
1.895590e+003,6.399918e+000
1.896554e+003,5.076691e+000
1.897519e+003,2.710007e+000
1.898483e+003,1.549744e+000
1.899447e+003,1.307419e+000
1.900411e+003,9.812927e-001
1.901376e+003,4.511566e-001
1.902340e+003,-6.463623e-002
1.903304e+003,-8.203125e-001
1.904268e+003,-1.062210e+000
1.905233e+003,1.495361e-001
1.906197e+003,1.728363e+000
1.907161e+003,2.684677e+000
1.908125e+003,3.162445e+000
1.909090e+003,3.345215e+000
1.910054e+003,3.287186e+000
1.911018e+003,3.127945e+000
1.911982e+003,3.005402e+000
1.912947e+003,3.136597e+000
1.913911e+003,3.648148e+000
1.914875e+003,4.216492e+000
1.915839e+003,4.222229e+000
1.916803e+003,3.841705e+000
1.917768e+003,4.670776e+000
1.918732e+003,7.191193e+000
1.919696e+003,8.270569e+000
1.920660e+003,7.563797e+000
1.921625e+003,6.418304e+000
1.922589e+003,4.456512e+000
1.923553e+003,3.016052e+000
1.924517e+003,3.335144e+000
1.925481e+003,4.053864e+000
1.926446e+003,3.939743e+000
1.927410e+003,3.385391e+000
1.928374e+003,3.236938e+000
1.929338e+003,3.440323e+000
1.930303e+003,3.237534e+000
1.931267e+003,2.435516e+000
1.932231e+003,1.816299e+000
1.933195e+003,1.385254e+000
1.934160e+003,1.400757e+000
1.935124e+003,2.209335e+000
1.936088e+003,3.374603e+000
1.937052e+003,5.089172e+000
1.938017e+003,6.645935e+000
1.938981e+003,6.087891e+000
1.939945e+003,3.642685e+000
1.940909e+003,1.600449e+000
1.941874e+003,1.075943e+000
1.942838e+003,2.203278e+000
1.943802e+003,5.389374e+000
1.944766e+003,8.740005e+000
1.945730e+003,7.726944e+000
1.946695e+003,3.032181e+000
1.947659e+003,1.107788e+000
1.948623e+003,2.150177e+000
1.949587e+003,3.445557e+000
1.950552e+003,4.945511e+000
1.951516e+003,6.002121e+000
1.952480e+003,6.323608e+000
1.953444e+003,6.291016e+000
1.954408e+003,5.936005e+000
1.955373e+003,5.456635e+000
1.956337e+003,5.378784e+000
1.957301e+003,5.639099e+000
1.958265e+003,5.504639e+000
1.959230e+003,4.896698e+000
1.960194e+003,4.587891e+000
1.961158e+003,4.103363e+000
1.962122e+003,4.422974e+000
1.963087e+003,7.056671e+000
1.964051e+003,9.090088e+000
1.965015e+003,8.511826e+000
1.965979e+003,7.050705e+000
1.966944e+003,6.036011e+000
1.967908e+003,5.553802e+000
1.968872e+003,5.724823e+000
1.969836e+003,6.278702e+000
1.970801e+003,6.160126e+000
1.971765e+003,4.999680e+000
1.972729e+003,4.030426e+000
1.973693e+003,4.287994e+000
1.974657e+003,5.268356e+000
1.975622e+003,6.411606e+000
1.976586e+003,7.536331e+000
1.977550e+003,8.369751e+000
1.978514e+003,8.905457e+000
1.979479e+003,8.851105e+000
1.980443e+003,8.175446e+000
1.981407e+003,7.489502e+000
1.982371e+003,7.063995e+000
1.983335e+003,6.646545e+000
1.984300e+003,5.945160e+000
1.985264e+003,5.301254e+000
1.986228e+003,5.483353e+000
1.987192e+003,6.067139e+000
1.988157e+003,4.654312e+000
1.989121e+003,3.713226e-001
1.990085e+003,-9.863586e-001
1.991049e+003,2.934753e+000
1.992014e+003,5.141647e+000
1.992978e+003,3.074829e+000
1.993942e+003,1.430847e+000
1.994906e+003,1.945877e+000
1.995871e+003,3.301926e+000
1.996835e+003,5.059402e+000
1.997799e+003,6.806442e+000
1.998763e+003,7.999329e+000
1.999728e+003,8.570969e+000
