5.003444e+002,4.160411e+001
5.013087e+002,4.149632e+001
5.022729e+002,4.100458e+001
5.032371e+002,4.015128e+001
5.042014e+002,3.818352e+001
5.051656e+002,3.539702e+001
5.061298e+002,3.338397e+001
5.070941e+002,3.369946e+001
5.080583e+002,3.694078e+001
5.090225e+002,3.859627e+001
5.099868e+002,3.874594e+001
5.109510e+002,3.785980e+001
5.119152e+002,3.542513e+001
5.128795e+002,3.127170e+001
5.138437e+002,2.886343e+001
5.148079e+002,3.176414e+001
5.157722e+002,3.453539e+001
5.167364e+002,3.466263e+001
5.177006e+002,3.196548e+001
5.186649e+002,2.833202e+001
5.196291e+002,2.557884e+001
5.205933e+002,2.385315e+001
5.215576e+002,2.311499e+001
5.225218e+002,2.324779e+001
5.234860e+002,2.424779e+001
5.244503e+002,2.637274e+001
5.254145e+002,3.038486e+001
5.263787e+002,3.268129e+001
5.273430e+002,3.257196e+001
5.283072e+002,3.124423e+001
5.292714e+002,3.026466e+001
5.302357e+002,2.982277e+001
5.311999e+002,2.874036e+001
5.321641e+002,2.626447e+001
5.331284e+002,2.399278e+001
5.340926e+002,2.346016e+001
5.350568e+002,2.528519e+001
5.360211e+002,2.681747e+001
5.369853e+002,2.489461e+001
5.379495e+002,2.226634e+001
5.389138e+002,2.136716e+001
5.398780e+002,2.298380e+001
5.408422e+002,2.584776e+001
5.418065e+002,2.646915e+001
5.427707e+002,2.515680e+001
5.437349e+002,2.374657e+001
5.446992e+002,2.251060e+001
5.456634e+002,2.155786e+001
5.466276e+002,2.134366e+001
5.475919e+002,2.308290e+001
5.485561e+002,2.420372e+001
5.495203e+002,2.452628e+001
5.504846e+002,2.408878e+001
5.514488e+002,2.288332e+001
5.524130e+002,2.056682e+001
5.533773e+002,1.845633e+001
5.543415e+002,1.698923e+001
5.553057e+002,1.611888e+001
5.562700e+002,1.595163e+001
5.572342e+002,1.651953e+001
5.581984e+002,1.732428e+001
5.591627e+002,1.725041e+001
5.601269e+002,1.666519e+001
5.610911e+002,1.602942e+001
5.620554e+002,1.552586e+001
5.630196e+002,1.508656e+001
5.639838e+002,1.462494e+001
5.649481e+002,1.393237e+001
5.659123e+002,1.353017e+001
5.668765e+002,1.415456e+001
5.678408e+002,1.536951e+001
5.688050e+002,1.559985e+001
5.697692e+002,1.316039e+001
5.707335e+002,1.101196e+001
5.716977e+002,9.886032e+000
5.726619e+002,9.727417e+000
5.736262e+002,1.069081e+001
5.745904e+002,1.318291e+001
5.755546e+002,1.568762e+001
5.765189e+002,1.543694e+001
5.774831e+002,1.341663e+001
5.784473e+002,1.150249e+001
5.794116e+002,1.103188e+001
5.803758e+002,1.190538e+001
5.813400e+002,1.156734e+001
5.823043e+002,9.437592e+000
5.832685e+002,7.439621e+000
5.842327e+002,6.249054e+000
5.851970e+002,5.913803e+000
5.861612e+002,6.148544e+000
5.871254e+002,7.497849e+000
5.880897e+002,8.621750e+000
5.890539e+002,9.283554e+000
5.900181e+002,9.463913e+000
5.909824e+002,9.153336e+000
5.919466e+002,8.193390e+000
5.929108e+002,7.225189e+000
5.938751e+002,7.135971e+000
5.948393e+002,7.429443e+000
5.958035e+002,7.287491e+000
5.967678e+002,6.140945e+000
5.977320e+002,4.262848e+000
5.986962e+002,3.176147e+000
5.996605e+002,2.529816e+000
6.006247e+002,2.711655e+000
6.015889e+002,4.564270e+000
6.025532e+002,7.899353e+000
6.035174e+002,9.725800e+000
6.044816e+002,8.708481e+000
6.054459e+002,7.482742e+000
6.064101e+002,5.889664e+000
6.073743e+002,4.397476e+000
6.083386e+002,3.870377e+000
6.093028e+002,5.292923e+000
6.102670e+002,6.794846e+000
6.112313e+002,6.849411e+000
6.121955e+002,6.058914e+000
6.131597e+002,5.146805e+000
6.141240e+002,4.612885e+000
6.150882e+002,4.380844e+000
6.160524e+002,4.144440e+000
6.170167e+002,3.974350e+000
6.179809e+002,4.270477e+000
6.189451e+002,5.281006e+000
6.199094e+002,6.812103e+000
6.208736e+002,7.887070e+000
6.218378e+002,8.472275e+000
6.228021e+002,8.873062e+000
6.237663e+002,9.390930e+000
6.247305e+002,9.714645e+000
6.256948e+002,9.144638e+000
6.266590e+002,6.856583e+000
6.276232e+002,4.533554e+000
6.285875e+002,3.070084e+000
6.295517e+002,2.377625e+000
6.305159e+002,2.632904e+000
6.314802e+002,3.798477e+000
6.324444e+002,5.147141e+000
6.334086e+002,4.392822e+000
6.343729e+002,2.341812e+000
6.353371e+002,7.257385e-001
6.363013e+002,9.980774e-002
6.372656e+002,2.816620e-001
6.382298e+002,7.673645e-001
6.391940e+002,2.392792e+000
6.401583e+002,3.025391e+000
6.411225e+002,2.262085e+000
6.420867e+002,9.931793e-001
6.430510e+002,1.863251e-001
6.440152e+002,1.056824e-001
6.449794e+002,-1.020050e-001
6.459437e+002,-1.253464e+000
6.469079e+002,-2.432632e+000
6.478721e+002,-2.658813e+000
6.488364e+002,-1.690765e+000
6.498006e+002,-4.079437e-001
6.507648e+002,-6.241302e-001
6.517291e+002,-1.833191e+000
6.526933e+002,-2.834824e+000
6.536575e+002,-3.438980e+000
6.546218e+002,-3.507843e+000
6.555860e+002,-2.665039e+000
6.565502e+002,2.073517e-001
6.575145e+002,1.355759e+000
6.584787e+002,-3.234863e-002
6.594429e+002,-2.210052e+000
6.604072e+002,-4.165329e+000
6.613714e+002,-5.856461e+000
6.623356e+002,-6.396637e+000
6.632999e+002,-4.443985e+000
6.642641e+002,-2.231461e+000
6.652283e+002,-5.031433e-001
6.661926e+002,5.169678e-001
6.671568e+002,7.967834e-001
6.681210e+002,-1.025543e-001
6.690853e+002,-1.642914e+000
6.700495e+002,-2.152298e+000
6.710137e+002,-1.643539e+000
6.719780e+002,-8.407745e-001
6.729422e+002,-4.971466e-001
6.739064e+002,-6.837769e-001
6.748707e+002,-1.329758e+000
6.758349e+002,-3.216568e+000
6.767991e+002,-4.607056e+000
6.777634e+002,-4.305084e+000
6.787276e+002,-2.477631e+000
6.796918e+002,-1.028610e+000
6.806561e+002,-1.426239e+000
6.816203e+002,-1.729950e+000
6.825845e+002,-1.035400e+000
6.835488e+002,2.534180e-001
6.845130e+002,1.374512e+000
6.854772e+002,1.764664e+000
6.864415e+002,1.927048e+000
6.874057e+002,3.219925e+000
6.883699e+002,4.972229e+000
6.893342e+002,5.562805e+000
6.902984e+002,4.033432e+000
6.912626e+002,8.129883e-001
6.922269e+002,-1.429214e+000
6.931911e+002,-2.006531e+000
6.941553e+002,-2.102173e+000
6.951196e+002,-2.024475e+000
6.960838e+002,-1.669830e+000
6.970480e+002,-5.830994e-001
6.980123e+002,1.904953e+000
6.989765e+002,3.807053e+000
6.999407e+002,4.748230e+000
7.009050e+002,4.646805e+000
7.018692e+002,2.743835e+000
7.028334e+002,-8.729248e-001
7.037977e+002,-4.500748e+000
7.047619e+002,-5.071365e+000
7.057261e+002,-3.508240e+000
7.066904e+002,-1.590118e+000
7.076546e+002,3.914337e-001
7.086188e+002,2.029007e+000
7.095831e+002,2.543304e+000
7.105473e+002,1.066040e+000
7.115115e+002,1.105347e+000
7.124758e+002,4.852722e+000
7.134400e+002,7.602051e+000
7.144042e+002,5.568054e+000
7.153685e+002,-1.127808e+000
7.163327e+002,-6.279221e+000
7.172969e+002,-6.104218e+000
7.182612e+002,-4.450943e+000
7.192254e+002,-1.759308e+000
7.201896e+002,1.074249e+000
7.211539e+002,2.818649e+000
7.221181e+002,2.351578e+000
7.230823e+002,5.341644e-001
7.240466e+002,-2.968597e-001
7.250108e+002,-2.077026e-001
7.259750e+002,4.083557e-001
7.269393e+002,1.337830e+000
7.279035e+002,2.301483e+000
7.288677e+002,2.146515e+000
7.298320e+002,-7.345734e-001
7.307962e+002,-2.144928e+000
7.317604e+002,-8.316650e-001
7.327247e+002,1.751236e+000
7.336889e+002,3.523865e+000
7.346531e+002,3.674271e+000
7.356174e+002,3.087296e+000
7.365816e+002,1.968445e+000
7.375458e+002,1.125870e+000
7.385101e+002,1.445190e+000
7.394743e+002,2.954346e+000
7.404385e+002,4.737747e+000
7.414028e+002,5.504059e+000
7.423670e+002,4.882553e+000
7.433312e+002,2.731827e+000
7.442955e+002,-9.705200e-001
7.452597e+002,-4.295746e+000
7.462239e+002,-4.979996e+000
7.471882e+002,-2.267944e+000
7.481524e+002,-3.698120e-001
7.491166e+002,4.594421e-002
7.500809e+002,1.896210e-001
7.510451e+002,5.714874e-001
7.520093e+002,1.085541e+000
7.529736e+002,1.179123e+000
7.539378e+002,3.055267e-001
7.549020e+002,-2.110443e-001
7.558663e+002,8.587952e-001
7.568306e+002,2.580444e+000
7.577948e+002,3.531021e+000
7.587590e+002,2.854340e+000
7.597233e+002,1.146729e+000
7.606875e+002,4.622498e-001
7.616517e+002,7.749939e-001
7.626160e+002,1.281143e+000
7.635802e+002,1.845718e+000
7.645444e+002,2.504669e+000
7.655087e+002,3.394257e+000
7.664729e+002,4.985764e+000
7.674371e+002,5.559769e+000
7.684014e+002,4.140350e+000
7.693656e+002,2.639404e+000
7.703298e+002,2.592545e+000
7.712941e+002,4.037537e+000
7.722583e+002,5.132507e+000
7.732225e+002,3.932190e+000
7.741868e+002,2.393356e+000
7.751510e+002,2.257706e+000
7.761152e+002,3.151886e+000
7.770795e+002,3.769333e+000
7.780437e+002,2.925507e+000
7.790079e+002,9.033661e-001
7.799722e+002,7.752228e-001
7.809364e+002,2.640594e+000
7.819006e+002,4.299088e+000
7.828649e+002,5.033539e+000
7.838291e+002,5.077713e+000
7.847933e+002,4.921539e+000
7.857576e+002,4.008942e+000
7.867218e+002,3.496124e+000
7.876860e+002,4.074554e+000
7.886503e+002,4.976425e+000
7.896145e+002,5.804214e+000
7.905787e+002,6.360428e+000
7.915430e+002,6.174927e+000
7.925072e+002,3.487625e+000
7.934714e+002,3.283844e-001
7.944357e+002,-6.430969e-001
7.953999e+002,6.247406e-001
7.963641e+002,2.647278e+000
7.973284e+002,3.734863e+000
7.982926e+002,3.836563e+000
7.992568e+002,3.733887e+000
8.002211e+002,2.797714e+000
8.011853e+002,2.121475e+000
8.021495e+002,2.787964e+000
8.031138e+002,4.473679e+000
8.040780e+002,5.319336e+000
8.050422e+002,4.126266e+000
8.060065e+002,3.050171e+000
8.069707e+002,2.882980e+000
8.079349e+002,2.941498e+000
8.088992e+002,2.424835e+000
8.098634e+002,1.188461e+000
8.108276e+002,1.959839e-001
8.117919e+002,1.266037e+000
8.127561e+002,3.068375e+000
8.137203e+002,2.939072e+000
8.146846e+002,7.748566e-001
8.156488e+002,-1.267502e+000
8.166130e+002,-4.323273e-001
8.175773e+002,4.081711e+000
8.185415e+002,6.369278e+000
8.195057e+002,4.728775e+000
8.204700e+002,3.168228e+000
8.214342e+002,3.255997e+000
8.223984e+002,4.444580e+000
8.233627e+002,5.160782e+000
8.243269e+002,4.886871e+000
8.252911e+002,4.096100e+000
8.262554e+002,2.258560e+000
8.272196e+002,5.982666e-001
8.281838e+002,7.109833e-001
8.291481e+002,2.948227e+000
8.301123e+002,5.921310e+000
8.310765e+002,7.107239e+000
8.320408e+002,6.616043e+000
8.330050e+002,6.995392e+000
8.339692e+002,8.721695e+000
8.349335e+002,1.034207e+001
8.358977e+002,1.009140e+001
8.368619e+002,7.635834e+000
8.378262e+002,6.402481e+000
8.387904e+002,7.769592e+000
8.397546e+002,8.662399e+000
8.407189e+002,8.162430e+000
8.416831e+002,6.737396e+000
8.426473e+002,5.104034e+000
8.436116e+002,3.408203e+000
8.445758e+002,2.422836e+000
8.455400e+002,3.330673e+000
8.465043e+002,4.865204e+000
8.474685e+002,5.753204e+000
8.484327e+002,5.776840e+000
8.493970e+002,5.645538e+000
8.503612e+002,6.403931e+000
8.513254e+002,8.216141e+000
8.522897e+002,9.219482e+000
8.532539e+002,8.981522e+000
8.542181e+002,8.441498e+000
8.551824e+002,8.175552e+000
8.561466e+002,8.311615e+000
8.571108e+002,8.815353e+000
8.580751e+002,9.558289e+000
8.590393e+002,1.016621e+001
8.600035e+002,1.077069e+001
8.609678e+002,1.129794e+001
8.619320e+002,1.147821e+001
8.628962e+002,1.124060e+001
8.638605e+002,1.112509e+001
8.648247e+002,1.233325e+001
8.657889e+002,1.414606e+001
8.667532e+002,1.507561e+001
8.677174e+002,1.492427e+001
8.686816e+002,1.412260e+001
8.696459e+002,1.300787e+001
8.706101e+002,1.144154e+001
8.715743e+002,1.129843e+001
8.725386e+002,1.362909e+001
8.735028e+002,1.591669e+001
8.744670e+002,1.777182e+001
8.754313e+002,1.891994e+001
8.763955e+002,1.880461e+001
8.773597e+002,1.683899e+001
8.783240e+002,1.529073e+001
8.792882e+002,1.632162e+001
8.802524e+002,1.799977e+001
8.812167e+002,1.861604e+001
8.821809e+002,1.790872e+001
8.831451e+002,1.677046e+001
8.841094e+002,1.634377e+001
8.850736e+002,1.676549e+001
8.860378e+002,1.785248e+001
8.870021e+002,1.963295e+001
8.879663e+002,2.152676e+001
8.889305e+002,2.359007e+001
8.898948e+002,2.553572e+001
8.908590e+002,2.592992e+001
8.918232e+002,2.339413e+001
8.927875e+002,2.164127e+001
8.937517e+002,2.158322e+001
8.947159e+002,2.242174e+001
8.956802e+002,2.362935e+001
8.966444e+002,2.488829e+001
8.976086e+002,2.591748e+001
8.985729e+002,2.660185e+001
8.995371e+002,2.696574e+001
9.005013e+002,2.676437e+001
9.014656e+002,2.620013e+001
9.024298e+002,2.598209e+001
9.033940e+002,2.663097e+001
9.043583e+002,2.785208e+001
9.053225e+002,2.813406e+001
9.062867e+002,2.573947e+001
9.072510e+002,2.450256e+001
9.082152e+002,2.546420e+001
9.091794e+002,2.729160e+001
9.101437e+002,2.872249e+001
9.111079e+002,2.954497e+001
9.120721e+002,3.017053e+001
9.130364e+002,3.100226e+001
9.140006e+002,3.125212e+001
9.149648e+002,3.014783e+001
9.159291e+002,2.829657e+001
9.168933e+002,2.670476e+001
9.178575e+002,2.602502e+001
9.188218e+002,2.611023e+001
9.197860e+002,2.701180e+001
9.207502e+002,2.873407e+001
9.217145e+002,2.933339e+001
9.226787e+002,2.788002e+001
9.236429e+002,2.600047e+001
9.246072e+002,2.593060e+001
9.255714e+002,2.799333e+001
9.265356e+002,2.960904e+001
9.274999e+002,3.102484e+001
9.284641e+002,3.108861e+001
9.294283e+002,2.811530e+001
9.303926e+002,2.387770e+001
9.313568e+002,2.146411e+001
9.323210e+002,2.252367e+001
9.332853e+002,2.501151e+001
9.342495e+002,2.610768e+001
9.352137e+002,2.626762e+001
9.361780e+002,2.608118e+001
9.371422e+002,2.578763e+001
9.381064e+002,2.527042e+001
9.390707e+002,2.412483e+001
9.400349e+002,2.194174e+001
9.409991e+002,2.095576e+001
9.419634e+002,2.211177e+001
9.429276e+002,2.300908e+001
9.438918e+002,2.285237e+001
9.448561e+002,2.215572e+001
9.458203e+002,2.191696e+001
9.467845e+002,2.257181e+001
9.477488e+002,2.308893e+001
9.487130e+002,2.204477e+001
9.496772e+002,2.093422e+001
9.506415e+002,2.128008e+001
9.516057e+002,2.288362e+001
9.525699e+002,2.419249e+001
9.535342e+002,2.363556e+001
9.544984e+002,2.155147e+001
9.554626e+002,2.171068e+001
9.564269e+002,2.497986e+001
9.573911e+002,2.702896e+001
9.583553e+002,2.591766e+001
9.593196e+002,2.318289e+001
9.602838e+002,2.132634e+001
9.612480e+002,2.059042e+001
9.622123e+002,1.990811e+001
9.631765e+002,1.844119e+001
9.641407e+002,1.755756e+001
9.651050e+002,1.831052e+001
9.660692e+002,2.003868e+001
9.670334e+002,2.148946e+001
9.679977e+002,2.196860e+001
9.689619e+002,2.182275e+001
9.699261e+002,2.111542e+001
9.708904e+002,2.001886e+001
9.718546e+002,1.931143e+001
9.728188e+002,1.903873e+001
9.737831e+002,1.946602e+001
9.747473e+002,2.127742e+001
9.757115e+002,2.493753e+001
9.766758e+002,2.769629e+001
9.776400e+002,2.947737e+001
9.786042e+002,3.066824e+001
9.795685e+002,3.126790e+001
9.805327e+002,3.114627e+001
9.814969e+002,3.002820e+001
9.824612e+002,2.790178e+001
9.834254e+002,2.570360e+001
9.843896e+002,2.387349e+001
9.853539e+002,2.254698e+001
9.863181e+002,2.237094e+001
9.872823e+002,2.298685e+001
9.882466e+002,2.311554e+001
9.892108e+002,2.178285e+001
9.901750e+002,1.943210e+001
9.911393e+002,1.800519e+001
9.921035e+002,1.808833e+001
9.930677e+002,1.740411e+001
9.940320e+002,1.529681e+001
9.949962e+002,1.310191e+001
9.959604e+002,1.174727e+001
9.969247e+002,1.138533e+001
9.978889e+002,1.250648e+001
9.988531e+002,1.623355e+001
9.998174e+002,2.012219e+001
1.000782e+003,2.316150e+001
1.001746e+003,2.541940e+001
1.002710e+003,2.705339e+001
1.003674e+003,2.811673e+001
1.004639e+003,2.847490e+001
1.005603e+003,2.777583e+001
1.006567e+003,2.584650e+001
1.007531e+003,2.516838e+001
1.008495e+003,2.658069e+001
1.009460e+003,2.757530e+001
1.010424e+003,2.627443e+001
1.011388e+003,2.332874e+001
1.012352e+003,2.130252e+001
1.013317e+003,2.081427e+001
1.014281e+003,2.047389e+001
1.015245e+003,1.971895e+001
1.016209e+003,1.888429e+001
1.017174e+003,1.860222e+001
1.018138e+003,1.861327e+001
1.019102e+003,1.771706e+001
1.020066e+003,1.478824e+001
1.021031e+003,1.096950e+001
1.021995e+003,9.591980e+000
1.022959e+003,1.002132e+001
1.023923e+003,1.012575e+001
1.024887e+003,9.077438e+000
1.025852e+003,7.568192e+000
1.026816e+003,6.815384e+000
1.027780e+003,7.137253e+000
1.028744e+003,7.194214e+000
1.029709e+003,6.829193e+000
1.030673e+003,6.202011e+000
1.031637e+003,5.043259e+000
1.032601e+003,3.695145e+000
1.033566e+003,2.711929e+000
1.034530e+003,2.310455e+000
1.035494e+003,2.028320e+000
1.036458e+003,8.204041e-001
1.037422e+003,-3.022461e-001
1.038387e+003,8.245087e-001
1.039351e+003,3.957184e+000
1.040315e+003,6.829727e+000
1.041279e+003,7.809189e+000
1.042244e+003,7.255234e+000
1.043208e+003,6.667786e+000
1.044172e+003,6.241241e+000
1.045136e+003,5.108154e+000
1.046101e+003,2.074097e+000
1.047065e+003,-3.490601e-001
1.048029e+003,1.014557e-001
1.048993e+003,2.650070e+000
1.049958e+003,4.149048e+000
1.050922e+003,2.878784e+000
1.051886e+003,1.033737e+000
1.052850e+003,7.333069e-001
1.053814e+003,1.274612e+000
1.054779e+003,1.942856e+000
1.055743e+003,2.486404e+000
1.056707e+003,2.838913e+000
1.057671e+003,2.926880e+000
1.058636e+003,2.722778e+000
1.059600e+003,2.357147e+000
1.060564e+003,1.053772e+000
1.061528e+003,1.019196e+000
1.062493e+003,3.539627e+000
1.063457e+003,6.587830e+000
1.064421e+003,7.825226e+000
1.065385e+003,7.076645e+000
1.066349e+003,6.519806e+000
1.067314e+003,7.799194e+000
1.068278e+003,8.922272e+000
1.069242e+003,7.984985e+000
1.070206e+003,6.182816e+000
1.071171e+003,5.599121e+000
1.072135e+003,6.929001e+000
1.073099e+003,8.773651e+000
1.074063e+003,8.874130e+000
1.075028e+003,7.106369e+000
1.075992e+003,5.329102e+000
1.076956e+003,3.238510e+000
1.077920e+003,1.406693e+000
1.078885e+003,-8.125305e-002
1.079849e+003,-9.755554e-001
1.080813e+003,-6.002045e-001
1.081777e+003,1.472778e+000
1.082741e+003,3.048584e+000
1.083706e+003,1.953293e+000
1.084670e+003,7.141724e-001
1.085634e+003,8.493805e-001
1.086598e+003,1.919495e+000
1.087563e+003,2.909637e+000
1.088527e+003,3.292267e+000
1.089491e+003,3.359924e+000
1.090455e+003,3.474197e+000
1.091420e+003,3.539810e+000
1.092384e+003,3.821976e+000
1.093348e+003,4.524094e+000
1.094312e+003,4.895325e+000
1.095276e+003,4.304413e+000
1.096241e+003,3.203293e+000
1.097205e+003,2.829758e+000
1.098169e+003,3.510422e+000
1.099133e+003,4.090195e+000
1.100098e+003,4.087738e+000
1.101062e+003,4.013931e+000
1.102026e+003,4.306305e+000
1.102990e+003,4.801193e+000
1.103955e+003,4.747543e+000
1.104919e+003,3.705719e+000
1.105883e+003,2.783813e+000
1.106847e+003,5.016800e+000
1.107812e+003,1.034058e+001
1.108776e+003,1.194177e+001
1.109740e+003,8.112549e+000
1.110704e+003,3.516876e+000
1.111668e+003,1.363800e+000
1.112633e+003,1.341339e+000
1.113597e+003,1.859070e+000
1.114561e+003,2.836899e+000
1.115525e+003,4.000381e+000
1.116490e+003,5.695724e+000
1.117454e+003,7.084366e+000
1.118418e+003,7.655670e+000
1.119382e+003,7.579376e+000
1.120347e+003,7.126297e+000
1.121311e+003,6.370087e+000
1.122275e+003,5.552872e+000
1.123239e+003,5.515488e+000
1.124203e+003,6.397247e+000
1.125168e+003,7.637329e+000
1.126132e+003,9.331863e+000
1.127096e+003,1.114699e+001
1.128060e+003,1.300151e+001
1.129025e+003,1.471330e+001
1.129989e+003,1.553856e+001
1.130953e+003,1.507909e+001
1.131917e+003,1.434692e+001
1.132882e+003,1.318503e+001
1.133846e+003,1.239806e+001
1.134810e+003,1.264209e+001
1.135774e+003,1.367751e+001
1.136739e+003,1.480563e+001
1.137703e+003,1.562506e+001
1.138667e+003,1.649724e+001
1.139631e+003,1.824229e+001
1.140595e+003,2.068611e+001
1.141560e+003,2.226619e+001
1.142524e+003,2.246175e+001
1.143488e+003,2.377449e+001
1.144452e+003,2.889313e+001
1.145417e+003,3.647467e+001
1.146381e+003,4.083336e+001
1.147345e+003,3.902917e+001
1.148309e+003,4.165112e+001
1.149274e+003,5.598672e+001
1.150238e+003,7.035948e+001
1.151202e+003,7.839880e+001
1.152166e+003,8.218451e+001
1.153130e+003,8.670982e+001
1.154095e+003,9.412566e+001
1.155059e+003,1.018794e+002
1.156023e+003,1.069995e+002
1.156987e+003,1.090442e+002
1.157952e+003,1.066363e+002
1.158916e+003,9.935211e+001
1.159880e+003,9.160410e+001
1.160844e+003,8.531422e+001
1.161809e+003,7.979190e+001
1.162773e+003,7.387100e+001
1.163737e+003,6.740482e+001
1.164701e+003,6.122166e+001
1.165666e+003,5.597952e+001
1.166630e+003,5.076694e+001
1.167594e+003,4.464354e+001
1.168558e+003,3.856895e+001
1.169522e+003,3.379988e+001
1.170487e+003,3.073959e+001
1.171451e+003,2.909955e+001
1.172415e+003,2.874707e+001
1.173379e+003,2.922871e+001
1.174344e+003,2.793999e+001
1.175308e+003,2.473837e+001
1.176272e+003,2.278995e+001
1.177236e+003,2.431467e+001
1.178201e+003,2.674719e+001
1.179165e+003,2.656898e+001
1.180129e+003,2.366296e+001
1.181093e+003,2.067220e+001
1.182057e+003,1.747354e+001
1.183022e+003,1.543703e+001
1.183986e+003,1.570485e+001
1.184950e+003,1.676740e+001
1.185914e+003,1.721468e+001
1.186879e+003,1.694983e+001
1.187843e+003,1.683614e+001
1.188807e+003,1.755397e+001
1.189771e+003,1.866061e+001
1.190736e+003,1.889539e+001
1.191700e+003,1.812836e+001
1.192664e+003,1.768399e+001
1.193628e+003,1.788361e+001
1.194593e+003,1.830145e+001
1.195557e+003,1.910561e+001
1.196521e+003,1.987206e+001
1.197485e+003,1.883684e+001
1.198449e+003,1.500983e+001
1.199414e+003,1.177422e+001
1.200378e+003,1.095522e+001
1.201342e+003,1.096909e+001
1.202306e+003,1.097035e+001
1.203271e+003,1.094543e+001
1.204235e+003,1.151526e+001
1.205199e+003,1.285075e+001
1.206163e+003,1.375812e+001
1.207128e+003,1.202254e+001
1.208092e+003,7.452286e+000
1.209056e+003,5.016159e+000
1.210020e+003,5.736404e+000
1.210984e+003,6.151535e+000
1.211949e+003,5.140381e+000
1.212913e+003,3.332428e+000
1.213877e+003,1.326172e+000
1.214841e+003,-7.560120e-001
1.215806e+003,-2.148514e+000
1.216770e+003,-2.077591e+000
1.217734e+003,-2.062256e+000
1.218698e+003,-3.217972e+000
1.219663e+003,-5.058289e+000
1.220627e+003,-7.477295e+000
1.221591e+003,-1.004810e+001
1.222555e+003,-1.144138e+001
1.223520e+003,-1.034554e+001
1.224484e+003,-7.342346e+000
1.225448e+003,-5.413773e+000
1.226412e+003,-4.594803e+000
1.227376e+003,-5.153656e+000
1.228341e+003,-8.656250e+000
1.229305e+003,-1.180734e+001
1.230269e+003,-1.274800e+001
1.231233e+003,-1.209892e+001
1.232198e+003,-1.092584e+001
1.233162e+003,-9.384903e+000
1.234126e+003,-8.368088e+000
1.235090e+003,-8.941238e+000
1.236055e+003,-1.014397e+001
1.237019e+003,-1.101054e+001
1.237983e+003,-1.161128e+001
1.238947e+003,-1.215378e+001
1.239911e+003,-1.267270e+001
1.240876e+003,-1.302545e+001
1.241840e+003,-1.302203e+001
1.242804e+003,-1.262805e+001
1.243768e+003,-1.240495e+001
1.244733e+003,-1.369171e+001
1.245697e+003,-1.321390e+001
1.246661e+003,-8.267883e+000
1.247625e+003,-3.875214e+000
1.248590e+003,-4.668945e+000
1.249554e+003,-9.224350e+000
1.250518e+003,-1.251648e+001
1.251482e+003,-1.231892e+001
1.252447e+003,-1.073758e+001
1.253411e+003,-9.814835e+000
1.254375e+003,-9.352951e+000
1.255339e+003,-9.187958e+000
1.256303e+003,-9.222717e+000
1.257268e+003,-8.742096e+000
1.258232e+003,-7.174973e+000
1.259196e+003,-5.339905e+000
1.260160e+003,-4.864716e+000
1.261125e+003,-5.925827e+000
1.262089e+003,-6.660553e+000
1.263053e+003,-7.142624e+000
1.264017e+003,-7.115997e+000
1.264982e+003,-6.365448e+000
1.265946e+003,-5.126526e+000
1.266910e+003,-3.098785e+000
1.267874e+003,-7.641144e-001
1.268839e+003,6.237793e-001
1.269803e+003,2.344208e-001
1.270767e+003,-1.488525e+000
1.271731e+003,-4.118698e+000
1.272695e+003,-7.461441e+000
1.273660e+003,-8.844376e+000
1.274624e+003,-7.729263e+000
1.275588e+003,-6.378281e+000
1.276552e+003,-5.640381e+000
1.277517e+003,-5.423965e+000
1.278481e+003,-5.852203e+000
1.279445e+003,-7.030762e+000
1.280409e+003,-7.931824e+000
1.281374e+003,-8.099060e+000
1.282338e+003,-8.030548e+000
1.283302e+003,-7.753220e+000
1.284266e+003,-7.572495e+000
1.285230e+003,-7.929779e+000
1.286195e+003,-8.797501e+000
1.287159e+003,-9.790894e+000
1.288123e+003,-1.055298e+001
1.289087e+003,-1.082561e+001
1.290052e+003,-9.901047e+000
1.291016e+003,-6.920242e+000
1.291980e+003,-6.366364e+000
1.292944e+003,-1.067070e+001
1.293909e+003,-1.421980e+001
1.294873e+003,-1.423476e+001
1.295837e+003,-1.245293e+001
1.296801e+003,-1.121254e+001
1.297766e+003,-1.085774e+001
1.298730e+003,-1.064027e+001
1.299694e+003,-1.016727e+001
1.300658e+003,-9.871811e+000
1.301622e+003,-1.060954e+001
1.302587e+003,-1.159723e+001
1.303551e+003,-1.134822e+001
1.304515e+003,-9.696533e+000
1.305479e+003,-8.135544e+000
1.306444e+003,-7.948868e+000
1.307408e+003,-8.789459e+000
1.308372e+003,-9.395538e+000
1.309336e+003,-9.819214e+000
1.310301e+003,-9.851700e+000
1.311265e+003,-8.548141e+000
1.312229e+003,-7.903366e+000
1.313193e+003,-8.849747e+000
1.314157e+003,-1.056142e+001
1.315122e+003,-1.272365e+001
1.316086e+003,-1.482396e+001
1.317050e+003,-1.539848e+001
1.318014e+003,-1.329645e+001
1.318979e+003,-1.040718e+001
1.319943e+003,-1.060316e+001
1.320907e+003,-1.333377e+001
1.321871e+003,-1.381761e+001
1.322836e+003,-1.146181e+001
1.323800e+003,-8.806686e+000
1.324764e+003,-6.673935e+000
1.325728e+003,-5.297668e+000
1.326693e+003,-5.528641e+000
1.327657e+003,-7.477463e+000
1.328621e+003,-8.717972e+000
1.329585e+003,-8.123367e+000
1.330549e+003,-6.946899e+000
1.331514e+003,-5.636246e+000
1.332478e+003,-4.725174e+000
1.333442e+003,-4.822235e+000
1.334406e+003,-5.697754e+000
1.335371e+003,-6.598877e+000
1.336335e+003,-7.069763e+000
1.337299e+003,-7.328186e+000
1.338263e+003,-7.825760e+000
1.339228e+003,-8.585892e+000
1.340192e+003,-9.337875e+000
1.341156e+003,-1.063319e+001
1.342120e+003,-1.113762e+001
1.343084e+003,-1.025272e+001
1.344049e+003,-9.054199e+000
1.345013e+003,-7.927094e+000
1.345977e+003,-7.142548e+000
1.346941e+003,-7.717209e+000
1.347906e+003,-1.014816e+001
1.348870e+003,-1.197258e+001
1.349834e+003,-1.015048e+001
1.350798e+003,-6.920563e+000
1.351763e+003,-6.922974e+000
1.352727e+003,-9.528473e+000
1.353691e+003,-1.093239e+001
1.354655e+003,-9.482452e+000
1.355620e+003,-7.333893e+000
1.356584e+003,-7.240295e+000
1.357548e+003,-8.860962e+000
1.358512e+003,-9.340332e+000
1.359476e+003,-8.270218e+000
1.360441e+003,-7.245789e+000
1.361405e+003,-6.112854e+000
1.362369e+003,-5.599335e+000
1.363333e+003,-6.667267e+000
1.364298e+003,-8.289352e+000
1.365262e+003,-8.947617e+000
1.366226e+003,-8.378525e+000
1.367190e+003,-7.686340e+000
1.368155e+003,-7.879745e+000
1.369119e+003,-8.346054e+000
1.370083e+003,-6.954010e+000
1.371047e+003,-2.603714e+000
1.372011e+003,-1.163208e+000
1.372976e+003,-5.405151e+000
1.373940e+003,-8.977661e+000
1.374904e+003,-8.670700e+000
1.375868e+003,-6.909561e+000
1.376833e+003,-6.999512e+000
1.377797e+003,-8.988953e+000
1.378761e+003,-1.042270e+001
1.379725e+003,-1.015462e+001
1.380690e+003,-9.318359e+000
1.381654e+003,-9.155289e+000
1.382618e+003,-9.052032e+000
1.383582e+003,-8.082260e+000
1.384547e+003,-6.280731e+000
1.385511e+003,-4.175507e+000
1.386475e+003,-1.874863e+000
1.387439e+003,-1.239471e-001
1.388403e+003,-1.141205e-001
1.389368e+003,-1.853516e+000
1.390332e+003,-4.425507e+000
1.391296e+003,-9.122894e+000
1.392260e+003,-1.177734e+001
1.393225e+003,-1.052040e+001
1.394189e+003,-8.310059e+000
1.395153e+003,-6.346191e+000
1.396117e+003,-4.735184e+000
1.397082e+003,-3.148605e+000
1.398046e+003,-1.613708e+000
1.399010e+003,-7.224426e-001
1.399974e+003,-1.093765e+000
1.400938e+003,-2.630585e+000
1.401903e+003,-4.842636e+000
1.402867e+003,-8.003387e+000
1.403831e+003,-9.007690e+000
1.404795e+003,-5.989029e+000
1.405760e+003,-3.690231e+000
1.406724e+003,-4.641098e+000
1.407688e+003,-6.868820e+000
1.408652e+003,-7.737823e+000
1.409617e+003,-7.214355e+000
1.410581e+003,-7.221054e+000
1.411545e+003,-8.655243e+000
1.412509e+003,-1.005832e+001
1.413474e+003,-1.015541e+001
1.414438e+003,-9.359818e+000
1.415402e+003,-7.923111e+000
1.416366e+003,-5.933228e+000
1.417330e+003,-4.222778e+000
1.418295e+003,-3.084671e+000
1.419259e+003,-2.442429e+000
1.420223e+003,-2.313690e+000
1.421187e+003,-2.732834e+000
1.422152e+003,-3.692520e+000
1.423116e+003,-5.526810e+000
1.424080e+003,-6.392487e+000
1.425044e+003,-4.856689e+000
1.426009e+003,-3.444290e+000
1.426973e+003,-3.523010e+000
1.427937e+003,-4.115143e+000
1.428901e+003,-3.775528e+000
1.429865e+003,-2.532852e+000
1.430830e+003,-1.751526e+000
1.431794e+003,-2.360367e+000
1.432758e+003,-3.505386e+000
1.433722e+003,-3.292953e+000
1.434687e+003,-1.389099e+000
1.435651e+003,-4.838867e-001
1.436615e+003,-2.299103e+000
1.437579e+003,-3.238876e+000
1.438544e+003,-2.250290e+000
1.439508e+003,-9.631653e-001
1.440472e+003,-4.497528e-001
1.441436e+003,-3.150482e-001
1.442401e+003,2.815857e-001
1.443365e+003,1.489731e+000
1.444329e+003,2.841476e+000
1.445293e+003,4.152756e+000
1.446257e+003,5.093613e+000
1.447222e+003,4.728806e+000
1.448186e+003,3.283371e+000
1.449150e+003,1.976990e+000
1.450114e+003,7.813416e-001
1.451079e+003,9.774780e-002
1.452043e+003,4.776611e-001
1.453007e+003,1.385986e+000
1.453971e+003,2.267136e+000
1.454936e+003,2.970016e+000
1.455900e+003,2.651413e+000
1.456864e+003,8.161469e-001
1.457828e+003,-7.207184e-001
1.458792e+003,-7.581177e-001
1.459757e+003,-3.261566e-001
1.460721e+003,-2.814941e-001
1.461685e+003,-4.073029e-001
1.462649e+003,1.199188e-001
1.463614e+003,1.420547e+000
1.464578e+003,2.086731e+000
1.465542e+003,6.200867e-001
1.466506e+003,-2.038330e+000
1.467471e+003,-2.785660e+000
1.468435e+003,-9.467773e-001
1.469399e+003,-4.069519e-002
1.470363e+003,-1.868393e+000
1.471328e+003,-2.539001e+000
1.472292e+003,-1.950684e-001
1.473256e+003,2.391037e+000
1.474220e+003,3.482635e+000
1.475184e+003,3.396210e+000
1.476149e+003,2.827896e+000
1.477113e+003,2.116104e+000
1.478077e+003,1.597961e+000
1.479041e+003,1.689697e+000
1.480006e+003,2.358231e+000
1.480970e+003,3.313736e+000
1.481934e+003,4.627670e+000
1.482898e+003,5.403839e+000
1.483863e+003,5.596741e+000
1.484827e+003,5.335037e+000
1.485791e+003,3.936005e+000
1.486755e+003,2.888123e+000
1.487719e+003,3.719803e+000
1.488684e+003,5.927032e+000
1.489648e+003,8.270538e+000
1.490612e+003,1.035478e+001
1.491576e+003,1.156720e+001
1.492541e+003,1.101953e+001
1.493505e+003,9.823547e+000
1.494469e+003,1.086069e+001
1.495433e+003,1.355385e+001
1.496398e+003,1.484148e+001
1.497362e+003,1.395114e+001
1.498326e+003,1.357588e+001
1.499290e+003,1.513196e+001
1.500255e+003,1.792953e+001
1.501219e+003,2.135709e+001
1.502183e+003,2.519843e+001
1.503147e+003,2.873637e+001
1.504111e+003,3.192267e+001
1.505076e+003,3.411230e+001
1.506040e+003,3.345728e+001
1.507004e+003,3.331035e+001
1.507968e+003,3.717940e+001
1.508933e+003,4.386044e+001
1.509897e+003,5.123242e+001
1.510861e+003,5.893854e+001
1.511825e+003,6.648389e+001
1.512790e+003,7.325041e+001
1.513754e+003,7.979578e+001
1.514718e+003,8.752637e+001
1.515682e+003,9.632442e+001
1.516646e+003,1.046857e+002
1.517611e+003,1.130239e+002
1.518575e+003,1.199758e+002
1.519539e+003,1.247085e+002
1.520503e+003,1.286001e+002
1.521468e+003,1.326860e+002
1.522432e+003,1.360774e+002
1.523396e+003,1.375933e+002
1.524360e+003,1.370324e+002
1.525325e+003,1.348250e+002
1.526289e+003,1.312908e+002
1.527253e+003,1.267404e+002
1.528217e+003,1.216997e+002
1.529182e+003,1.162715e+002
1.530146e+003,1.094537e+002
1.531110e+003,1.003582e+002
1.532074e+003,9.126602e+001
1.533039e+003,8.224466e+001
1.534003e+003,7.291310e+001
1.534967e+003,6.268381e+001
1.535931e+003,5.278784e+001
1.536896e+003,4.445425e+001
1.537860e+003,3.780658e+001
1.538824e+003,3.246074e+001
1.539788e+003,2.809178e+001
1.540752e+003,2.408615e+001
1.541717e+003,1.962079e+001
1.542681e+003,1.504456e+001
1.543645e+003,1.213246e+001
1.544609e+003,1.162274e+001
1.545573e+003,1.133510e+001
1.546538e+003,1.125558e+001
1.547502e+003,1.109795e+001
1.548466e+003,1.112296e+001
1.549430e+003,1.100656e+001
1.550395e+003,9.794754e+000
1.551359e+003,8.065552e+000
1.552323e+003,7.942688e+000
1.553287e+003,1.004253e+001
1.554252e+003,1.195045e+001
1.555216e+003,1.147395e+001
1.556180e+003,9.537964e+000
1.557144e+003,8.237671e+000
1.558109e+003,7.647552e+000
1.559073e+003,6.992325e+000
1.560037e+003,5.978180e+000
1.561001e+003,5.144943e+000
1.561966e+003,4.966248e+000
1.562930e+003,5.052567e+000
1.563894e+003,4.928482e+000
1.564858e+003,4.670670e+000
1.565823e+003,4.662857e+000
1.566787e+003,4.940292e+000
1.567751e+003,4.949554e+000
1.568715e+003,4.272324e+000
1.569679e+003,3.683289e+000
1.570644e+003,4.390656e+000
1.571608e+003,5.764084e+000
1.572572e+003,6.156143e+000
1.573536e+003,5.574051e+000
1.574500e+003,4.803268e+000
1.575465e+003,3.580444e+000
1.576429e+003,2.971619e+000
1.577393e+003,4.420776e+000
1.578357e+003,6.774261e+000
1.579322e+003,7.589111e+000
1.580286e+003,6.887070e+000
1.581250e+003,6.974625e+000
1.582214e+003,8.759369e+000
1.583179e+003,1.071153e+001
1.584143e+003,1.211676e+001
1.585107e+003,1.255865e+001
1.586071e+003,1.112776e+001
1.587036e+003,8.636353e+000
1.588000e+003,7.200912e+000
1.588964e+003,7.190567e+000
1.589928e+003,8.167572e+000
1.590893e+003,1.075839e+001
1.591857e+003,1.333429e+001
1.592821e+003,1.283713e+001
1.593785e+003,9.942673e+000
1.594750e+003,8.613602e+000
1.595714e+003,9.492813e+000
1.596678e+003,1.055406e+001
1.597642e+003,1.124297e+001
1.598606e+003,1.151746e+001
1.599571e+003,1.068546e+001
1.600535e+003,9.899002e+000
1.601499e+003,1.116159e+001
1.602463e+003,1.405235e+001
1.603427e+003,1.589967e+001
1.604392e+003,1.555452e+001
1.605356e+003,1.456805e+001
1.606320e+003,1.469865e+001
1.607284e+003,1.535904e+001
1.608249e+003,1.434004e+001
1.609213e+003,1.153320e+001
1.610177e+003,1.094571e+001
1.611141e+003,1.432309e+001
1.612106e+003,1.724388e+001
1.613070e+003,1.742093e+001
1.614034e+003,1.643248e+001
1.614998e+003,1.463611e+001
1.615963e+003,1.277013e+001
1.616927e+003,1.198523e+001
1.617891e+003,1.238286e+001
1.618855e+003,1.337971e+001
1.619820e+003,1.473932e+001
1.620784e+003,1.566235e+001
1.621748e+003,1.471954e+001
1.622712e+003,1.250072e+001
1.623677e+003,1.205688e+001
1.624641e+003,1.383218e+001
1.625605e+003,1.493483e+001
1.626569e+003,1.416599e+001
1.627533e+003,1.308173e+001
1.628498e+003,1.196605e+001
1.629462e+003,1.151071e+001
1.630426e+003,1.262488e+001
1.631390e+003,1.474289e+001
1.632354e+003,1.692978e+001
1.633319e+003,1.879659e+001
1.634283e+003,1.960381e+001
1.635247e+003,1.863945e+001
1.636211e+003,1.675923e+001
1.637176e+003,1.559093e+001
1.638140e+003,1.511530e+001
1.639104e+003,1.407785e+001
1.640068e+003,1.203403e+001
1.641033e+003,1.083092e+001
1.641997e+003,1.149022e+001
1.642961e+003,1.239333e+001
1.643925e+003,1.291589e+001
1.644890e+003,1.311044e+001
1.645854e+003,1.279137e+001
1.646818e+003,1.220058e+001
1.647782e+003,1.183789e+001
1.648747e+003,1.187923e+001
1.649711e+003,1.249542e+001
1.650675e+003,1.408513e+001
1.651639e+003,1.597847e+001
1.652604e+003,1.649467e+001
1.653568e+003,1.563962e+001
1.654532e+003,1.514545e+001
1.655496e+003,1.519376e+001
1.656460e+003,1.529030e+001
1.657425e+003,1.567343e+001
1.658389e+003,1.563736e+001
1.659353e+003,1.429698e+001
1.660317e+003,1.274132e+001
1.661281e+003,1.246201e+001
1.662246e+003,1.295920e+001
1.663210e+003,1.234854e+001
1.664174e+003,1.010326e+001
1.665138e+003,8.062790e+000
1.666103e+003,7.732025e+000
1.667067e+003,8.529846e+000
1.668031e+003,9.743973e+000
1.668995e+003,1.128867e+001
1.669960e+003,1.143564e+001
1.670924e+003,9.754242e+000
1.671888e+003,8.072998e+000
1.672852e+003,6.677658e+000
1.673817e+003,5.696350e+000
1.674781e+003,5.338303e+000
1.675745e+003,5.288620e+000
1.676709e+003,4.844666e+000
1.677674e+003,4.408005e+000
1.678638e+003,5.767960e+000
1.679602e+003,9.435959e+000
1.680566e+003,1.212112e+001
1.681531e+003,1.082582e+001
1.682495e+003,7.788849e+000
1.683459e+003,6.655914e+000
1.684423e+003,7.113541e+000
1.685387e+003,7.653290e+000
1.686352e+003,8.244919e+000
1.687316e+003,8.366882e+000
1.688280e+003,7.629379e+000
1.689244e+003,6.796356e+000
1.690208e+003,6.113098e+000
1.691173e+003,5.810669e+000
1.692137e+003,6.571136e+000
1.693101e+003,8.054840e+000
1.694065e+003,8.935745e+000
1.695030e+003,8.794388e+000
1.695994e+003,8.265366e+000
1.696958e+003,7.783142e+000
1.697922e+003,7.166946e+000
1.698887e+003,5.929337e+000
1.699851e+003,4.431290e+000
1.700815e+003,3.828461e+000
1.701779e+003,4.151871e+000
1.702744e+003,4.256119e+000
1.703708e+003,3.843491e+000
1.704672e+003,3.366379e+000
1.705636e+003,3.061203e+000
1.706601e+003,2.688126e+000
1.707565e+003,1.775284e+000
1.708529e+003,7.041931e-001
1.709493e+003,7.165680e-001
1.710458e+003,2.102066e+000
1.711422e+003,3.000275e+000
1.712386e+003,2.342453e+000
1.713350e+003,1.455902e+000
1.714314e+003,1.314178e+000
1.715279e+003,1.507980e+000
1.716243e+003,1.439056e+000
1.717207e+003,1.129166e+000
1.718171e+003,8.819733e-001
1.719135e+003,8.020020e-001
1.720100e+003,8.470306e-001
1.721064e+003,9.447327e-001
1.722028e+003,1.141937e+000
1.722992e+003,1.640121e+000
1.723957e+003,2.468842e+000
1.724921e+003,3.286148e+000
1.725885e+003,4.033722e+000
1.726849e+003,4.157074e+000
1.727814e+003,3.235413e+000
1.728778e+003,2.487335e+000
1.729742e+003,2.539505e+000
1.730706e+003,2.832169e+000
1.731671e+003,2.917297e+000
1.732635e+003,2.590210e+000
1.733599e+003,1.577820e+000
1.734563e+003,8.572388e-002
1.735528e+003,-1.107285e+000
1.736492e+003,-1.639099e+000
1.737456e+003,-1.790573e+000
1.738420e+003,-1.909912e+000
1.739385e+003,-1.926010e+000
1.740349e+003,-1.241241e+000
1.741313e+003,4.682922e-001
1.742277e+003,1.578873e+000
1.743241e+003,2.448944e+000
1.744206e+003,2.384857e+000
1.745170e+003,1.539612e-002
1.746134e+003,-1.933487e+000
1.747098e+003,-1.717728e+000
1.748063e+003,-4.761810e-001
1.749027e+003,6.777954e-001
1.749991e+003,1.518982e+000
1.750955e+003,2.197418e+000
1.751919e+003,2.689819e+000
1.752884e+003,2.593887e+000
1.753848e+003,1.564636e+000
1.754812e+003,3.378296e-002
1.755776e+003,-1.082458e+000
1.756741e+003,-1.710175e+000
1.757705e+003,-2.083771e+000
1.758669e+003,-2.172485e+000
1.759633e+003,-2.326157e+000
1.760598e+003,-2.878510e+000
1.761562e+003,-3.196487e+000
1.762526e+003,-3.143707e+000
1.763490e+003,-2.590729e+000
1.764455e+003,-7.076874e-001
1.765419e+003,1.386627e+000
1.766383e+003,1.695511e+000
1.767347e+003,2.635956e-001
1.768312e+003,-1.069656e+000
1.769276e+003,-1.467041e+000
1.770240e+003,-1.572632e+000
1.771204e+003,-1.966049e+000
1.772168e+003,-2.354279e+000
1.773133e+003,-2.209869e+000
1.774097e+003,-1.588821e+000
1.775061e+003,-9.378204e-001
1.776025e+003,-3.278961e-001
1.776990e+003,-3.139343e-001
1.777954e+003,-1.465179e+000
1.778918e+003,-2.034607e+000
1.779882e+003,2.985229e-001
1.780846e+003,2.876633e+000
1.781811e+003,1.349289e+000
1.782775e+003,-2.787018e+000
1.783739e+003,-4.379913e+000
1.784703e+003,-2.468201e+000
1.785668e+003,-5.661316e-001
1.786632e+003,-5.950928e-003
1.787596e+003,-2.645569e-001
1.788560e+003,-1.496033e+000
1.789525e+003,-2.691864e+000
1.790489e+003,-2.306580e+000
1.791453e+003,-8.100891e-001
1.792417e+003,5.739441e-001
1.793382e+003,1.427628e+000
1.794346e+003,5.865479e-001
1.795310e+003,-2.753098e+000
1.796274e+003,-5.883926e+000
1.797239e+003,-5.484955e+000
1.798203e+003,-2.646683e+000
1.799167e+003,-1.212433e+000
1.800131e+003,-1.639847e+000
1.801095e+003,-1.674240e+000
1.802060e+003,-8.208771e-001
1.803024e+003,-4.647827e-002
1.803988e+003,5.876617e-001
1.804952e+003,9.559021e-001
1.805917e+003,7.986298e-001
1.806881e+003,5.104980e-001
1.807845e+003,6.877441e-001
1.808809e+003,1.042572e+000
1.809773e+003,6.743469e-001
1.810738e+003,-4.116821e-001
1.811702e+003,-1.042511e+000
1.812666e+003,-5.074921e-001
1.813630e+003,4.469452e-001
1.814595e+003,8.836517e-001
1.815559e+003,7.911072e-001
1.816523e+003,6.257629e-002
1.817487e+003,-1.384857e+000
1.818452e+003,-2.214325e+000
1.819416e+003,-2.145996e+000
1.820380e+003,-1.816299e+000
1.821344e+003,-1.157013e+000
1.822309e+003,-8.067780e-001
1.823273e+003,-1.470352e+000
1.824237e+003,-2.219299e+000
1.825201e+003,-1.938995e+000
1.826166e+003,-1.069305e+000
1.827130e+003,-8.609467e-001
1.828094e+003,-1.548233e+000
1.829058e+003,-2.270081e+000
1.830022e+003,-2.510223e+000
1.830987e+003,-2.740356e+000
1.831951e+003,-3.638748e+000
1.832915e+003,-4.552277e+000
1.833879e+003,-4.564651e+000
1.834844e+003,-3.766098e+000
1.835808e+003,-2.232651e+000
1.836772e+003,-1.556244e-001
1.837736e+003,1.096558e+000
1.838700e+003,8.617096e-001
1.839665e+003,8.184814e-002
1.840629e+003,-4.353943e-001
1.841593e+003,-6.024323e-001
1.842557e+003,-1.693726e-001
1.843522e+003,8.388367e-001
1.844486e+003,8.180695e-001
1.845450e+003,-1.128922e+000
1.846414e+003,-2.139313e+000
1.847379e+003,-1.870987e+000
1.848343e+003,-1.437637e+000
1.849307e+003,-1.073486e+000
1.850271e+003,-6.426392e-001
1.851236e+003,3.533325e-001
1.852200e+003,1.330109e+000
1.853164e+003,1.092697e+000
1.854128e+003,-9.429932e-002
1.855093e+003,-7.570496e-001
1.856057e+003,-2.874146e-001
1.857021e+003,6.495972e-001
1.857985e+003,1.559540e+000
1.858949e+003,2.029160e+000
1.859914e+003,6.297150e-001
1.860878e+003,-1.905762e+000
1.861842e+003,-6.948395e-001
1.862806e+003,4.394455e+000
1.863771e+003,6.081131e+000
1.864735e+003,2.255890e+000
1.865699e+003,-9.736633e-001
1.866663e+003,-7.693176e-001
1.867627e+003,6.453552e-001
1.868592e+003,1.701370e+000
1.869556e+003,2.250809e+000
1.870520e+003,2.207306e+000
1.871484e+003,1.578094e+000
1.872449e+003,2.074127e-001
1.873413e+003,-2.254669e+000
1.874377e+003,-3.169846e+000
1.875341e+003,-1.261322e+000
1.876306e+003,1.247391e+000
1.877270e+003,3.950409e+000
1.878234e+003,5.933136e+000
1.879198e+003,5.999817e+000
1.880163e+003,4.874298e+000
1.881127e+003,3.796509e+000
1.882091e+003,3.028702e+000
1.883055e+003,2.346252e+000
1.884020e+003,1.629700e+000
1.884984e+003,8.100281e-001
1.885948e+003,-2.086792e-001
1.886912e+003,-8.614197e-001
1.887876e+003,1.846924e-001
1.888841e+003,2.737305e+000
1.889805e+003,4.158417e+000
1.890769e+003,4.197754e+000
1.891733e+003,4.507431e+000
1.892698e+003,5.458496e+000
1.893662e+003,5.976181e+000
1.894626e+003,5.745270e+000
1.895590e+003,4.976532e+000
1.896554e+003,2.585724e+000
1.897519e+003,6.955261e-001
1.898483e+003,3.080338e+000
1.899447e+003,8.050766e+000
1.900411e+003,9.578903e+000
1.901376e+003,6.530060e+000
1.902340e+003,3.624298e+000
1.903304e+003,2.544449e+000
1.904268e+003,2.124359e+000
1.905233e+003,1.751297e+000
1.906197e+003,1.667923e+000
1.907161e+003,2.259323e+000
1.908125e+003,3.293106e+000
1.909090e+003,4.542221e+000
1.910054e+003,5.668411e+000
1.911018e+003,5.855179e+000
1.911982e+003,4.981277e+000
1.912947e+003,3.978241e+000
1.913911e+003,3.500259e+000
1.914875e+003,3.384323e+000
1.915839e+003,3.333252e+000
1.916803e+003,3.359100e+000
1.917768e+003,4.075134e+000
1.918732e+003,5.843384e+000
1.919696e+003,6.199753e+000
1.920660e+003,4.389343e+000
1.921625e+003,3.426239e+000
1.922589e+003,4.435837e+000
1.923553e+003,5.488983e+000
1.924517e+003,5.583466e+000
1.925481e+003,5.299530e+000
1.926446e+003,5.094299e+000
1.927410e+003,4.908905e+000
1.928374e+003,4.388626e+000
1.929338e+003,3.551147e+000
1.930303e+003,3.511642e+000
1.931267e+003,5.155365e+000
1.932231e+003,6.109665e+000
1.933195e+003,4.184982e+000
1.934160e+003,2.331833e+000
1.935124e+003,3.190735e+000
1.936088e+003,4.885910e+000
1.937052e+003,5.063248e+000
1.938017e+003,4.291214e+000
1.938981e+003,4.513062e+000
1.939945e+003,5.637863e+000
1.940909e+003,5.284760e+000
1.941874e+003,2.554993e+000
1.942838e+003,1.077271e-002
1.943802e+003,1.091309e-001
1.944766e+003,1.981888e+000
1.945730e+003,3.930298e+000
1.946695e+003,5.802383e+000
1.947659e+003,6.776855e+000
1.948623e+003,6.778366e+000
1.949587e+003,6.342834e+000
1.950552e+003,5.256027e+000
1.951516e+003,5.186020e+000
1.952480e+003,7.447922e+000
1.953444e+003,9.161331e+000
1.954408e+003,7.600800e+000
1.955373e+003,4.990326e+000
1.956337e+003,4.656189e+000
1.957301e+003,6.073700e+000
1.958265e+003,7.169250e+000
1.959230e+003,7.929672e+000
1.960194e+003,8.179581e+000
1.961158e+003,7.003082e+000
1.962122e+003,6.374557e+000
1.963087e+003,7.449554e+000
1.964051e+003,8.458420e+000
1.965015e+003,8.563736e+000
1.965979e+003,8.128235e+000
1.966944e+003,6.911652e+000
1.967908e+003,5.622238e+000
1.968872e+003,5.814636e+000
1.969836e+003,7.270111e+000
1.970801e+003,7.972763e+000
1.971765e+003,7.122101e+000
1.972729e+003,6.167252e+000
1.973693e+003,6.431107e+000
1.974657e+003,6.932556e+000
1.975622e+003,5.696976e+000
1.976586e+003,3.656860e+000
1.977550e+003,3.860123e+000
1.978514e+003,5.872833e+000
1.979479e+003,6.441864e+000
1.980443e+003,5.191956e+000
1.981407e+003,4.970337e+000
1.982371e+003,6.936554e+000
1.983335e+003,8.818237e+000
1.984300e+003,8.833420e+000
1.985264e+003,7.900818e+000
1.986228e+003,7.489548e+000
1.987192e+003,7.413498e+000
1.988157e+003,6.649612e+000
1.989121e+003,4.907288e+000
1.990085e+003,4.191269e+000
1.991049e+003,4.903671e+000
1.992014e+003,5.935120e+000
1.992978e+003,7.481995e+000
1.993942e+003,8.785980e+000
1.994906e+003,9.826050e+000
1.995871e+003,1.030695e+001
1.996835e+003,9.535675e+000
1.997799e+003,8.404190e+000
1.998763e+003,8.495209e+000
1.999728e+003,9.399460e+000
