5.003444e+002,3.626904e+001
5.013087e+002,3.656705e+001
5.022729e+002,3.351212e+001
5.032371e+002,2.855420e+001
5.042014e+002,2.570352e+001
5.051656e+002,2.476956e+001
5.061298e+002,2.497714e+001
5.070941e+002,2.568814e+001
5.080583e+002,2.695755e+001
5.090225e+002,2.758997e+001
5.099868e+002,2.777716e+001
5.109510e+002,2.738339e+001
5.119152e+002,2.579813e+001
5.128795e+002,2.288589e+001
5.138437e+002,2.140912e+001
5.148079e+002,2.389130e+001
5.157722e+002,2.665225e+001
5.167364e+002,2.838269e+001
5.177006e+002,2.868817e+001
5.186649e+002,2.784372e+001
5.196291e+002,2.538208e+001
5.205933e+002,2.297867e+001
5.215576e+002,2.246082e+001
5.225218e+002,2.368533e+001
5.234860e+002,2.547961e+001
5.244503e+002,2.601093e+001
5.254145e+002,2.514001e+001
5.263787e+002,2.425381e+001
5.273430e+002,2.280301e+001
5.283072e+002,2.169089e+001
5.292714e+002,2.244992e+001
5.302357e+002,2.659665e+001
5.311999e+002,2.837308e+001
5.321641e+002,2.603665e+001
5.331284e+002,2.290726e+001
5.340926e+002,2.165268e+001
5.350568e+002,2.324533e+001
5.360211e+002,2.469989e+001
5.369853e+002,2.322052e+001
5.379495e+002,2.084064e+001
5.389138e+002,1.885495e+001
5.398780e+002,1.783215e+001
5.408422e+002,1.762646e+001
5.418065e+002,1.843530e+001
5.427707e+002,2.001541e+001
5.437349e+002,2.022516e+001
5.446992e+002,1.792679e+001
5.456634e+002,1.415585e+001
5.466276e+002,1.269998e+001
5.475919e+002,1.726590e+001
5.485561e+002,1.981888e+001
5.495203e+002,1.855264e+001
5.504846e+002,1.542346e+001
5.514488e+002,1.344025e+001
5.524130e+002,1.430975e+001
5.533773e+002,1.524289e+001
5.543415e+002,1.447302e+001
5.553057e+002,1.313852e+001
5.562700e+002,1.243518e+001
5.572342e+002,1.305640e+001
5.581984e+002,1.424603e+001
5.591627e+002,1.424866e+001
5.601269e+002,1.365262e+001
5.610911e+002,1.339929e+001
5.620554e+002,1.392352e+001
5.630196e+002,1.500989e+001
5.639838e+002,1.554724e+001
5.649481e+002,1.572635e+001
5.659123e+002,1.514145e+001
5.668765e+002,1.337354e+001
5.678408e+002,1.108020e+001
5.688050e+002,9.773956e+000
5.697692e+002,1.001193e+001
5.707335e+002,1.036856e+001
5.716977e+002,1.080026e+001
5.726619e+002,1.113354e+001
5.736262e+002,1.118149e+001
5.745904e+002,1.082529e+001
5.755546e+002,1.029636e+001
5.765189e+002,9.654083e+000
5.774831e+002,8.825867e+000
5.784473e+002,7.999847e+000
5.794116e+002,7.406830e+000
5.803758e+002,7.170563e+000
5.813400e+002,6.863373e+000
5.823043e+002,6.155243e+000
5.832685e+002,5.317963e+000
5.842327e+002,4.376038e+000
5.851970e+002,3.601227e+000
5.861612e+002,3.797241e+000
5.871254e+002,6.313812e+000
5.880897e+002,8.119141e+000
5.890539e+002,8.180511e+000
5.900181e+002,7.095825e+000
5.909824e+002,6.050323e+000
5.919466e+002,5.978546e+000
5.929108e+002,5.917572e+000
5.938751e+002,4.160370e+000
5.948393e+002,1.834564e+000
5.958035e+002,1.025085e+000
5.967678e+002,3.243225e+000
5.977320e+002,7.889587e+000
5.986962e+002,9.057770e+000
5.996605e+002,6.439026e+000
6.006247e+002,4.336487e+000
6.015889e+002,5.752625e+000
6.025532e+002,1.028076e+001
6.035174e+002,1.149588e+001
6.044816e+002,3.634460e+000
6.054459e+002,-1.289337e+000
6.064101e+002,6.119690e-001
6.073743e+002,6.256073e+000
6.083386e+002,9.708221e+000
6.093028e+002,6.912018e+000
6.102670e+002,3.491425e+000
6.112313e+002,4.090668e+000
6.121955e+002,6.769226e+000
6.131597e+002,8.933685e+000
6.141240e+002,8.812683e+000
6.150882e+002,7.104706e+000
6.160524e+002,7.315765e+000
6.170167e+002,9.203857e+000
6.179809e+002,1.036011e+001
6.189451e+002,9.197632e+000
6.199094e+002,6.051819e+000
6.208736e+002,4.409393e+000
6.218378e+002,7.506439e+000
6.228021e+002,8.847992e+000
6.237663e+002,6.355225e+000
6.247305e+002,2.228668e+000
6.256948e+002,2.613525e-001
6.266590e+002,2.873932e+000
6.276232e+002,4.928741e+000
6.285875e+002,2.139984e+000
6.295517e+002,-1.850189e+000
6.305159e+002,-2.819611e+000
6.314802e+002,1.303619e+000
6.324444e+002,7.801544e+000
6.334086e+002,9.392914e+000
6.343729e+002,7.632568e+000
6.353371e+002,4.994995e+000
6.363013e+002,1.912781e+000
6.372656e+002,-1.076935e+000
6.382298e+002,-1.781830e+000
6.391940e+002,2.989777e+000
6.401583e+002,5.746826e+000
6.411225e+002,6.036224e+000
6.420867e+002,4.986450e+000
6.430510e+002,3.556641e+000
6.440152e+002,1.567627e+000
6.449794e+002,-3.005066e-001
6.459437e+002,-2.435608e+000
6.469079e+002,-3.871796e+000
6.478721e+002,-3.028229e+000
6.488364e+002,2.917480e-001
6.498006e+002,3.954071e+000
6.507648e+002,3.219635e+000
6.517291e+002,-1.797180e-001
6.526933e+002,-1.672394e+000
6.536575e+002,-3.426208e-001
6.546218e+002,2.406677e+000
6.555860e+002,3.940704e+000
6.565502e+002,3.855774e+000
6.575145e+002,2.986145e+000
6.584787e+002,3.123474e-001
6.594429e+002,-2.205139e+000
6.604072e+002,-2.814026e+000
6.613714e+002,-1.094727e+000
6.623356e+002,7.250977e-001
6.632999e+002,2.043762e+000
6.642641e+002,2.510468e+000
6.652283e+002,1.663086e+000
6.661926e+002,-1.362000e-001
6.671568e+002,-2.008942e+000
6.681210e+002,-3.218140e+000
6.690853e+002,-3.642212e+000
6.700495e+002,-3.076080e+000
6.710137e+002,-1.519104e+000
6.719780e+002,9.335632e-001
6.729422e+002,4.411713e+000
6.739064e+002,9.444000e+000
6.748707e+002,1.133185e+001
6.758349e+002,8.765686e+000
6.767991e+002,5.511322e+000
6.777634e+002,2.724762e+000
6.787276e+002,7.172546e-001
6.796918e+002,1.106873e-001
6.806561e+002,2.001129e+000
6.816203e+002,4.082886e+000
6.825845e+002,6.122009e+000
6.835488e+002,7.618134e+000
6.845130e+002,7.718292e+000
6.854772e+002,5.661957e+000
6.864415e+002,2.922607e+000
6.874057e+002,2.463287e+000
6.883699e+002,3.448151e+000
6.893342e+002,4.761566e+000
6.902984e+002,5.978455e+000
6.912626e+002,6.927887e+000
6.922269e+002,5.926147e+000
6.931911e+002,1.686096e-001
6.941553e+002,-2.987854e+000
6.951196e+002,-1.501801e+000
6.960838e+002,1.994629e+000
6.970480e+002,3.313141e+000
6.980123e+002,7.009277e-001
6.989765e+002,-1.486206e+000
6.999407e+002,-1.289459e+000
7.009050e+002,-2.262878e-001
7.018692e+002,6.107788e-001
7.028334e+002,7.762756e-001
7.037977e+002,5.687256e-001
7.047619e+002,5.762634e-001
7.057261e+002,8.072205e-001
7.066904e+002,8.978271e-001
7.076546e+002,7.734985e-001
7.086188e+002,5.413818e-001
7.095831e+002,3.664246e-001
7.105473e+002,1.781921e-001
7.115115e+002,-1.499329e-001
7.124758e+002,-1.289337e+000
7.134400e+002,-2.054901e+000
7.144042e+002,-1.214905e+000
7.153685e+002,1.271667e+000
7.163327e+002,3.122284e+000
7.172969e+002,2.285156e+000
7.182612e+002,1.570618e+000
7.192254e+002,2.274689e+000
7.201896e+002,3.892609e+000
7.211539e+002,5.328491e+000
7.221181e+002,5.742279e+000
7.230823e+002,5.232330e+000
7.240466e+002,3.580963e+000
7.250108e+002,1.402527e+000
7.259750e+002,9.146423e-001
7.269393e+002,3.534973e+000
7.279035e+002,8.434540e+000
7.288677e+002,1.070425e+001
7.298320e+002,8.177673e+000
7.307962e+002,6.569702e+000
7.317604e+002,6.809418e+000
7.327247e+002,7.998291e+000
7.336889e+002,8.707886e+000
7.346531e+002,8.158173e+000
7.356174e+002,7.031158e+000
7.365816e+002,6.281952e+000
7.375458e+002,5.658722e+000
7.385101e+002,4.570679e+000
7.394743e+002,3.092102e+000
7.404385e+002,2.242371e+000
7.414028e+002,4.039581e+000
7.423670e+002,7.110779e+000
7.433312e+002,7.077911e+000
7.442955e+002,3.728333e+000
7.452597e+002,9.246826e-002
7.462239e+002,-5.164490e-001
7.471882e+002,2.540894e+000
7.481524e+002,5.574097e+000
7.491166e+002,9.013489e+000
7.500809e+002,1.130142e+001
7.510451e+002,1.134723e+001
7.520093e+002,9.675262e+000
7.529736e+002,8.258362e+000
7.539378e+002,8.727661e+000
7.549020e+002,9.118866e+000
7.558663e+002,7.446625e+000
7.568306e+002,5.079895e+000
7.577948e+002,3.951263e+000
7.587590e+002,5.096375e+000
7.597233e+002,7.525665e+000
7.606875e+002,8.915161e+000
7.616517e+002,9.540771e+000
7.626160e+002,9.867981e+000
7.635802e+002,9.971924e+000
7.645444e+002,9.964203e+000
7.655087e+002,1.001999e+001
7.664729e+002,1.016095e+001
7.674371e+002,1.013010e+001
7.684014e+002,9.832794e+000
7.693656e+002,9.422546e+000
7.703298e+002,8.849518e+000
7.712941e+002,8.224548e+000
7.722583e+002,8.120331e+000
7.732225e+002,9.731384e+000
7.741868e+002,1.123880e+001
7.751510e+002,1.063684e+001
7.761152e+002,8.693237e+000
7.770795e+002,7.483856e+000
7.780437e+002,8.828827e+000
7.790079e+002,1.219736e+001
7.799722e+002,1.352249e+001
7.809364e+002,1.289941e+001
7.819006e+002,1.153394e+001
7.828649e+002,9.251709e+000
7.838291e+002,6.771698e+000
7.847933e+002,6.327759e+000
7.857576e+002,9.607208e+000
7.867218e+002,1.142877e+001
7.876860e+002,1.050745e+001
7.886503e+002,8.732086e+000
7.896145e+002,7.586243e+000
7.905787e+002,7.477020e+000
7.915430e+002,7.667786e+000
7.925072e+002,7.006622e+000
7.934714e+002,6.055237e+000
7.944357e+002,5.638000e+000
7.953999e+002,6.002838e+000
7.963641e+002,7.343231e+000
7.973284e+002,9.932983e+000
7.982926e+002,1.401044e+001
7.992568e+002,1.396442e+001
8.002211e+002,7.067108e+000
8.011853e+002,8.077087e-001
8.021495e+002,-1.651947e+000
8.031138e+002,-6.495056e-001
8.040780e+002,1.694611e+000
8.050422e+002,6.152008e+000
8.060065e+002,9.239899e+000
8.069707e+002,8.890259e+000
8.079349e+002,7.144043e+000
8.088992e+002,6.004791e+000
8.098634e+002,6.310638e+000
8.108276e+002,7.374054e+000
8.117919e+002,8.038208e+000
8.127561e+002,8.231354e+000
8.137203e+002,9.030701e+000
8.146846e+002,1.075299e+001
8.156488e+002,1.191608e+001
8.166130e+002,1.025958e+001
8.175773e+002,4.824493e+000
8.185415e+002,1.963043e+000
8.195057e+002,1.981079e+000
8.204700e+002,3.121216e+000
8.214342e+002,5.936493e+000
8.223984e+002,9.446991e+000
8.233627e+002,1.104175e+001
8.243269e+002,8.916626e+000
8.252911e+002,6.776337e+000
8.262554e+002,6.660767e+000
8.272196e+002,7.632660e+000
8.281838e+002,8.874115e+000
8.291481e+002,9.980621e+000
8.301123e+002,1.096048e+001
8.310765e+002,1.178485e+001
8.320408e+002,1.241214e+001
8.330050e+002,1.334500e+001
8.339692e+002,1.498825e+001
8.349335e+002,1.596033e+001
8.358977e+002,1.412909e+001
8.368619e+002,8.830322e+000
8.378262e+002,6.748901e+000
8.387904e+002,1.110675e+001
8.397546e+002,1.479410e+001
8.407189e+002,1.619507e+001
8.416831e+002,1.576352e+001
8.426473e+002,1.422617e+001
8.436116e+002,1.153934e+001
8.445758e+002,9.563721e+000
8.455400e+002,1.092496e+001
8.465043e+002,1.321198e+001
8.474685e+002,1.393335e+001
8.484327e+002,1.265479e+001
8.493970e+002,1.063776e+001
8.503612e+002,9.636688e+000
8.513254e+002,9.620911e+000
8.522897e+002,1.088666e+001
8.532539e+002,1.429150e+001
8.542181e+002,1.738614e+001
8.551824e+002,1.899030e+001
8.561466e+002,1.945554e+001
8.571108e+002,1.974246e+001
8.580751e+002,1.932635e+001
8.590393e+002,1.838083e+001
8.600035e+002,1.688943e+001
8.609678e+002,1.540811e+001
8.619320e+002,1.431903e+001
8.628962e+002,1.378918e+001
8.638605e+002,1.400204e+001
8.648247e+002,1.608102e+001
8.657889e+002,1.883347e+001
8.667532e+002,1.956479e+001
8.677174e+002,1.792493e+001
8.686816e+002,1.546445e+001
8.696459e+002,1.387936e+001
8.706101e+002,1.329950e+001
8.715743e+002,1.376367e+001
8.725386e+002,1.640869e+001
8.735028e+002,1.860617e+001
8.744670e+002,1.892676e+001
8.754313e+002,1.819763e+001
8.763955e+002,1.831180e+001
8.773597e+002,2.019519e+001
8.783240e+002,2.236844e+001
8.792882e+002,2.417114e+001
8.802524e+002,2.528687e+001
8.812167e+002,2.506390e+001
8.821809e+002,2.365784e+001
8.831451e+002,2.203958e+001
8.841094e+002,2.149542e+001
8.850736e+002,2.221576e+001
8.860378e+002,2.349954e+001
8.870021e+002,2.545602e+001
8.879663e+002,2.703827e+001
8.889305e+002,2.736789e+001
8.898948e+002,2.662723e+001
8.908590e+002,2.611884e+001
8.918232e+002,2.608688e+001
8.927875e+002,2.649493e+001
8.937517e+002,2.715402e+001
8.947159e+002,2.831415e+001
8.956802e+002,3.051538e+001
8.966444e+002,3.346494e+001
8.976086e+002,3.562491e+001
8.985729e+002,3.533722e+001
8.995371e+002,3.382080e+001
9.005013e+002,3.274884e+001
9.014656e+002,3.230725e+001
9.024298e+002,3.267371e+001
9.033940e+002,3.399451e+001
9.043583e+002,3.578354e+001
9.053225e+002,3.563931e+001
9.062867e+002,3.055621e+001
9.072510e+002,2.709695e+001
9.082152e+002,2.613715e+001
9.091794e+002,2.691980e+001
9.101437e+002,2.934863e+001
9.111079e+002,3.342215e+001
9.120721e+002,3.632849e+001
9.130364e+002,3.467004e+001
9.140006e+002,3.236185e+001
9.149648e+002,3.189435e+001
9.159291e+002,3.293414e+001
9.168933e+002,3.425015e+001
9.178575e+002,3.484421e+001
9.188218e+002,3.446667e+001
9.197860e+002,3.199927e+001
9.207502e+002,2.717166e+001
9.217145e+002,2.493167e+001
9.226787e+002,2.796713e+001
9.236429e+002,3.288812e+001
9.246072e+002,3.500662e+001
9.255714e+002,3.379514e+001
9.265356e+002,3.159845e+001
9.274999e+002,2.693085e+001
9.284641e+002,2.317575e+001
9.294283e+002,2.202222e+001
9.303926e+002,2.269583e+001
9.313568e+002,2.369995e+001
9.323210e+002,2.428064e+001
9.332853e+002,2.453036e+001
9.342495e+002,2.483261e+001
9.352137e+002,2.479724e+001
9.361780e+002,2.346304e+001
9.371422e+002,2.084903e+001
9.381064e+002,1.857297e+001
9.390707e+002,1.873706e+001
9.400349e+002,2.162054e+001
9.409991e+002,2.333426e+001
9.419634e+002,2.389642e+001
9.429276e+002,2.335822e+001
9.438918e+002,2.052673e+001
9.448561e+002,1.707544e+001
9.458203e+002,1.612100e+001
9.467845e+002,1.907104e+001
9.477488e+002,2.212030e+001
9.487130e+002,2.133975e+001
9.496772e+002,2.010007e+001
9.506415e+002,2.177957e+001
9.516057e+002,2.595200e+001
9.525699e+002,2.928079e+001
9.535342e+002,2.842270e+001
9.544984e+002,2.400159e+001
9.554626e+002,2.245599e+001
9.564269e+002,2.453983e+001
9.573911e+002,2.664883e+001
9.583553e+002,2.769101e+001
9.593196e+002,2.813437e+001
9.602838e+002,2.881372e+001
9.612480e+002,2.984134e+001
9.622123e+002,3.039352e+001
9.631765e+002,3.007901e+001
9.641407e+002,2.958353e+001
9.651050e+002,2.910147e+001
9.660692e+002,2.853665e+001
9.670334e+002,2.773636e+001
9.679977e+002,2.673251e+001
9.689619e+002,2.588498e+001
9.699261e+002,2.533722e+001
9.708904e+002,2.498734e+001
9.718546e+002,2.554388e+001
9.728188e+002,2.728632e+001
9.737831e+002,2.899933e+001
9.747473e+002,2.869846e+001
9.757115e+002,2.565744e+001
9.766758e+002,2.508286e+001
9.776400e+002,2.999875e+001
9.786042e+002,3.409338e+001
9.795685e+002,3.546402e+001
9.805327e+002,3.501270e+001
9.814969e+002,3.433243e+001
9.824612e+002,3.410257e+001
9.834254e+002,3.352264e+001
9.843896e+002,3.086755e+001
9.853539e+002,2.753757e+001
9.863181e+002,2.488437e+001
9.872823e+002,2.296063e+001
9.882466e+002,2.178653e+001
9.892108e+002,2.164542e+001
9.901750e+002,2.270374e+001
9.911393e+002,2.377203e+001
9.921035e+002,2.430588e+001
9.930677e+002,2.433731e+001
9.940320e+002,2.299255e+001
9.949962e+002,2.228241e+001
9.959604e+002,2.467401e+001
9.969247e+002,3.019568e+001
9.978889e+002,3.508270e+001
9.988531e+002,3.692133e+001
9.998174e+002,3.765717e+001
1.000782e+003,3.808258e+001
1.001746e+003,3.884430e+001
1.002710e+003,4.111923e+001
1.003674e+003,4.510831e+001
1.004639e+003,4.914215e+001
1.005603e+003,5.023044e+001
1.006567e+003,4.792505e+001
1.007531e+003,4.554675e+001
1.008495e+003,4.276779e+001
1.009460e+003,4.060211e+001
1.010424e+003,3.962109e+001
1.011388e+003,3.983340e+001
1.012352e+003,4.135278e+001
1.013317e+003,4.537790e+001
1.014281e+003,4.791388e+001
1.015245e+003,4.756183e+001
1.016209e+003,4.561237e+001
1.017174e+003,4.259702e+001
1.018138e+003,3.899265e+001
1.019102e+003,3.538803e+001
1.020066e+003,3.231210e+001
1.021031e+003,2.976096e+001
1.021995e+003,2.718637e+001
1.022959e+003,2.440359e+001
1.023923e+003,2.192291e+001
1.024887e+003,1.977374e+001
1.025852e+003,1.812616e+001
1.026816e+003,1.780505e+001
1.027780e+003,1.971884e+001
1.028744e+003,1.952310e+001
1.029709e+003,1.385007e+001
1.030673e+003,9.505646e+000
1.031637e+003,9.720978e+000
1.032601e+003,1.183261e+001
1.033566e+003,1.172595e+001
1.034530e+003,8.096741e+000
1.035494e+003,4.309753e+000
1.036458e+003,4.154907e+000
1.037422e+003,6.069336e+000
1.038387e+003,7.675232e+000
1.039351e+003,8.765594e+000
1.040315e+003,9.533905e+000
1.041279e+003,1.023300e+001
1.042244e+003,1.086502e+001
1.043208e+003,1.091663e+001
1.044172e+003,9.691925e+000
1.045136e+003,8.554657e+000
1.046101e+003,7.239227e+000
1.047065e+003,6.519043e+000
1.048029e+003,7.285645e+000
1.048993e+003,9.045959e+000
1.049958e+003,1.020761e+001
1.050922e+003,1.010452e+001
1.051886e+003,9.406158e+000
1.052850e+003,7.883911e+000
1.053814e+003,6.557129e+000
1.054779e+003,7.304016e+000
1.055743e+003,1.021585e+001
1.056707e+003,1.322928e+001
1.057671e+003,1.382751e+001
1.058636e+003,1.194281e+001
1.059600e+003,1.088953e+001
1.060564e+003,1.132803e+001
1.061528e+003,1.218445e+001
1.062493e+003,1.369470e+001
1.063457e+003,1.486630e+001
1.064421e+003,1.456580e+001
1.065385e+003,1.279669e+001
1.066349e+003,1.095615e+001
1.067314e+003,9.030609e+000
1.068278e+003,8.234161e+000
1.069242e+003,1.054568e+001
1.070206e+003,1.419000e+001
1.071171e+003,1.590451e+001
1.072135e+003,1.443942e+001
1.073099e+003,1.195258e+001
1.074063e+003,1.234604e+001
1.075028e+003,1.609604e+001
1.075992e+003,1.802603e+001
1.076956e+003,1.733728e+001
1.077920e+003,1.618433e+001
1.078885e+003,1.574936e+001
1.079849e+003,1.556116e+001
1.080813e+003,1.427127e+001
1.081777e+003,1.139108e+001
1.082741e+003,9.382294e+000
1.083706e+003,1.054526e+001
1.084670e+003,1.153534e+001
1.085634e+003,9.812134e+000
1.086598e+003,6.598785e+000
1.087563e+003,4.676453e+000
1.088527e+003,5.635345e+000
1.089491e+003,8.284210e+000
1.090455e+003,9.964508e+000
1.091420e+003,1.034848e+001
1.092384e+003,1.114316e+001
1.093348e+003,1.273239e+001
1.094312e+003,1.369641e+001
1.095276e+003,1.304349e+001
1.096241e+003,1.142657e+001
1.097205e+003,1.046796e+001
1.098169e+003,1.043900e+001
1.099133e+003,1.024820e+001
1.100098e+003,9.316223e+000
1.101062e+003,8.475586e+000
1.102026e+003,8.129517e+000
1.102990e+003,8.363464e+000
1.103955e+003,9.327393e+000
1.104919e+003,1.103741e+001
1.105883e+003,1.268848e+001
1.106847e+003,1.232471e+001
1.107812e+003,9.935730e+000
1.108776e+003,1.006070e+001
1.109740e+003,1.436865e+001
1.110704e+003,1.813889e+001
1.111668e+003,1.734772e+001
1.112633e+003,1.334790e+001
1.113597e+003,1.151859e+001
1.114561e+003,1.299258e+001
1.115525e+003,1.470496e+001
1.116490e+003,1.545734e+001
1.117454e+003,1.623578e+001
1.118418e+003,1.839221e+001
1.119382e+003,2.136423e+001
1.120347e+003,2.324713e+001
1.121311e+003,2.269223e+001
1.122275e+003,2.061890e+001
1.123239e+003,1.928815e+001
1.124203e+003,1.906076e+001
1.125168e+003,2.000830e+001
1.126132e+003,2.255319e+001
1.127096e+003,2.541742e+001
1.128060e+003,2.791205e+001
1.129025e+003,2.980219e+001
1.129989e+003,3.013333e+001
1.130953e+003,2.784570e+001
1.131917e+003,2.600305e+001
1.132882e+003,2.509512e+001
1.133846e+003,2.530237e+001
1.134810e+003,2.729825e+001
1.135774e+003,3.047845e+001
1.136739e+003,3.357956e+001
1.137703e+003,3.586722e+001
1.138667e+003,3.772485e+001
1.139631e+003,3.973434e+001
1.140595e+003,4.194272e+001
1.141560e+003,4.497333e+001
1.142524e+003,4.915314e+001
1.143488e+003,5.380151e+001
1.144452e+003,5.801498e+001
1.145417e+003,6.221866e+001
1.146381e+003,6.797589e+001
1.147345e+003,7.528210e+001
1.148309e+003,8.414063e+001
1.149274e+003,9.561548e+001
1.150238e+003,1.076310e+002
1.151202e+003,1.201534e+002
1.152166e+003,1.324098e+002
1.153130e+003,1.433049e+002
1.154095e+003,1.520885e+002
1.155059e+003,1.584476e+002
1.156023e+003,1.621903e+002
1.156987e+003,1.634649e+002
1.157952e+003,1.639088e+002
1.158916e+003,1.643060e+002
1.159880e+003,1.623638e+002
1.160844e+003,1.557202e+002
1.161809e+003,1.454143e+002
1.162773e+003,1.339914e+002
1.163737e+003,1.209044e+002
1.164701e+003,1.094348e+002
1.165666e+003,1.023589e+002
1.166630e+003,9.537936e+001
1.167594e+003,8.592795e+001
1.168558e+003,7.597256e+001
1.169522e+003,6.796790e+001
1.170487e+003,6.286935e+001
1.171451e+003,6.080768e+001
1.172415e+003,6.245486e+001
1.173379e+003,6.647452e+001
1.174344e+003,6.537726e+001
1.175308e+003,5.891806e+001
1.176272e+003,5.436679e+001
1.177236e+003,5.590445e+001
1.178201e+003,5.922867e+001
1.179165e+003,5.808755e+001
1.180129e+003,5.224042e+001
1.181093e+003,4.799545e+001
1.182057e+003,4.748618e+001
1.183022e+003,4.782416e+001
1.183986e+003,4.826077e+001
1.184950e+003,4.870996e+001
1.185914e+003,4.952817e+001
1.186879e+003,5.047635e+001
1.187843e+003,5.039328e+001
1.188807e+003,4.821088e+001
1.189771e+003,4.488370e+001
1.190736e+003,4.365302e+001
1.191700e+003,4.471133e+001
1.192664e+003,4.591379e+001
1.193628e+003,4.798587e+001
1.194593e+003,4.929980e+001
1.195557e+003,4.800937e+001
1.196521e+003,4.490097e+001
1.197485e+003,4.305893e+001
1.198449e+003,4.349298e+001
1.199414e+003,4.357397e+001
1.200378e+003,4.178113e+001
1.201342e+003,3.958813e+001
1.202306e+003,3.759818e+001
1.203271e+003,3.584894e+001
1.204235e+003,3.419632e+001
1.205199e+003,3.264590e+001
1.206163e+003,3.159491e+001
1.207128e+003,3.184842e+001
1.208092e+003,3.358136e+001
1.209056e+003,3.201434e+001
1.210020e+003,2.482687e+001
1.210984e+003,1.954865e+001
1.211949e+003,2.009097e+001
1.212913e+003,2.247711e+001
1.213877e+003,2.138422e+001
1.214841e+003,1.660992e+001
1.215806e+003,1.231335e+001
1.216770e+003,9.967194e+000
1.217734e+003,8.624207e+000
1.218698e+003,8.147705e+000
1.219663e+003,7.598663e+000
1.220627e+003,5.471313e+000
1.221591e+003,1.855408e+000
1.222555e+003,-1.613159e+000
1.223520e+003,-3.393372e+000
1.224484e+003,-3.535400e+000
1.225448e+003,-2.706299e+000
1.226412e+003,1.916504e-002
1.227376e+003,1.434784e+000
1.228341e+003,3.122253e-001
1.229305e+003,-8.509827e-001
1.230269e+003,-4.613647e-001
1.231233e+003,7.529907e-001
1.232198e+003,1.347595e+000
1.233162e+003,1.053925e+000
1.234126e+003,3.423462e-001
1.235090e+003,-1.023376e+000
1.236055e+003,-2.420074e+000
1.237019e+003,-2.958069e+000
1.237983e+003,-3.014465e+000
1.238947e+003,-3.571533e+000
1.239911e+003,-4.918427e+000
1.240876e+003,-6.137787e+000
1.241840e+003,-5.975891e+000
1.242804e+003,-4.371429e+000
1.243768e+003,-2.364471e+000
1.244733e+003,1.885712e+000
1.245697e+003,3.944580e+000
1.246661e+003,1.168762e+000
1.247625e+003,-2.245514e+000
1.248590e+003,-2.711517e+000
1.249554e+003,-7.228699e-001
1.250518e+003,7.669678e-001
1.251482e+003,2.644348e-001
1.252447e+003,-7.299805e-001
1.253411e+003,-3.479004e-002
1.254375e+003,1.605804e+000
1.255339e+003,2.092590e+000
1.256303e+003,1.522949e+000
1.257268e+003,1.927917e+000
1.258232e+003,4.653412e+000
1.259196e+003,8.223236e+000
1.260160e+003,9.884369e+000
1.261125e+003,9.483795e+000
1.262089e+003,9.335175e+000
1.263053e+003,9.718353e+000
1.264017e+003,9.852692e+000
1.264982e+003,9.034424e+000
1.265946e+003,8.432373e+000
1.266910e+003,9.527740e+000
1.267874e+003,1.198413e+001
1.268839e+003,1.420883e+001
1.269803e+003,1.516492e+001
1.270767e+003,1.508398e+001
1.271731e+003,1.437048e+001
1.272695e+003,1.307053e+001
1.273660e+003,1.100925e+001
1.274624e+003,7.364868e+000
1.275588e+003,4.201691e+000
1.276552e+003,2.944122e+000
1.277517e+003,3.145966e+000
1.278481e+003,4.019958e+000
1.279445e+003,5.550232e+000
1.280409e+003,6.351776e+000
1.281374e+003,5.717896e+000
1.282338e+003,4.616791e+000
1.283302e+003,2.996429e+000
1.284266e+003,1.511566e+000
1.285230e+003,1.228485e+000
1.286195e+003,1.951263e+000
1.287159e+003,2.152771e+000
1.288123e+003,6.579895e-001
1.289087e+003,-1.417816e+000
1.290052e+003,-9.366150e-001
1.291016e+003,3.391083e+000
1.291980e+003,4.856964e+000
1.292944e+003,8.019409e-001
1.293909e+003,-2.791931e+000
1.294873e+003,-2.983856e+000
1.295837e+003,-1.424835e+000
1.296801e+003,-2.981567e-001
1.297766e+003,3.317261e-002
1.298730e+003,-1.893616e-001
1.299694e+003,-1.138428e+000
1.300658e+003,-2.402740e+000
1.301622e+003,-3.788879e+000
1.302587e+003,-4.881958e+000
1.303551e+003,-5.041809e+000
1.304515e+003,-4.102631e+000
1.305479e+003,-2.247772e+000
1.306444e+003,5.292664e-001
1.307408e+003,3.552063e+000
1.308372e+003,4.529419e+000
1.309336e+003,2.313965e+000
1.310301e+003,1.555481e+000
1.311265e+003,5.045471e+000
1.312229e+003,7.062897e+000
1.313193e+003,4.856323e+000
1.314157e+003,9.698486e-001
1.315122e+003,-2.301361e+000
1.316086e+003,-4.408081e+000
1.317050e+003,-5.509857e+000
1.318014e+003,-5.555084e+000
1.318979e+003,-5.032837e+000
1.319943e+003,-5.159668e+000
1.320907e+003,-5.619049e+000
1.321871e+003,-4.465851e+000
1.322836e+003,-1.326263e+000
1.323800e+003,1.342194e+000
1.324764e+003,2.281036e+000
1.325728e+003,2.009186e+000
1.326693e+003,1.108002e+000
1.327657e+003,-5.310974e-001
1.328621e+003,-2.283508e+000
1.329585e+003,-4.396973e+000
1.330549e+003,-4.595337e+000
1.331514e+003,-1.009338e+000
1.332478e+003,3.255157e+000
1.333442e+003,5.646545e+000
1.334406e+003,6.071106e+000
1.335371e+003,5.239929e+000
1.336335e+003,3.666779e+000
1.337299e+003,2.216461e+000
1.338263e+003,2.569977e+000
1.339228e+003,5.067413e+000
1.340192e+003,6.241608e+000
1.341156e+003,5.144318e+000
1.342120e+003,4.204803e+000
1.343084e+003,3.365509e+000
1.344049e+003,2.765747e+000
1.345013e+003,3.189667e+000
1.345977e+003,4.227814e+000
1.346941e+003,4.095093e+000
1.347906e+003,2.031403e+000
1.348870e+003,3.693542e-001
1.349834e+003,2.036285e+000
1.350798e+003,4.689056e+000
1.351763e+003,3.358643e+000
1.352727e+003,-1.066833e+000
1.353691e+003,-3.378143e+000
1.354655e+003,-1.230469e+000
1.355620e+003,2.079865e+000
1.356584e+003,2.777496e+000
1.357548e+003,1.180420e+000
1.358512e+003,-7.358704e-001
1.359476e+003,-3.850525e+000
1.360441e+003,-5.570221e+000
1.361405e+003,-4.224426e+000
1.362369e+003,-2.249756e+000
1.363333e+003,-4.418335e-001
1.364298e+003,1.090302e+000
1.365262e+003,2.781525e+000
1.366226e+003,4.413391e+000
1.367190e+003,4.426849e+000
1.368155e+003,1.355743e+000
1.369119e+003,-3.319061e+000
1.370083e+003,-4.767120e+000
1.371047e+003,-1.857910e+000
1.372011e+003,2.112122e-001
1.372976e+003,9.525146e-001
1.373940e+003,1.079651e+000
1.374904e+003,4.258118e-001
1.375868e+003,-2.353821e-001
1.376833e+003,2.121887e-001
1.377797e+003,1.617950e+000
1.378761e+003,2.575775e+000
1.379725e+003,2.472107e+000
1.380690e+003,2.037476e+000
1.381654e+003,2.125671e+000
1.382618e+003,2.384735e+000
1.383582e+003,1.836670e+000
1.384547e+003,7.142944e-001
1.385511e+003,1.079468e+000
1.386475e+003,4.285583e+000
1.387439e+003,7.984619e+000
1.388403e+003,8.124969e+000
1.389368e+003,4.699402e+000
1.390332e+003,3.258026e+000
1.391296e+003,5.670807e+000
1.392260e+003,6.859436e+000
1.393225e+003,4.420868e+000
1.394189e+003,1.836548e+000
1.395153e+003,9.223022e-001
1.396117e+003,1.261047e+000
1.397082e+003,2.234711e+000
1.398046e+003,3.485107e+000
1.399010e+003,4.558838e+000
1.399974e+003,4.907043e+000
1.400938e+003,4.386993e+000
1.401903e+003,3.163025e+000
1.402867e+003,1.426147e+000
1.403831e+003,1.008209e+000
1.404795e+003,1.694885e+000
1.405760e+003,3.338715e+000
1.406724e+003,7.168762e+000
1.407688e+003,1.030896e+001
1.408652e+003,9.100891e+000
1.409617e+003,4.333771e+000
1.410581e+003,1.405640e-001
1.411545e+003,-2.014648e+000
1.412509e+003,-2.430634e+000
1.413474e+003,-6.708984e-001
1.414438e+003,1.911774e+000
1.415402e+003,3.728088e+000
1.416366e+003,4.885681e+000
1.417330e+003,5.086426e+000
1.418295e+003,3.909302e+000
1.419259e+003,2.899780e+000
1.420223e+003,4.598877e+000
1.421187e+003,8.092255e+000
1.422152e+003,7.819641e+000
1.423116e+003,2.047150e+000
1.424080e+003,-1.274658e+000
1.425044e+003,2.069611e+000
1.426009e+003,5.690918e+000
1.426973e+003,7.178284e+000
1.427937e+003,7.343292e+000
1.428901e+003,7.212219e+000
1.429865e+003,7.133331e+000
1.430830e+003,6.821747e+000
1.431794e+003,6.017212e+000
1.432758e+003,5.392334e+000
1.433722e+003,6.691711e+000
1.434687e+003,1.050885e+001
1.435651e+003,1.288937e+001
1.436615e+003,1.208569e+001
1.437579e+003,1.093530e+001
1.438544e+003,9.246124e+000
1.439508e+003,7.920227e+000
1.440472e+003,7.846344e+000
1.441436e+003,8.748291e+000
1.442401e+003,1.011536e+001
1.443365e+003,1.161642e+001
1.444329e+003,1.240250e+001
1.445293e+003,1.177682e+001
1.446257e+003,1.055765e+001
1.447222e+003,1.010025e+001
1.448186e+003,1.027310e+001
1.449150e+003,1.052652e+001
1.450114e+003,1.061856e+001
1.451079e+003,1.126315e+001
1.452043e+003,1.410693e+001
1.453007e+003,1.711459e+001
1.453971e+003,1.694244e+001
1.454936e+003,1.386133e+001
1.455900e+003,1.060461e+001
1.456864e+003,7.304626e+000
1.457828e+003,5.829742e+000
1.458792e+003,8.647949e+000
1.459757e+003,1.225870e+001
1.460721e+003,1.435602e+001
1.461685e+003,1.489972e+001
1.462649e+003,1.356647e+001
1.463614e+003,1.066867e+001
1.464578e+003,8.725281e+000
1.465542e+003,1.012836e+001
1.466506e+003,1.346750e+001
1.467471e+003,1.487152e+001
1.468435e+003,1.431726e+001
1.469399e+003,1.326141e+001
1.470363e+003,9.757813e+000
1.471328e+003,8.164429e+000
1.472292e+003,1.094034e+001
1.473256e+003,1.401099e+001
1.474220e+003,1.465979e+001
1.475184e+003,1.373596e+001
1.476149e+003,1.290094e+001
1.477113e+003,1.275439e+001
1.478077e+003,1.338553e+001
1.479041e+003,1.511349e+001
1.480006e+003,1.755826e+001
1.480970e+003,1.893039e+001
1.481934e+003,1.873917e+001
1.482898e+003,1.842621e+001
1.483863e+003,1.777539e+001
1.484827e+003,1.721835e+001
1.485791e+003,1.708871e+001
1.486755e+003,1.729282e+001
1.487719e+003,1.774442e+001
1.488684e+003,1.819421e+001
1.489648e+003,1.807391e+001
1.490612e+003,1.736258e+001
1.491576e+003,1.747552e+001
1.492541e+003,1.958649e+001
1.493505e+003,2.293063e+001
1.494469e+003,2.628238e+001
1.495433e+003,2.931818e+001
1.496398e+003,3.123749e+001
1.497362e+003,3.193555e+001
1.498326e+003,3.278143e+001
1.499290e+003,3.432849e+001
1.500255e+003,3.644446e+001
1.501219e+003,3.867413e+001
1.502183e+003,4.112241e+001
1.503147e+003,4.486969e+001
1.504111e+003,5.029102e+001
1.505076e+003,5.633884e+001
1.506040e+003,6.305820e+001
1.507004e+003,6.952606e+001
1.507968e+003,7.387833e+001
1.508933e+003,7.760999e+001
1.509897e+003,8.392596e+001
1.510861e+003,9.369193e+001
1.511825e+003,1.054168e+002
1.512790e+003,1.180837e+002
1.513754e+003,1.312520e+002
1.514718e+003,1.447463e+002
1.515682e+003,1.583562e+002
1.516646e+003,1.703897e+002
1.517611e+003,1.805001e+002
1.518575e+003,1.902393e+002
1.519539e+003,2.003625e+002
1.520503e+003,2.103939e+002
1.521468e+003,2.219553e+002
1.522432e+003,2.320714e+002
1.523396e+003,2.363833e+002
1.524360e+003,2.347776e+002
1.525325e+003,2.306679e+002
1.526289e+003,2.263856e+002
1.527253e+003,2.217072e+002
1.528217e+003,2.162810e+002
1.529182e+003,2.103058e+002
1.530146e+003,2.016985e+002
1.531110e+003,1.897912e+002
1.532074e+003,1.759383e+002
1.533039e+003,1.588957e+002
1.534003e+003,1.407721e+002
1.534967e+003,1.218941e+002
1.535931e+003,1.037607e+002
1.536896e+003,8.738928e+001
1.537860e+003,7.324234e+001
1.538824e+003,6.179663e+001
1.539788e+003,5.307870e+001
1.540752e+003,4.582626e+001
1.541717e+003,3.845078e+001
1.542681e+003,3.145767e+001
1.543645e+003,2.723312e+001
1.544609e+003,2.763333e+001
1.545573e+003,2.676773e+001
1.546538e+003,2.226059e+001
1.547502e+003,1.897549e+001
1.548466e+003,1.992584e+001
1.549430e+003,2.249432e+001
1.550395e+003,2.403903e+001
1.551359e+003,2.441238e+001
1.552323e+003,2.461514e+001
1.553287e+003,2.500540e+001
1.554252e+003,2.482925e+001
1.555216e+003,2.333765e+001
1.556180e+003,2.094946e+001
1.557144e+003,1.847980e+001
1.558109e+003,1.602942e+001
1.559073e+003,1.446588e+001
1.560037e+003,1.389484e+001
1.561001e+003,1.327155e+001
1.561966e+003,1.185425e+001
1.562930e+003,1.124374e+001
1.563894e+003,1.394125e+001
1.564858e+003,1.808765e+001
1.565823e+003,1.875662e+001
1.566787e+003,1.518665e+001
1.567751e+003,1.196704e+001
1.568715e+003,1.175620e+001
1.569679e+003,1.298920e+001
1.570644e+003,1.406863e+001
1.571608e+003,1.467673e+001
1.572572e+003,1.397028e+001
1.573536e+003,1.201285e+001
1.574500e+003,1.180927e+001
1.575465e+003,1.587549e+001
1.576429e+003,1.936310e+001
1.577393e+003,1.723340e+001
1.578357e+003,1.211710e+001
1.579322e+003,8.930786e+000
1.580286e+003,8.139771e+000
1.581250e+003,9.676910e+000
1.582214e+003,1.438818e+001
1.583179e+003,1.808426e+001
1.584143e+003,1.660333e+001
1.585107e+003,1.313113e+001
1.586071e+003,1.248456e+001
1.587036e+003,1.399387e+001
1.588000e+003,1.462042e+001
1.588964e+003,1.348068e+001
1.589928e+003,1.247986e+001
1.590893e+003,1.294617e+001
1.591857e+003,1.427148e+001
1.592821e+003,1.579810e+001
1.593785e+003,1.746735e+001
1.594750e+003,1.870380e+001
1.595714e+003,1.932010e+001
1.596678e+003,1.955737e+001
1.597642e+003,1.952841e+001
1.598606e+003,1.916745e+001
1.599571e+003,1.761008e+001
1.600535e+003,1.631921e+001
1.601499e+003,1.788077e+001
1.602463e+003,2.168491e+001
1.603427e+003,2.423474e+001
1.604392e+003,2.411047e+001
1.605356e+003,2.263043e+001
1.606320e+003,2.049203e+001
1.607284e+003,1.826227e+001
1.608249e+003,1.775629e+001
1.609213e+003,1.904532e+001
1.610177e+003,1.998334e+001
1.611141e+003,2.023019e+001
1.612106e+003,2.010022e+001
1.613070e+003,1.964444e+001
1.614034e+003,1.888300e+001
1.614998e+003,1.745721e+001
1.615963e+003,1.590613e+001
1.616927e+003,1.502707e+001
1.617891e+003,1.490738e+001
1.618855e+003,1.534103e+001
1.619820e+003,1.622208e+001
1.620784e+003,1.682376e+001
1.621748e+003,1.623679e+001
1.622712e+003,1.502292e+001
1.623677e+003,1.482565e+001
1.624641e+003,1.582932e+001
1.625605e+003,1.703027e+001
1.626569e+003,1.796909e+001
1.627533e+003,1.833463e+001
1.628498e+003,1.817651e+001
1.629462e+003,1.777219e+001
1.630426e+003,1.682367e+001
1.631390e+003,1.583557e+001
1.632354e+003,1.609692e+001
1.633319e+003,1.775378e+001
1.634283e+003,1.940814e+001
1.635247e+003,2.015933e+001
1.636211e+003,1.976672e+001
1.637176e+003,1.720819e+001
1.638140e+003,1.285410e+001
1.639104e+003,1.097360e+001
1.640068e+003,1.212207e+001
1.641033e+003,1.369073e+001
1.641997e+003,1.589255e+001
1.642961e+003,1.740677e+001
1.643925e+003,1.718985e+001
1.644890e+003,1.633350e+001
1.645854e+003,1.583136e+001
1.646818e+003,1.557202e+001
1.647782e+003,1.481946e+001
1.648747e+003,1.341907e+001
1.649711e+003,1.266833e+001
1.650675e+003,1.391550e+001
1.651639e+003,1.631219e+001
1.652604e+003,1.798776e+001
1.653568e+003,1.882892e+001
1.654532e+003,1.865100e+001
1.655496e+003,1.687643e+001
1.656460e+003,1.621204e+001
1.657425e+003,1.922662e+001
1.658389e+003,2.123624e+001
1.659353e+003,1.852661e+001
1.660317e+003,1.447791e+001
1.661281e+003,1.247818e+001
1.662246e+003,1.237537e+001
1.663210e+003,1.279910e+001
1.664174e+003,1.335129e+001
1.665138e+003,1.422656e+001
1.666103e+003,1.567447e+001
1.667067e+003,1.712943e+001
1.668031e+003,1.756049e+001
1.668995e+003,1.707257e+001
1.669960e+003,1.647137e+001
1.670924e+003,1.592969e+001
1.671888e+003,1.501880e+001
1.672852e+003,1.320715e+001
1.673817e+003,1.130960e+001
1.674781e+003,9.036835e+000
1.675745e+003,7.486328e+000
1.676709e+003,8.863800e+000
1.677674e+003,1.199911e+001
1.678638e+003,1.278604e+001
1.679602e+003,9.984375e+000
1.680566e+003,7.379822e+000
1.681531e+003,8.326508e+000
1.682495e+003,1.090833e+001
1.683459e+003,1.148004e+001
1.684423e+003,1.031131e+001
1.685387e+003,1.002963e+001
1.686352e+003,1.105377e+001
1.687316e+003,1.207770e+001
1.688280e+003,1.307129e+001
1.689244e+003,1.322818e+001
1.690208e+003,1.102399e+001
1.691173e+003,8.165527e+000
1.692137e+003,6.272705e+000
1.693101e+003,5.600494e+000
1.694065e+003,6.515808e+000
1.695030e+003,9.002014e+000
1.695994e+003,1.084296e+001
1.696958e+003,1.079370e+001
1.697922e+003,9.489380e+000
1.698887e+003,6.974213e+000
1.699851e+003,4.022339e+000
1.700815e+003,3.231537e+000
1.701779e+003,4.653534e+000
1.702744e+003,5.065155e+000
1.703708e+003,3.405396e+000
1.704672e+003,1.756561e+000
1.705636e+003,1.207825e+000
1.706601e+003,1.327911e+000
1.707565e+003,1.990875e+000
1.708529e+003,3.195648e+000
1.709493e+003,4.607239e+000
1.710458e+003,6.231873e+000
1.711422e+003,7.305176e+000
1.712386e+003,7.722321e+000
1.713350e+003,7.580231e+000
1.714314e+003,5.830811e+000
1.715279e+003,3.810272e+000
1.716243e+003,4.875671e+000
1.717207e+003,8.253845e+000
1.718171e+003,8.742584e+000
1.719135e+003,4.959625e+000
1.720100e+003,1.724945e+000
1.721064e+003,2.420685e+000
1.722028e+003,4.353149e+000
1.722992e+003,3.681427e+000
1.723957e+003,1.222443e+000
1.724921e+003,4.013062e-001
1.725885e+003,1.005249e+000
1.726849e+003,1.934753e+000
1.727814e+003,4.082397e+000
1.728778e+003,5.890289e+000
1.729742e+003,6.659637e+000
1.730706e+003,6.667786e+000
1.731671e+003,5.906616e+000
1.732635e+003,4.301605e+000
1.733599e+003,1.334778e+000
1.734563e+003,-2.237152e+000
1.735528e+003,-3.031982e+000
1.736492e+003,6.095886e-001
1.737456e+003,4.894379e+000
1.738420e+003,5.283600e+000
1.739385e+003,2.685608e+000
1.740349e+003,9.914856e-001
1.741313e+003,3.102722e-001
1.742277e+003,8.453064e-001
1.743241e+003,4.657043e+000
1.744206e+003,6.751831e+000
1.745170e+003,5.316132e+000
1.746134e+003,3.158783e+000
1.747098e+003,1.205139e+000
1.748063e+003,-2.061768e-001
1.749027e+003,-6.193542e-001
1.749991e+003,-2.498169e-001
1.750955e+003,2.697144e-001
1.751919e+003,6.525574e-001
1.752884e+003,1.031158e+000
1.753848e+003,1.519318e+000
1.754812e+003,1.910919e+000
1.755776e+003,1.936462e+000
1.756741e+003,1.788635e+000
1.757705e+003,1.484589e+000
1.758669e+003,5.330505e-001
1.759633e+003,4.051208e-001
1.760598e+003,2.879150e+000
1.761562e+003,3.453125e+000
1.762526e+003,-1.019440e+000
1.763490e+003,-5.528534e+000
1.764455e+003,-6.527008e+000
1.765419e+003,-5.154327e+000
1.766383e+003,-3.280792e+000
1.767347e+003,-1.553101e+000
1.768312e+003,-2.840576e-001
1.769276e+003,3.171997e-001
1.770240e+003,6.474609e-001
1.771204e+003,1.599792e+000
1.772168e+003,2.754120e+000
1.773133e+003,2.391357e+000
1.774097e+003,7.065735e-001
1.775061e+003,-6.530762e-002
1.776025e+003,2.581177e-001
1.776990e+003,-1.724243e-002
1.777954e+003,-1.505005e+000
1.778918e+003,-2.875763e+000
1.779882e+003,-3.406708e+000
1.780846e+003,-3.493988e+000
1.781811e+003,-3.588928e+000
1.782775e+003,-3.472137e+000
1.783739e+003,-2.220978e+000
1.784703e+003,5.662537e-001
1.785668e+003,2.132202e+000
1.786632e+003,2.646484e-001
1.787596e+003,-2.249573e+000
1.788560e+003,-3.668304e+000
1.789525e+003,-3.735199e+000
1.790489e+003,-1.811523e+000
1.791453e+003,1.340912e+000
1.792417e+003,4.341309e+000
1.793382e+003,6.645111e+000
1.794346e+003,6.289703e+000
1.795310e+003,1.977142e+000
1.796274e+003,-2.546570e+000
1.797239e+003,-2.635132e+000
1.798203e+003,2.809753e-001
1.799167e+003,6.185608e-001
1.800131e+003,-2.803253e+000
1.801095e+003,-3.862366e+000
1.802060e+003,8.993835e-001
1.803024e+003,3.109009e+000
1.803988e+003,-8.905334e-001
1.804952e+003,-4.379272e+000
1.805917e+003,-3.324097e+000
1.806881e+003,-9.728394e-001
1.807845e+003,-6.796875e-001
1.808809e+003,-1.758789e+000
1.809773e+003,-2.106384e+000
1.810738e+003,-1.250458e+000
1.811702e+003,5.145264e-002
1.812666e+003,1.273285e+000
1.813630e+003,1.884399e+000
1.814595e+003,1.005280e+000
1.815559e+003,-9.189148e-001
1.816523e+003,-1.780243e+000
1.817487e+003,-1.449341e+000
1.818452e+003,-7.931519e-001
1.819416e+003,6.790161e-001
1.820380e+003,1.465210e+000
1.821344e+003,9.890747e-002
1.822309e+003,-9.637146e-001
1.823273e+003,7.848511e-001
1.824237e+003,3.001801e+000
1.825201e+003,2.801636e+000
1.826166e+003,9.505310e-001
1.827130e+003,-2.918701e-001
1.828094e+003,-5.776062e-001
1.829058e+003,1.466980e-001
1.830022e+003,3.000610e+000
1.830987e+003,4.910095e+000
1.831951e+003,1.853302e+000
1.832915e+003,-2.612946e+000
1.833879e+003,-2.934357e+000
1.834844e+003,-2.161255e-001
1.835808e+003,1.645050e+000
1.836772e+003,2.034119e+000
1.837736e+003,2.090759e+000
1.838700e+003,2.217896e+000
1.839665e+003,1.537323e+000
1.840629e+003,-9.266052e-001
1.841593e+003,-3.843140e+000
1.842557e+003,-4.465332e+000
1.843522e+003,-2.838440e+000
1.844486e+003,-1.566193e+000
1.845450e+003,-4.667969e-001
1.846414e+003,4.385986e-001
1.847379e+003,8.581238e-001
1.848343e+003,7.676697e-001
1.849307e+003,-4.088440e-001
1.850271e+003,-1.259674e+000
1.851236e+003,-1.538086e-002
1.852200e+003,1.908112e+000
1.853164e+003,2.010193e+000
1.854128e+003,4.014282e-001
1.855093e+003,-9.543762e-001
1.856057e+003,-1.075897e+000
1.857021e+003,-2.600403e-001
1.857985e+003,1.253296e+000
1.858949e+003,2.797485e+000
1.859914e+003,3.045227e+000
1.860878e+003,2.387299e+000
1.861842e+003,3.012695e+000
1.862806e+003,4.909546e+000
1.863771e+003,5.547089e+000
1.864735e+003,4.305634e+000
1.865699e+003,2.082672e+000
1.866663e+003,-1.519257e+000
1.867627e+003,-4.067169e+000
1.868592e+003,-2.706329e+000
1.869556e+003,2.740173e-001
1.870520e+003,8.026123e-001
1.871484e+003,-7.814331e-001
1.872449e+003,-2.177399e+000
1.873413e+003,-2.775848e+000
1.874377e+003,-2.288940e+000
1.875341e+003,-1.288666e+000
1.876306e+003,6.121521e-001
1.877270e+003,5.266571e+000
1.878234e+003,9.293396e+000
1.879198e+003,8.501312e+000
1.880163e+003,5.047150e+000
1.881127e+003,3.322968e+000
1.882091e+003,3.596039e+000
1.883055e+003,2.931671e+000
1.884020e+003,2.658997e-001
1.884984e+003,-1.828064e+000
1.885948e+003,-9.841919e-001
1.886912e+003,1.758575e+000
1.887876e+003,4.619232e+000
1.888841e+003,7.494446e+000
1.889805e+003,8.488525e+000
1.890769e+003,7.214996e+000
1.891733e+003,6.210754e+000
1.892698e+003,5.945343e+000
1.893662e+003,4.919678e+000
1.894626e+003,1.976105e+000
1.895590e+003,-8.361511e-001
1.896554e+003,-2.367981e+000
1.897519e+003,-2.610229e+000
1.898483e+003,-1.136810e+000
1.899447e+003,1.317535e+000
1.900411e+003,3.031158e+000
1.901376e+003,3.796570e+000
1.902340e+003,3.917480e+000
1.903304e+003,3.016815e+000
1.904268e+003,2.192780e+000
1.905233e+003,2.139587e+000
1.906197e+003,2.620789e+000
1.907161e+003,3.991272e+000
1.908125e+003,5.498108e+000
1.909090e+003,5.342712e+000
1.910054e+003,3.721924e+000
1.911018e+003,2.482391e+000
1.911982e+003,2.381714e+000
1.912947e+003,3.131866e+000
1.913911e+003,4.464050e+000
1.914875e+003,5.438751e+000
1.915839e+003,4.345062e+000
1.916803e+003,1.666016e+000
1.917768e+003,7.718506e-001
1.918732e+003,2.061768e+000
1.919696e+003,3.622620e+000
1.920660e+003,6.017639e+000
1.921625e+003,7.255188e+000
1.922589e+003,5.641663e+000
1.923553e+003,4.551239e+000
1.924517e+003,7.197632e+000
1.925481e+003,9.900391e+000
1.926446e+003,8.911957e+000
1.927410e+003,5.855530e+000
1.928374e+003,3.631378e+000
1.929338e+003,2.410248e+000
1.930303e+003,2.182373e+000
1.931267e+003,3.649506e+000
1.932231e+003,4.911072e+000
1.933195e+003,4.271271e+000
1.934160e+003,3.661194e+000
1.935124e+003,5.155243e+000
1.936088e+003,6.814728e+000
1.937052e+003,5.878723e+000
1.938017e+003,3.628662e+000
1.938981e+003,3.480530e+000
1.939945e+003,5.345245e+000
1.940909e+003,5.729919e+000
1.941874e+003,3.123505e+000
1.942838e+003,-1.626892e-001
1.943802e+003,-1.872375e+000
1.944766e+003,-2.044739e+000
1.945730e+003,-9.205017e-001
1.946695e+003,1.120911e+000
1.947659e+003,1.861206e+000
1.948623e+003,1.023224e+000
1.949587e+003,1.778870e+000
1.950552e+003,5.300964e+000
1.951516e+003,7.400665e+000
1.952480e+003,6.354218e+000
1.953444e+003,4.164703e+000
1.954408e+003,7.962341e-001
1.955373e+003,-1.800110e+000
1.956337e+003,7.523804e-001
1.957301e+003,6.752625e+000
1.958265e+003,9.196228e+000
1.959230e+003,7.534668e+000
1.960194e+003,5.940033e+000
1.961158e+003,3.718414e+000
1.962122e+003,2.819550e+000
1.963087e+003,5.345306e+000
1.964051e+003,7.496460e+000
1.965015e+003,6.622864e+000
1.965979e+003,5.139618e+000
1.966944e+003,5.662598e+000
1.967908e+003,7.088715e+000
1.968872e+003,6.952240e+000
1.969836e+003,5.291046e+000
1.970801e+003,4.250488e+000
1.971765e+003,4.705536e+000
1.972729e+003,5.053192e+000
1.973693e+003,3.709351e+000
1.974657e+003,2.123138e+000
1.975622e+003,2.462799e+000
1.976586e+003,4.123505e+000
1.977550e+003,6.223145e+000
1.978514e+003,8.476440e+000
1.979479e+003,8.788025e+000
1.980443e+003,6.953339e+000
1.981407e+003,5.792664e+000
1.982371e+003,6.464294e+000
1.983335e+003,7.501343e+000
1.984300e+003,7.743591e+000
1.985264e+003,7.243011e+000
1.986228e+003,6.079102e+000
1.987192e+003,4.537231e+000
1.988157e+003,4.246918e+000
1.989121e+003,5.789093e+000
1.990085e+003,5.975494e+000
1.991049e+003,4.066040e+000
1.992014e+003,2.532593e+000
1.992978e+003,5.327148e-001
1.993942e+003,2.853394e-001
1.994906e+003,4.612091e+000
1.995871e+003,8.837433e+000
1.996835e+003,9.187164e+000
1.997799e+003,7.604736e+000
1.998763e+003,6.474884e+000
1.999728e+003,6.046783e+000
