5.003444e+002,3.000964e+001
5.013087e+002,2.810272e+001
5.022729e+002,2.607416e+001
5.032371e+002,2.441302e+001
5.042014e+002,2.309808e+001
5.051656e+002,2.220166e+001
5.061298e+002,2.190796e+001
5.070941e+002,2.236334e+001
5.080583e+002,2.357080e+001
5.090225e+002,2.438940e+001
5.099868e+002,2.506830e+001
5.109510e+002,2.525073e+001
5.119152e+002,2.438098e+001
5.128795e+002,2.236725e+001
5.138437e+002,2.129382e+001
5.148079e+002,2.337878e+001
5.157722e+002,2.534937e+001
5.167364e+002,2.555328e+001
5.177006e+002,2.382532e+001
5.186649e+002,2.138495e+001
5.196291e+002,1.979626e+001
5.205933e+002,1.900671e+001
5.215576e+002,1.835065e+001
5.225218e+002,1.754803e+001
5.234860e+002,1.683124e+001
5.244503e+002,1.707056e+001
5.254145e+002,1.924963e+001
5.263787e+002,1.963861e+001
5.273430e+002,1.662878e+001
5.283072e+002,1.291455e+001
5.292714e+002,1.252100e+001
5.302357e+002,1.776117e+001
5.311999e+002,2.006653e+001
5.321641e+002,1.733423e+001
5.331284e+002,1.350769e+001
5.340926e+002,1.151971e+001
5.350568e+002,1.234601e+001
5.360211e+002,1.335730e+001
5.369853e+002,1.254980e+001
5.379495e+002,1.123450e+001
5.389138e+002,1.021753e+001
5.398780e+002,9.793701e+000
5.408422e+002,9.700378e+000
5.418065e+002,9.214355e+000
5.427707e+002,8.467407e+000
5.437349e+002,8.864624e+000
5.446992e+002,1.105267e+001
5.456634e+002,1.435388e+001
5.466276e+002,1.654187e+001
5.475919e+002,1.747205e+001
5.485561e+002,1.739825e+001
5.495203e+002,1.543652e+001
5.504846e+002,1.249939e+001
5.514488e+002,9.998047e+000
5.524130e+002,8.713806e+000
5.533773e+002,7.845703e+000
5.543415e+002,6.669861e+000
5.553057e+002,5.687500e+000
5.562700e+002,5.416504e+000
5.572342e+002,6.122925e+000
5.581984e+002,7.358459e+000
5.591627e+002,9.003052e+000
5.601269e+002,1.079395e+001
5.610911e+002,1.125403e+001
5.620554e+002,9.413818e+000
5.630196e+002,5.475220e+000
5.639838e+002,2.514587e+000
5.649481e+002,5.823364e-001
5.659123e+002,-4.494629e-001
5.668765e+002,4.076538e-001
5.678408e+002,2.691895e+000
5.688050e+002,4.486816e+000
5.697692e+002,4.275269e+000
5.707335e+002,3.858459e+000
5.716977e+002,4.453674e+000
5.726619e+002,5.261658e+000
5.736262e+002,5.008118e+000
5.745904e+002,2.689819e+000
5.755546e+002,-8.618164e-002
5.765189e+002,-1.445007e+000
5.774831e+002,-1.882385e+000
5.784473e+002,-1.562256e+000
5.794116e+002,-4.535522e-001
5.803758e+002,1.582031e+000
5.813400e+002,3.229919e+000
5.823043e+002,4.317749e+000
5.832685e+002,4.350037e+000
5.842327e+002,3.045654e+000
5.851970e+002,8.582764e-001
5.861612e+002,-7.456055e-001
5.871254e+002,-1.138123e+000
5.880897e+002,-1.980103e+000
5.890539e+002,-4.937195e+000
5.900181e+002,-8.499084e+000
5.909824e+002,-9.698120e+000
5.919466e+002,-5.508484e+000
5.929108e+002,-6.678467e-001
5.938751e+002,-7.972412e-001
5.948393e+002,-3.686890e+000
5.958035e+002,-5.809204e+000
5.967678e+002,-4.554016e+000
5.977320e+002,-4.818115e-001
5.986962e+002,5.298462e-001
5.996605e+002,-1.972534e+000
6.006247e+002,-3.987305e+000
6.015889e+002,-3.307251e+000
6.025532e+002,-1.123657e-001
6.035174e+002,2.239014e+000
6.044816e+002,3.406982e+000
6.054459e+002,4.085693e+000
6.064101e+002,4.122192e+000
6.073743e+002,3.720886e+000
6.083386e+002,3.260010e+000
6.093028e+002,3.066101e+000
6.102670e+002,2.769348e+000
6.112313e+002,1.802307e+000
6.121955e+002,5.708008e-001
6.131597e+002,-3.756104e-001
6.141240e+002,-6.776123e-001
6.150882e+002,-5.613403e-001
6.160524e+002,-6.397705e-001
6.170167e+002,-7.079468e-001
6.179809e+002,-1.136902e+000
6.189451e+002,-2.713196e+000
6.199094e+002,-5.232178e+000
6.208736e+002,-5.786743e+000
6.218378e+002,-3.324585e-001
6.228021e+002,3.196045e+000
6.237663e+002,2.874634e+000
6.247305e+002,6.506348e-001
6.256948e+002,-1.668091e-001
6.266590e+002,2.352539e+000
6.276232e+002,3.833801e+000
6.285875e+002,1.166626e+000
6.295517e+002,-2.893677e+000
6.305159e+002,-5.621277e+000
6.314802e+002,-5.635925e+000
6.324444e+002,-4.141235e+000
6.334086e+002,-3.843750e+000
6.343729e+002,-4.093262e+000
6.353371e+002,-3.808838e+000
6.363013e+002,-2.562683e+000
6.372656e+002,-8.986206e-001
6.382298e+002,-4.829712e-001
6.391940e+002,-3.092651e+000
6.401583e+002,-4.943542e+000
6.411225e+002,-4.249634e+000
6.420867e+002,-2.899109e+000
6.430510e+002,-4.077087e+000
6.440152e+002,-1.022333e+001
6.449794e+002,-1.455389e+001
6.459437e+002,-1.218921e+001
6.469079e+002,-7.939026e+000
6.478721e+002,-5.507996e+000
6.488364e+002,-6.018066e+000
6.498006e+002,-7.263306e+000
6.507648e+002,-5.070129e+000
6.517291e+002,-8.430176e-001
6.526933e+002,2.520569e+000
6.536575e+002,4.500122e+000
6.546218e+002,4.984558e+000
6.555860e+002,3.631836e+000
6.565502e+002,-1.407837e+000
6.575145e+002,-4.302307e+000
6.584787e+002,-3.872070e+000
6.594429e+002,-2.504761e+000
6.604072e+002,-2.063904e+000
6.613714e+002,-2.882141e+000
6.623356e+002,-3.524231e+000
6.632999e+002,-3.287476e+000
6.642641e+002,-3.182983e+000
6.652283e+002,-3.898010e+000
6.661926e+002,-5.018433e+000
6.671568e+002,-5.140747e+000
6.681210e+002,-2.096497e+000
6.690853e+002,2.172058e+000
6.700495e+002,2.839783e+000
6.710137e+002,2.172852e-002
6.719780e+002,-3.630737e+000
6.729422e+002,-5.425720e+000
6.739064e+002,-5.234985e+000
6.748707e+002,-4.413696e+000
6.758349e+002,-2.332031e+000
6.767991e+002,-6.826172e-001
6.777634e+002,2.568359e-001
6.787276e+002,6.749878e-001
6.796918e+002,5.100098e-001
6.806561e+002,-1.804993e+000
6.816203e+002,-3.708191e+000
6.825845e+002,-3.926147e+000
6.835488e+002,-3.079102e+000
6.845130e+002,-2.193176e+000
6.854772e+002,-1.949829e+000
6.864415e+002,-1.868835e+000
6.874057e+002,-9.443359e-001
6.883699e+002,-1.654053e-002
6.893342e+002,-7.855225e-001
6.902984e+002,-4.266418e+000
6.912626e+002,-9.752869e+000
6.922269e+002,-1.312463e+001
6.931911e+002,-1.317017e+001
6.941553e+002,-1.157892e+001
6.951196e+002,-7.488647e+000
6.960838e+002,-2.732788e+000
6.970480e+002,4.986572e-002
6.980123e+002,9.405518e-002
6.989765e+002,-9.793701e-001
6.999407e+002,-3.830322e+000
7.009050e+002,-6.411377e+000
7.018692e+002,-6.680786e+000
7.028334e+002,-4.228333e+000
7.037977e+002,-9.559937e-001
7.047619e+002,6.765747e-001
7.057261e+002,1.102478e+000
7.066904e+002,1.223145e-001
7.076546e+002,-2.323669e+000
7.086188e+002,-4.843811e+000
7.095831e+002,-5.124084e+000
7.105473e+002,-2.205505e+000
7.115115e+002,-6.510010e-001
7.124758e+002,-1.245911e+000
7.134400e+002,-2.336548e+000
7.144042e+002,-2.751404e+000
7.153685e+002,-2.325317e+000
7.163327e+002,-2.066040e+000
7.172969e+002,-3.329956e+000
7.182612e+002,-3.875732e+000
7.192254e+002,-1.701050e+000
7.201896e+002,1.694336e+000
7.211539e+002,3.322937e+000
7.221181e+002,5.928345e-001
7.230823e+002,-4.965576e+000
7.240466e+002,-9.957397e+000
7.250108e+002,-1.389807e+001
7.259750e+002,-1.493579e+001
7.269393e+002,-1.192950e+001
7.279035e+002,-5.851868e+000
7.288677e+002,-1.808105e+000
7.298320e+002,4.920044e-001
7.307962e+002,1.628174e+000
7.317604e+002,1.006714e+000
7.327247e+002,-4.358521e-001
7.336889e+002,-2.009216e+000
7.346531e+002,-4.478882e+000
7.356174e+002,-6.080750e+000
7.365816e+002,-3.433472e+000
7.375458e+002,-1.466675e-001
7.385101e+002,4.180908e-001
7.394743e+002,-2.229553e+000
7.404385e+002,-5.497437e+000
7.414028e+002,-5.596619e+000
7.423670e+002,-3.620117e+000
7.433312e+002,-1.760559e+000
7.442955e+002,4.625854e-001
7.452597e+002,2.715393e+000
7.462239e+002,4.346924e+000
7.471882e+002,5.070374e+000
7.481524e+002,5.546692e+000
7.491166e+002,4.819092e+000
7.500809e+002,3.929260e+000
7.510451e+002,3.152100e+000
7.520093e+002,2.565247e+000
7.529736e+002,2.474915e+000
7.539378e+002,4.339417e+000
7.549020e+002,5.539795e+000
7.558663e+002,3.729675e+000
7.568306e+002,4.664307e-001
7.577948e+002,-2.502502e+000
7.587590e+002,-4.162048e+000
7.597233e+002,-4.712585e+000
7.606875e+002,-3.186951e+000
7.616517e+002,3.339844e-001
7.626160e+002,2.533325e+000
7.635802e+002,2.225464e+000
7.645444e+002,6.577759e-001
7.655087e+002,4.463501e-001
7.664729e+002,2.627502e+000
7.674371e+002,3.598145e+000
7.684014e+002,2.173096e+000
7.693656e+002,5.028076e-001
7.703298e+002,-5.432129e-003
7.712941e+002,8.494263e-001
7.722583e+002,2.158997e+000
7.732225e+002,3.285767e+000
7.741868e+002,4.604492e+000
7.751510e+002,6.737976e+000
7.761152e+002,9.342285e+000
7.770795e+002,1.172760e+001
7.780437e+002,1.324390e+001
7.790079e+002,1.370386e+001
7.799722e+002,1.165967e+001
7.809364e+002,6.896362e+000
7.819006e+002,2.668274e+000
7.828649e+002,5.141602e-001
7.838291e+002,2.074585e-001
7.847933e+002,4.171753e-001
7.857576e+002,8.366089e-001
7.867218e+002,1.184753e+000
7.876860e+002,2.089172e+000
7.886503e+002,3.127380e+000
7.896145e+002,3.972107e+000
7.905787e+002,4.511230e+000
7.915430e+002,4.785828e+000
7.925072e+002,4.443787e+000
7.934714e+002,3.402100e+000
7.944357e+002,1.789551e+000
7.953999e+002,-8.300781e-003
7.963641e+002,-1.485840e+000
7.973284e+002,-2.237915e+000
7.982926e+002,-2.248718e+000
7.992568e+002,-1.373474e+000
8.002211e+002,2.861328e-001
8.011853e+002,1.121765e+000
8.021495e+002,7.998657e-001
8.031138e+002,1.725464e-001
8.040780e+002,6.333618e-001
8.050422e+002,2.162109e+000
8.060065e+002,4.275757e+000
8.069707e+002,7.459656e+000
8.079349e+002,1.024329e+001
8.088992e+002,1.135748e+001
8.098634e+002,1.053235e+001
8.108276e+002,8.564880e+000
8.117919e+002,5.069702e+000
8.127561e+002,9.572144e-001
8.137203e+002,2.947998e-002
8.146846e+002,3.014954e+000
8.156488e+002,6.825867e+000
8.166130e+002,7.244507e+000
8.175773e+002,3.270203e+000
8.185415e+002,1.309631e+000
8.195057e+002,2.499390e+000
8.204700e+002,3.198242e+000
8.214342e+002,1.239441e+000
8.223984e+002,-2.100464e+000
8.233627e+002,-3.159668e+000
8.243269e+002,4.738770e-001
8.252911e+002,4.605103e+000
8.262554e+002,7.279602e+000
8.272196e+002,8.724182e+000
8.281838e+002,8.613892e+000
8.291481e+002,7.128296e+000
8.301123e+002,5.455627e+000
8.310765e+002,5.902466e+000
8.320408e+002,8.155640e+000
8.330050e+002,9.029175e+000
8.339692e+002,8.069702e+000
8.349335e+002,6.933289e+000
8.358977e+002,7.726746e+000
8.368619e+002,1.110193e+001
8.378262e+002,1.319159e+001
8.387904e+002,1.224738e+001
8.397546e+002,1.128076e+001
8.407189e+002,1.159619e+001
8.416831e+002,1.231610e+001
8.426473e+002,1.127899e+001
8.436116e+002,6.946106e+000
8.445758e+002,3.496399e+000
8.455400e+002,6.461060e+000
8.465043e+002,1.140045e+001
8.474685e+002,1.381158e+001
8.484327e+002,1.277454e+001
8.493970e+002,1.031158e+001
8.503612e+002,9.314941e+000
8.513254e+002,9.881409e+000
8.522897e+002,1.025812e+001
8.532539e+002,9.632568e+000
8.542181e+002,9.366028e+000
8.551824e+002,1.115167e+001
8.561466e+002,1.502509e+001
8.571108e+002,1.819818e+001
8.580751e+002,1.871753e+001
8.590393e+002,1.827515e+001
8.600035e+002,1.746558e+001
8.609678e+002,1.669141e+001
8.619320e+002,1.610455e+001
8.628962e+002,1.575653e+001
8.638605e+002,1.584900e+001
8.648247e+002,1.717151e+001
8.657889e+002,1.901709e+001
8.667532e+002,1.979187e+001
8.677174e+002,1.929193e+001
8.686816e+002,1.889502e+001
8.696459e+002,2.054321e+001
8.706101e+002,2.498969e+001
8.715743e+002,2.716309e+001
8.725386e+002,2.497070e+001
8.735028e+002,2.348260e+001
8.744670e+002,2.380676e+001
8.754313e+002,2.518463e+001
8.763955e+002,2.659418e+001
8.773597e+002,2.809344e+001
8.783240e+002,2.900928e+001
8.792882e+002,2.879340e+001
8.802524e+002,2.760718e+001
8.812167e+002,2.485712e+001
8.821809e+002,2.100244e+001
8.831451e+002,1.780359e+001
8.841094e+002,1.766980e+001
8.850736e+002,2.083112e+001
8.860378e+002,2.407538e+001
8.870021e+002,2.725665e+001
8.879663e+002,3.021649e+001
8.889305e+002,3.317456e+001
8.898948e+002,3.573187e+001
8.908590e+002,3.613727e+001
8.918232e+002,3.227771e+001
8.927875e+002,3.026947e+001
8.937517e+002,3.289075e+001
8.947159e+002,3.658917e+001
8.956802e+002,3.803851e+001
8.966444e+002,3.645917e+001
8.976086e+002,3.383551e+001
8.985729e+002,3.201532e+001
8.995371e+002,3.143634e+001
9.005013e+002,3.270752e+001
9.014656e+002,3.556415e+001
9.024298e+002,3.803326e+001
9.033940e+002,3.830627e+001
9.043583e+002,3.647729e+001
9.053225e+002,3.565906e+001
9.062867e+002,3.626849e+001
9.072510e+002,3.695563e+001
9.082152e+002,3.868298e+001
9.091794e+002,4.063727e+001
9.101437e+002,4.174219e+001
9.111079e+002,4.177716e+001
9.120721e+002,4.195618e+001
9.130364e+002,4.334314e+001
9.140006e+002,4.406647e+001
9.149648e+002,4.275482e+001
9.159291e+002,4.042987e+001
9.168933e+002,3.880695e+001
9.178575e+002,3.892151e+001
9.188218e+002,4.025940e+001
9.197860e+002,4.208392e+001
9.207502e+002,4.433026e+001
9.217145e+002,4.471106e+001
9.226787e+002,4.240125e+001
9.236429e+002,3.928546e+001
9.246072e+002,3.765753e+001
9.255714e+002,3.759973e+001
9.265356e+002,3.705811e+001
9.274999e+002,3.497919e+001
9.284641e+002,3.282874e+001
9.294283e+002,3.109460e+001
9.303926e+002,2.993939e+001
9.313568e+002,2.968823e+001
9.323210e+002,3.057642e+001
9.332853e+002,3.125378e+001
9.342495e+002,2.832019e+001
9.352137e+002,2.387469e+001
9.361780e+002,2.154645e+001
9.371422e+002,2.238904e+001
9.381064e+002,2.537720e+001
9.390707e+002,2.906921e+001
9.400349e+002,3.352637e+001
9.409991e+002,3.554919e+001
9.419634e+002,3.333453e+001
9.429276e+002,3.117389e+001
9.438918e+002,3.017334e+001
9.448561e+002,3.007379e+001
9.458203e+002,3.025409e+001
9.467845e+002,3.055713e+001
9.477488e+002,3.172229e+001
9.487130e+002,3.519153e+001
9.496772e+002,3.893884e+001
9.506415e+002,4.138373e+001
9.516057e+002,4.244055e+001
9.525699e+002,4.292212e+001
9.535342e+002,4.361029e+001
9.544984e+002,4.415753e+001
9.554626e+002,4.230939e+001
9.564269e+002,3.773309e+001
9.573911e+002,3.520837e+001
9.583553e+002,3.698456e+001
9.593196e+002,4.088629e+001
9.602838e+002,4.354260e+001
9.612480e+002,4.458752e+001
9.622123e+002,4.478058e+001
9.631765e+002,4.449219e+001
9.641407e+002,4.357159e+001
9.651050e+002,4.114362e+001
9.660692e+002,3.783942e+001
9.670334e+002,3.512286e+001
9.679977e+002,3.411652e+001
9.689619e+002,3.446613e+001
9.699261e+002,3.489563e+001
9.708904e+002,3.517322e+001
9.718546e+002,3.551440e+001
9.728188e+002,3.576318e+001
9.737831e+002,3.622040e+001
9.747473e+002,3.795081e+001
9.757115e+002,4.180237e+001
9.766758e+002,4.290692e+001
9.776400e+002,3.818835e+001
9.786042e+002,3.509021e+001
9.795685e+002,3.669470e+001
9.805327e+002,3.984760e+001
9.814969e+002,4.000012e+001
9.824612e+002,3.585638e+001
9.834254e+002,3.190692e+001
9.843896e+002,3.317023e+001
9.853539e+002,3.601257e+001
9.863181e+002,3.622113e+001
9.872823e+002,3.382043e+001
9.882466e+002,3.180286e+001
9.892108e+002,3.313263e+001
9.901750e+002,3.763245e+001
9.911393e+002,4.010651e+001
9.921035e+002,3.607568e+001
9.930677e+002,3.529169e+001
9.940320e+002,4.034961e+001
9.949962e+002,4.781140e+001
9.959604e+002,5.556177e+001
9.969247e+002,6.326434e+001
9.978889e+002,6.848804e+001
9.988531e+002,6.728601e+001
9.998174e+002,6.540881e+001
1.000782e+003,6.706055e+001
1.001746e+003,7.080231e+001
1.002710e+003,7.423621e+001
1.003674e+003,7.620026e+001
1.004639e+003,7.727350e+001
1.005603e+003,7.850647e+001
1.006567e+003,7.977753e+001
1.007531e+003,8.052991e+001
1.008495e+003,8.092450e+001
1.009460e+003,8.070679e+001
1.010424e+003,7.972925e+001
1.011388e+003,7.817120e+001
1.012352e+003,7.631354e+001
1.013317e+003,7.367578e+001
1.014281e+003,7.128729e+001
1.015245e+003,7.011511e+001
1.016209e+003,6.836615e+001
1.017174e+003,6.461627e+001
1.018138e+003,5.907202e+001
1.019102e+003,5.285449e+001
1.020066e+003,4.676324e+001
1.021031e+003,4.159064e+001
1.021995e+003,3.960394e+001
1.022959e+003,3.974908e+001
1.023923e+003,3.894800e+001
1.024887e+003,3.594446e+001
1.025852e+003,3.181348e+001
1.026816e+003,2.820203e+001
1.027780e+003,2.526617e+001
1.028744e+003,2.361627e+001
1.029709e+003,2.462769e+001
1.030673e+003,2.518823e+001
1.031637e+003,2.377551e+001
1.032601e+003,2.136786e+001
1.033566e+003,1.974207e+001
1.034530e+003,1.959375e+001
1.035494e+003,1.947778e+001
1.036458e+003,1.688733e+001
1.037422e+003,1.358612e+001
1.038387e+003,1.285211e+001
1.039351e+003,1.452179e+001
1.040315e+003,1.679932e+001
1.041279e+003,1.863336e+001
1.042244e+003,2.008911e+001
1.043208e+003,2.054608e+001
1.044172e+003,1.778540e+001
1.045136e+003,1.722614e+001
1.046101e+003,2.079999e+001
1.047065e+003,2.498883e+001
1.048029e+003,2.809094e+001
1.048993e+003,2.967462e+001
1.049958e+003,2.934088e+001
1.050922e+003,2.664294e+001
1.051886e+003,2.326312e+001
1.052850e+003,1.954065e+001
1.053814e+003,1.667767e+001
1.054779e+003,1.742279e+001
1.055743e+003,2.171576e+001
1.056707e+003,2.553052e+001
1.057671e+003,2.380115e+001
1.058636e+003,1.640002e+001
1.059600e+003,1.350146e+001
1.060564e+003,2.003442e+001
1.061528e+003,2.463190e+001
1.062493e+003,2.379437e+001
1.063457e+003,2.092017e+001
1.064421e+003,2.049646e+001
1.065385e+003,2.309906e+001
1.066349e+003,2.414191e+001
1.067314e+003,2.015186e+001
1.068278e+003,1.521259e+001
1.069242e+003,1.091827e+001
1.070206e+003,8.314087e+000
1.071171e+003,9.545410e+000
1.072135e+003,1.486328e+001
1.073099e+003,2.101880e+001
1.074063e+003,2.276172e+001
1.075028e+003,1.975250e+001
1.075992e+003,1.773566e+001
1.076956e+003,1.642987e+001
1.077920e+003,1.568097e+001
1.078885e+003,1.589984e+001
1.079849e+003,1.698822e+001
1.080813e+003,1.889612e+001
1.081777e+003,2.201813e+001
1.082741e+003,2.407806e+001
1.083706e+003,2.166724e+001
1.084670e+003,1.900415e+001
1.085634e+003,1.850763e+001
1.086598e+003,1.959625e+001
1.087563e+003,2.105634e+001
1.088527e+003,2.228772e+001
1.089491e+003,2.331372e+001
1.090455e+003,2.360242e+001
1.091420e+003,2.274591e+001
1.092384e+003,2.145386e+001
1.093348e+003,1.936847e+001
1.094312e+003,1.693671e+001
1.095276e+003,1.395374e+001
1.096241e+003,1.128882e+001
1.097205e+003,1.129303e+001
1.098169e+003,1.497687e+001
1.099133e+003,1.831519e+001
1.100098e+003,2.024115e+001
1.101062e+003,2.134192e+001
1.102026e+003,2.152264e+001
1.102990e+003,2.126001e+001
1.103955e+003,2.122528e+001
1.104919e+003,2.176324e+001
1.105883e+003,2.272894e+001
1.106847e+003,2.425818e+001
1.107812e+003,2.624847e+001
1.108776e+003,2.688068e+001
1.109740e+003,2.570538e+001
1.110704e+003,2.396295e+001
1.111668e+003,2.234210e+001
1.112633e+003,2.127716e+001
1.113597e+003,2.178180e+001
1.114561e+003,2.428125e+001
1.115525e+003,2.684515e+001
1.116490e+003,3.005585e+001
1.117454e+003,3.196533e+001
1.118418e+003,3.001837e+001
1.119382e+003,2.618018e+001
1.120347e+003,2.495618e+001
1.121311e+003,2.879224e+001
1.122275e+003,3.465265e+001
1.123239e+003,3.737909e+001
1.124203e+003,3.767438e+001
1.125168e+003,3.889185e+001
1.126132e+003,4.170972e+001
1.127096e+003,4.462317e+001
1.128060e+003,4.545380e+001
1.129025e+003,4.492572e+001
1.129989e+003,4.782922e+001
1.130953e+003,5.738452e+001
1.131917e+003,6.313068e+001
1.132882e+003,5.979877e+001
1.133846e+003,5.519708e+001
1.134810e+003,5.358826e+001
1.135774e+003,5.487213e+001
1.136739e+003,5.691394e+001
1.137703e+003,5.849414e+001
1.138667e+003,6.097583e+001
1.139631e+003,6.746851e+001
1.140595e+003,7.737512e+001
1.141560e+003,8.543048e+001
1.142524e+003,9.093774e+001
1.143488e+003,9.740991e+001
1.144452e+003,1.072752e+002
1.145417e+003,1.198560e+002
1.146381e+003,1.326606e+002
1.147345e+003,1.451569e+002
1.148309e+003,1.587894e+002
1.149274e+003,1.741341e+002
1.150238e+003,1.907505e+002
1.151202e+003,2.105386e+002
1.152166e+003,2.313156e+002
1.153130e+003,2.494880e+002
1.154095e+003,2.629550e+002
1.155059e+003,2.716570e+002
1.156023e+003,2.759214e+002
1.156987e+003,2.759135e+002
1.157952e+003,2.735602e+002
1.158916e+003,2.696595e+002
1.159880e+003,2.635167e+002
1.160844e+003,2.536706e+002
1.161809e+003,2.402934e+002
1.162773e+003,2.246209e+002
1.163737e+003,2.062523e+002
1.164701e+003,1.876932e+002
1.165666e+003,1.676196e+002
1.166630e+003,1.501467e+002
1.167594e+003,1.362737e+002
1.168558e+003,1.261184e+002
1.169522e+003,1.207582e+002
1.170487e+003,1.198195e+002
1.171451e+003,1.201060e+002
1.172415e+003,1.177880e+002
1.173379e+003,1.136812e+002
1.174344e+003,1.137938e+002
1.175308e+003,1.187601e+002
1.176272e+003,1.204014e+002
1.177236e+003,1.142386e+002
1.178201e+003,1.051634e+002
1.179165e+003,9.889569e+001
1.180129e+003,9.514923e+001
1.181093e+003,9.203949e+001
1.182057e+003,8.977271e+001
1.183022e+003,8.771661e+001
1.183986e+003,8.561267e+001
1.184950e+003,8.364868e+001
1.185914e+003,8.212634e+001
1.186879e+003,8.110376e+001
1.187843e+003,8.018463e+001
1.188807e+003,7.889032e+001
1.189771e+003,7.775824e+001
1.190736e+003,7.933252e+001
1.191700e+003,8.400177e+001
1.192664e+003,8.673303e+001
1.193628e+003,8.645117e+001
1.194593e+003,8.550079e+001
1.195557e+003,8.565460e+001
1.196521e+003,8.636102e+001
1.197485e+003,8.589935e+001
1.198449e+003,8.404431e+001
1.199414e+003,8.113361e+001
1.200378e+003,7.604279e+001
1.201342e+003,7.117645e+001
1.202306e+003,6.851636e+001
1.203271e+003,6.699469e+001
1.204235e+003,6.387177e+001
1.205199e+003,5.812262e+001
1.206163e+003,5.233282e+001
1.207128e+003,5.097260e+001
1.208092e+003,5.441559e+001
1.209056e+003,5.482849e+001
1.210020e+003,5.167767e+001
1.210984e+003,4.735358e+001
1.211949e+003,4.158417e+001
1.212913e+003,3.540625e+001
1.213877e+003,3.032861e+001
1.214841e+003,2.653864e+001
1.215806e+003,2.318024e+001
1.216770e+003,2.003992e+001
1.217734e+003,1.688220e+001
1.218698e+003,1.210760e+001
1.219663e+003,7.675171e+000
1.220627e+003,6.747559e+000
1.221591e+003,9.310791e+000
1.222555e+003,1.230548e+001
1.223520e+003,1.297711e+001
1.224484e+003,1.187720e+001
1.225448e+003,1.093872e+001
1.226412e+003,1.020135e+001
1.227376e+003,9.336060e+000
1.228341e+003,8.138672e+000
1.229305e+003,6.788757e+000
1.230269e+003,4.947754e+000
1.231233e+003,3.101318e+000
1.232198e+003,2.558411e+000
1.233162e+003,3.892395e+000
1.234126e+003,5.432861e+000
1.235090e+003,5.766296e+000
1.236055e+003,5.390747e+000
1.237019e+003,4.456787e+000
1.237983e+003,3.297913e+000
1.238947e+003,3.192627e+000
1.239911e+003,4.831909e+000
1.240876e+003,7.116882e+000
1.241840e+003,8.200562e+000
1.242804e+003,8.026917e+000
1.243768e+003,8.095459e+000
1.244733e+003,9.161316e+000
1.245697e+003,9.444641e+000
1.246661e+003,6.888245e+000
1.247625e+003,4.538818e+000
1.248590e+003,5.514526e+000
1.249554e+003,9.185730e+000
1.250518e+003,1.249323e+001
1.251482e+003,1.387897e+001
1.252447e+003,1.424805e+001
1.253411e+003,1.507764e+001
1.254375e+003,1.599109e+001
1.255339e+003,1.530609e+001
1.256303e+003,1.326581e+001
1.257268e+003,1.287885e+001
1.258232e+003,1.622070e+001
1.259196e+003,2.082349e+001
1.260160e+003,2.152460e+001
1.261125e+003,1.748206e+001
1.262089e+003,1.688757e+001
1.263053e+003,2.395288e+001
1.264017e+003,2.965234e+001
1.264982e+003,3.186786e+001
1.265946e+003,3.209949e+001
1.266910e+003,3.118280e+001
1.267874e+003,2.977936e+001
1.268839e+003,2.907458e+001
1.269803e+003,2.991211e+001
1.270767e+003,3.083356e+001
1.271731e+003,2.852515e+001
1.272695e+003,2.336145e+001
1.273660e+003,2.116156e+001
1.274624e+003,2.268109e+001
1.275588e+003,2.393262e+001
1.276552e+003,2.334198e+001
1.277517e+003,2.149139e+001
1.278481e+003,1.853961e+001
1.279445e+003,1.420593e+001
1.280409e+003,1.118945e+001
1.281374e+003,1.107953e+001
1.282338e+003,1.172369e+001
1.283302e+003,1.264728e+001
1.284266e+003,1.315283e+001
1.285230e+003,1.204987e+001
1.286195e+003,9.536011e+000
1.287159e+003,7.359314e+000
1.288123e+003,7.115540e+000
1.289087e+003,8.210449e+000
1.290052e+003,8.113770e+000
1.291016e+003,6.109192e+000
1.291980e+003,4.371521e+000
1.292944e+003,2.152344e+000
1.293909e+003,4.800415e-001
1.294873e+003,-8.288574e-002
1.295837e+003,5.869751e-001
1.296801e+003,3.320679e+000
1.297766e+003,7.881775e+000
1.298730e+003,1.075311e+001
1.299694e+003,9.246521e+000
1.300658e+003,6.340332e+000
1.301622e+003,5.582520e+000
1.302587e+003,5.975525e+000
1.303551e+003,5.691528e+000
1.304515e+003,4.599243e+000
1.305479e+003,4.008118e+000
1.306444e+003,4.938232e+000
1.307408e+003,6.640991e+000
1.308372e+003,6.851074e+000
1.309336e+003,4.511414e+000
1.310301e+003,3.889282e+000
1.311265e+003,7.378174e+000
1.312229e+003,1.027393e+001
1.313193e+003,1.130463e+001
1.314157e+003,1.083685e+001
1.315122e+003,8.489929e+000
1.316086e+003,4.896729e+000
1.317050e+003,2.239929e+000
1.318014e+003,2.135071e+000
1.318979e+003,3.734253e+000
1.319943e+003,5.741821e+000
1.320907e+003,8.103027e+000
1.321871e+003,8.980347e+000
1.322836e+003,7.332886e+000
1.323800e+003,5.966858e+000
1.324764e+003,6.835571e+000
1.325728e+003,8.810669e+000
1.326693e+003,9.882324e+000
1.327657e+003,9.790649e+000
1.328621e+003,9.164978e+000
1.329585e+003,9.068298e+000
1.330549e+003,8.930664e+000
1.331514e+003,6.917114e+000
1.332478e+003,4.400696e+000
1.333442e+003,2.759705e+000
1.334406e+003,2.403198e+000
1.335371e+003,3.575867e+000
1.336335e+003,6.318665e+000
1.337299e+003,9.447937e+000
1.338263e+003,1.057819e+001
1.339228e+003,9.530396e+000
1.340192e+003,8.270630e+000
1.341156e+003,6.223511e+000
1.342120e+003,4.775635e+000
1.343084e+003,3.742615e+000
1.344049e+003,3.084717e+000
1.345013e+003,3.469604e+000
1.345977e+003,4.673767e+000
1.346941e+003,5.460876e+000
1.347906e+003,5.322632e+000
1.348870e+003,5.260864e+000
1.349834e+003,6.110168e+000
1.350798e+003,7.449951e+000
1.351763e+003,9.699829e+000
1.352727e+003,1.239307e+001
1.353691e+003,1.187250e+001
1.354655e+003,6.108521e+000
1.355620e+003,-6.185913e-001
1.356584e+003,-3.182678e+000
1.357548e+003,-1.879089e+000
1.358512e+003,-2.570801e-001
1.359476e+003,1.447815e+000
1.360441e+003,2.564270e+000
1.361405e+003,3.067932e+000
1.362369e+003,3.192627e+000
1.363333e+003,2.504700e+000
1.364298e+003,1.802063e+000
1.365262e+003,2.577393e+000
1.366226e+003,4.814392e+000
1.367190e+003,6.587769e+000
1.368155e+003,6.164551e+000
1.369119e+003,4.238708e+000
1.370083e+003,3.057617e+000
1.371047e+003,3.008545e+000
1.372011e+003,2.942383e+000
1.372976e+003,1.418335e+000
1.373940e+003,9.717407e-001
1.374904e+003,4.203125e+000
1.375868e+003,8.257507e+000
1.376833e+003,8.785889e+000
1.377797e+003,5.890320e+000
1.378761e+003,3.842896e+000
1.379725e+003,4.596313e+000
1.380690e+003,6.538147e+000
1.381654e+003,8.887329e+000
1.382618e+003,1.111298e+001
1.383582e+003,1.199542e+001
1.384547e+003,1.172284e+001
1.385511e+003,1.212213e+001
1.386475e+003,1.416473e+001
1.387439e+003,1.647815e+001
1.388403e+003,1.727698e+001
1.389368e+003,1.652148e+001
1.390332e+003,1.398535e+001
1.391296e+003,8.067017e+000
1.392260e+003,4.136780e+000
1.393225e+003,4.078796e+000
1.394189e+003,5.145325e+000
1.395153e+003,6.561340e+000
1.396117e+003,7.766357e+000
1.397082e+003,7.978333e+000
1.398046e+003,7.307800e+000
1.399010e+003,7.033264e+000
1.399974e+003,8.133057e+000
1.400938e+003,9.712036e+000
1.401903e+003,1.013959e+001
1.402867e+003,1.017908e+001
1.403831e+003,9.928406e+000
1.404795e+003,6.907166e+000
1.405760e+003,5.973938e+000
1.406724e+003,1.037341e+001
1.407688e+003,1.541638e+001
1.408652e+003,1.587610e+001
1.409617e+003,1.246021e+001
1.410581e+003,9.443787e+000
1.411545e+003,8.383240e+000
1.412509e+003,8.647034e+000
1.413474e+003,9.971008e+000
1.414438e+003,1.144995e+001
1.415402e+003,1.235913e+001
1.416366e+003,1.300983e+001
1.417330e+003,1.359918e+001
1.418295e+003,1.424451e+001
1.419259e+003,1.473096e+001
1.420223e+003,1.414526e+001
1.421187e+003,1.264453e+001
1.422152e+003,1.300977e+001
1.423116e+003,1.660614e+001
1.424080e+003,1.913324e+001
1.425044e+003,1.789911e+001
1.426009e+003,1.622070e+001
1.426973e+003,1.517383e+001
1.427937e+003,1.456635e+001
1.428901e+003,1.442401e+001
1.429865e+003,1.468060e+001
1.430830e+003,1.477441e+001
1.431794e+003,1.418530e+001
1.432758e+003,1.336444e+001
1.433722e+003,1.366058e+001
1.434687e+003,1.564154e+001
1.435651e+003,1.854724e+001
1.436615e+003,2.275824e+001
1.437579e+003,2.479248e+001
1.438544e+003,2.231659e+001
1.439508e+003,1.996912e+001
1.440472e+003,2.265881e+001
1.441436e+003,2.758551e+001
1.442401e+003,2.834369e+001
1.443365e+003,2.358765e+001
1.444329e+003,1.799432e+001
1.445293e+003,1.484735e+001
1.446257e+003,1.376489e+001
1.447222e+003,1.436304e+001
1.448186e+003,1.629462e+001
1.449150e+003,1.802356e+001
1.450114e+003,1.936121e+001
1.451079e+003,2.021704e+001
1.452043e+003,2.069879e+001
1.453007e+003,2.106085e+001
1.453971e+003,2.154773e+001
1.454936e+003,2.189655e+001
1.455900e+003,2.117511e+001
1.456864e+003,1.908856e+001
1.457828e+003,1.698486e+001
1.458792e+003,1.498285e+001
1.459757e+003,1.341058e+001
1.460721e+003,1.244672e+001
1.461685e+003,1.216302e+001
1.462649e+003,1.319421e+001
1.463614e+003,1.564172e+001
1.464578e+003,1.773352e+001
1.465542e+003,1.759564e+001
1.466506e+003,1.602954e+001
1.467471e+003,1.610553e+001
1.468435e+003,1.889325e+001
1.469399e+003,2.006506e+001
1.470363e+003,1.601563e+001
1.471328e+003,1.432538e+001
1.472292e+003,1.846356e+001
1.473256e+003,2.298340e+001
1.474220e+003,2.472363e+001
1.475184e+003,2.435693e+001
1.476149e+003,2.303143e+001
1.477113e+003,2.129315e+001
1.478077e+003,2.020856e+001
1.479041e+003,2.117755e+001
1.480006e+003,2.356512e+001
1.480970e+003,2.434015e+001
1.481934e+003,2.218402e+001
1.482898e+003,2.244214e+001
1.483863e+003,2.706030e+001
1.484827e+003,3.088678e+001
1.485791e+003,3.225299e+001
1.486755e+003,3.317749e+001
1.487719e+003,3.565802e+001
1.488684e+003,3.886304e+001
1.489648e+003,4.030023e+001
1.490612e+003,3.943011e+001
1.491576e+003,3.896710e+001
1.492541e+003,4.104962e+001
1.493505e+003,4.458014e+001
1.494469e+003,4.724677e+001
1.495433e+003,4.886609e+001
1.496398e+003,5.095300e+001
1.497362e+003,5.440649e+001
1.498326e+003,5.808087e+001
1.499290e+003,6.061676e+001
1.500255e+003,6.344055e+001
1.501219e+003,6.866772e+001
1.502183e+003,7.585583e+001
1.503147e+003,8.273737e+001
1.504111e+003,8.866565e+001
1.505076e+003,9.494653e+001
1.506040e+003,1.012328e+002
1.507004e+003,1.097047e+002
1.507968e+003,1.231448e+002
1.508933e+003,1.398723e+002
1.509897e+003,1.564115e+002
1.510861e+003,1.726876e+002
1.511825e+003,1.909323e+002
1.512790e+003,2.125594e+002
1.513754e+003,2.360513e+002
1.514718e+003,2.594760e+002
1.515682e+003,2.824800e+002
1.516646e+003,3.040748e+002
1.517611e+003,3.245205e+002
1.518575e+003,3.438788e+002
1.519539e+003,3.643094e+002
1.520503e+003,3.821640e+002
1.521468e+003,3.958905e+002
1.522432e+003,4.052222e+002
1.523396e+003,4.099852e+002
1.524360e+003,4.102091e+002
1.525325e+003,4.064432e+002
1.526289e+003,3.991554e+002
1.527253e+003,3.880251e+002
1.528217e+003,3.719872e+002
1.529182e+003,3.513016e+002
1.530146e+003,3.297864e+002
1.531110e+003,3.084396e+002
1.532074e+003,2.834894e+002
1.533039e+003,2.513824e+002
1.534003e+003,2.182934e+002
1.534967e+003,1.860020e+002
1.535931e+003,1.563168e+002
1.536896e+003,1.305881e+002
1.537860e+003,1.090527e+002
1.538824e+003,9.128992e+001
1.539788e+003,7.683356e+001
1.540752e+003,6.520258e+001
1.541717e+003,5.606604e+001
1.542681e+003,4.953522e+001
1.543645e+003,4.496460e+001
1.544609e+003,4.375317e+001
1.545573e+003,4.206909e+001
1.546538e+003,3.875214e+001
1.547502e+003,3.538818e+001
1.548466e+003,3.264050e+001
1.549430e+003,3.102289e+001
1.550395e+003,3.146667e+001
1.551359e+003,3.290045e+001
1.552323e+003,3.252454e+001
1.553287e+003,2.956158e+001
1.554252e+003,2.685437e+001
1.555216e+003,2.707458e+001
1.556180e+003,2.850665e+001
1.557144e+003,2.668811e+001
1.558109e+003,2.164886e+001
1.559073e+003,1.991284e+001
1.560037e+003,2.313086e+001
1.561001e+003,2.515002e+001
1.561966e+003,2.400586e+001
1.562930e+003,2.185608e+001
1.563894e+003,1.975476e+001
1.564858e+003,1.796948e+001
1.565823e+003,1.731653e+001
1.566787e+003,1.784277e+001
1.567751e+003,1.843805e+001
1.568715e+003,1.860101e+001
1.569679e+003,1.876727e+001
1.570644e+003,1.975360e+001
1.571608e+003,2.061609e+001
1.572572e+003,1.868317e+001
1.573536e+003,1.401898e+001
1.574500e+003,1.215070e+001
1.575465e+003,1.631458e+001
1.576429e+003,2.121417e+001
1.577393e+003,2.253729e+001
1.578357e+003,2.137616e+001
1.579322e+003,1.973138e+001
1.580286e+003,1.798505e+001
1.581250e+003,1.697583e+001
1.582214e+003,1.694171e+001
1.583179e+003,1.776086e+001
1.584143e+003,2.032739e+001
1.585107e+003,2.238239e+001
1.586071e+003,2.035846e+001
1.587036e+003,1.622943e+001
1.588000e+003,1.519122e+001
1.588964e+003,1.822699e+001
1.589928e+003,2.164594e+001
1.590893e+003,2.335205e+001
1.591857e+003,2.388947e+001
1.592821e+003,2.357587e+001
1.593785e+003,2.277081e+001
1.594750e+003,2.347339e+001
1.595714e+003,2.610577e+001
1.596678e+003,2.778882e+001
1.597642e+003,2.661749e+001
1.598606e+003,2.537537e+001
1.599571e+003,2.708276e+001
1.600535e+003,2.980994e+001
1.601499e+003,3.065924e+001
1.602463e+003,2.973651e+001
1.603427e+003,2.955664e+001
1.604392e+003,3.135986e+001
1.605356e+003,3.262354e+001
1.606320e+003,2.972998e+001
1.607284e+003,2.470148e+001
1.608249e+003,2.391132e+001
1.609213e+003,2.755878e+001
1.610177e+003,2.922510e+001
1.611141e+003,2.714294e+001
1.612106e+003,2.484650e+001
1.613070e+003,2.395935e+001
1.614034e+003,2.347107e+001
1.614998e+003,2.268689e+001
1.615963e+003,2.182953e+001
1.616927e+003,2.123309e+001
1.617891e+003,2.086853e+001
1.618855e+003,2.053284e+001
1.619820e+003,1.999127e+001
1.620784e+003,1.886285e+001
1.621748e+003,1.679034e+001
1.622712e+003,1.460754e+001
1.623677e+003,1.453571e+001
1.624641e+003,1.695007e+001
1.625605e+003,1.966669e+001
1.626569e+003,2.170782e+001
1.627533e+003,2.293677e+001
1.628498e+003,2.355060e+001
1.629462e+003,2.401910e+001
1.630426e+003,2.457806e+001
1.631390e+003,2.515796e+001
1.632354e+003,2.602362e+001
1.633319e+003,2.699750e+001
1.634283e+003,2.630475e+001
1.635247e+003,2.213971e+001
1.636211e+003,1.685699e+001
1.637176e+003,1.539032e+001
1.638140e+003,1.756250e+001
1.639104e+003,1.758258e+001
1.640068e+003,1.407660e+001
1.641033e+003,1.247424e+001
1.641997e+003,1.560828e+001
1.642961e+003,1.917621e+001
1.643925e+003,2.128271e+001
1.644890e+003,2.250403e+001
1.645854e+003,2.366681e+001
1.646818e+003,2.429517e+001
1.647782e+003,2.264618e+001
1.648747e+003,1.837860e+001
1.649711e+003,1.453680e+001
1.650675e+003,1.388544e+001
1.651639e+003,1.539642e+001
1.652604e+003,1.678778e+001
1.653568e+003,1.784692e+001
1.654532e+003,1.806207e+001
1.655496e+003,1.728204e+001
1.656460e+003,1.606549e+001
1.657425e+003,1.370245e+001
1.658389e+003,1.244275e+001
1.659353e+003,1.461920e+001
1.660317e+003,1.751605e+001
1.661281e+003,1.856635e+001
1.662246e+003,1.754407e+001
1.663210e+003,1.434753e+001
1.664174e+003,9.248413e+000
1.665138e+003,5.558838e+000
1.666103e+003,6.331360e+000
1.667067e+003,9.357849e+000
1.668031e+003,1.030615e+001
1.668995e+003,9.443970e+000
1.669960e+003,9.794312e+000
1.670924e+003,1.217792e+001
1.671888e+003,1.351160e+001
1.672852e+003,1.157513e+001
1.673817e+003,9.810303e+000
1.674781e+003,1.075330e+001
1.675745e+003,1.265582e+001
1.676709e+003,1.387042e+001
1.677674e+003,1.427271e+001
1.678638e+003,1.392188e+001
1.679602e+003,1.285590e+001
1.680566e+003,1.202991e+001
1.681531e+003,1.289484e+001
1.682495e+003,1.396490e+001
1.683459e+003,1.154468e+001
1.684423e+003,6.216797e+000
1.685387e+003,3.367859e+000
1.686352e+003,3.917358e+000
1.687316e+003,4.251587e+000
1.688280e+003,2.962402e+000
1.689244e+003,1.647034e+000
1.690208e+003,9.652100e-001
1.691173e+003,1.065796e+000
1.692137e+003,3.157959e+000
1.693101e+003,6.593811e+000
1.694065e+003,8.383545e+000
1.695030e+003,7.432007e+000
1.695994e+003,5.765564e+000
1.696958e+003,4.663147e+000
1.697922e+003,3.843750e+000
1.698887e+003,3.122375e+000
1.699851e+003,2.453369e+000
1.700815e+003,8.936768e-001
1.701779e+003,-1.723999e+000
1.702744e+003,-2.331055e+000
1.703708e+003,1.006775e+000
1.704672e+003,4.222229e+000
1.705636e+003,3.073853e+000
1.706601e+003,4.676514e-001
1.707565e+003,2.618347e+000
1.708529e+003,7.683777e+000
1.709493e+003,7.980713e+000
1.710458e+003,1.826965e+000
1.711422e+003,-1.926697e+000
1.712386e+003,3.212585e+000
1.713350e+003,9.139221e+000
1.714314e+003,8.661255e+000
1.715279e+003,4.499573e+000
1.716243e+003,5.139771e-001
1.717207e+003,-2.433533e+000
1.718171e+003,-2.002197e+000
1.719135e+003,2.518982e+000
1.720100e+003,5.580078e+000
1.721064e+003,2.812195e+000
1.722028e+003,-1.775513e+000
1.722992e+003,-1.521179e+000
1.723957e+003,2.609436e+000
1.724921e+003,2.481750e+000
1.725885e+003,-3.358459e+000
1.726849e+003,-7.812927e+000
1.727814e+003,-9.144409e+000
1.728778e+003,-8.459778e+000
1.729742e+003,-4.896240e+000
1.730706e+003,-9.866943e-001
1.731671e+003,4.155884e-001
1.732635e+003,-3.088989e-001
1.733599e+003,-1.314026e+000
1.734563e+003,-1.820068e+000
1.735528e+003,-2.040344e+000
1.736492e+003,-2.253906e+000
1.737456e+003,-2.326599e+000
1.738420e+003,-2.014587e+000
1.739385e+003,-1.845520e+000
1.740349e+003,-2.710449e+000
1.741313e+003,-4.484863e+000
1.742277e+003,-6.555115e+000
1.743241e+003,-1.007727e+001
1.744206e+003,-1.150757e+001
1.745170e+003,-9.243042e+000
1.746134e+003,-6.501282e+000
1.747098e+003,-4.512329e+000
1.748063e+003,-3.461182e+000
1.749027e+003,-3.439575e+000
1.749991e+003,-4.281738e+000
1.750955e+003,-6.326538e+000
1.751919e+003,-9.309875e+000
1.752884e+003,-1.113184e+001
1.753848e+003,-1.004498e+001
1.754812e+003,-6.926636e+000
1.755776e+003,-2.876465e+000
1.756741e+003,2.296936e+000
1.757705e+003,4.006042e+000
1.758669e+003,6.469727e-001
1.759633e+003,-2.389709e+000
1.760598e+003,-5.466370e+000
1.761562e+003,-7.391968e+000
1.762526e+003,-6.738098e+000
1.763490e+003,-5.286926e+000
1.764455e+003,-3.561829e+000
1.765419e+003,-2.158752e+000
1.766383e+003,-2.500122e+000
1.767347e+003,-4.406311e+000
1.768312e+003,-5.616638e+000
1.769276e+003,-5.153931e+000
1.770240e+003,-4.442627e+000
1.771204e+003,-4.352112e+000
1.772168e+003,-4.565613e+000
1.773133e+003,-5.456299e+000
1.774097e+003,-6.889038e+000
1.775061e+003,-7.078918e+000
1.776025e+003,-5.965515e+000
1.776990e+003,-5.712402e+000
1.777954e+003,-7.177063e+000
1.778918e+003,-8.104919e+000
1.779882e+003,-6.851685e+000
1.780846e+003,-4.828125e+000
1.781811e+003,-3.190674e+000
1.782775e+003,-2.003113e+000
1.783739e+003,-1.883728e+000
1.784703e+003,-2.871094e+000
1.785668e+003,-4.021851e+000
1.786632e+003,-6.012085e+000
1.787596e+003,-7.520203e+000
1.788560e+003,-6.550049e+000
1.789525e+003,-4.290527e+000
1.790489e+003,-2.403259e+000
1.791453e+003,-1.426941e+000
1.792417e+003,-2.334534e+000
1.793382e+003,-5.042053e+000
1.794346e+003,-7.340393e+000
1.795310e+003,-8.140442e+000
1.796274e+003,-7.838318e+000
1.797239e+003,-6.535828e+000
1.798203e+003,-4.101685e+000
1.799167e+003,-1.250671e+000
1.800131e+003,1.772278e+000
1.801095e+003,1.595703e+000
1.802060e+003,-3.209229e+000
1.803024e+003,-7.159668e+000
1.803988e+003,-1.127313e+001
1.804952e+003,-1.306488e+001
1.805917e+003,-9.447266e+000
1.806881e+003,-4.588928e+000
1.807845e+003,-2.134888e+000
1.808809e+003,-1.786621e+000
1.809773e+003,-2.179321e+000
1.810738e+003,-2.823975e+000
1.811702e+003,-3.831299e+000
1.812666e+003,-5.281860e+000
1.813630e+003,-6.644165e+000
1.814595e+003,-7.353149e+000
1.815559e+003,-7.274353e+000
1.816523e+003,-4.518250e+000
1.817487e+003,1.623291e+000
1.818452e+003,2.762756e+000
1.819416e+003,-3.590393e+000
1.820380e+003,-7.747864e+000
1.821344e+003,-6.340271e+000
1.822309e+003,-3.948120e+000
1.823273e+003,-2.272339e+000
1.824237e+003,-1.213623e+000
1.825201e+003,-1.722595e+000
1.826166e+003,-2.946838e+000
1.827130e+003,-1.874512e+000
1.828094e+003,1.755798e+000
1.829058e+003,3.309387e+000
1.830022e+003,-2.738647e-001
1.830987e+003,-4.083069e+000
1.831951e+003,-3.684326e+000
1.832915e+003,-1.304810e+000
1.833879e+003,5.010376e-001
1.834844e+003,1.299377e+000
1.835808e+003,-6.036377e-001
1.836772e+003,-4.826660e+000
1.837736e+003,-6.005066e+000
1.838700e+003,-1.832214e+000
1.839665e+003,2.097229e+000
1.840629e+003,7.037354e-001
1.841593e+003,-3.736206e+000
1.842557e+003,-6.858826e+000
1.843522e+003,-8.687988e+000
1.844486e+003,-9.791504e+000
1.845450e+003,-9.564331e+000
1.846414e+003,-8.818420e+000
1.847379e+003,-7.002014e+000
1.848343e+003,-6.644897e+000
1.849307e+003,-1.060327e+001
1.850271e+003,-1.364679e+001
1.851236e+003,-1.021790e+001
1.852200e+003,-4.311523e+000
1.853164e+003,-2.448608e+000
1.854128e+003,-4.554321e+000
1.855093e+003,-5.834717e+000
1.856057e+003,-4.296143e+000
1.857021e+003,-2.837036e+000
1.857985e+003,-4.176575e+000
1.858949e+003,-6.728149e+000
1.859914e+003,-7.771301e+000
1.860878e+003,-7.368164e+000
1.861842e+003,-6.377747e+000
1.862806e+003,-4.926208e+000
1.863771e+003,-3.052307e+000
1.864735e+003,-6.402588e-001
1.865699e+003,8.919067e-001
1.866663e+003,9.741211e-001
1.867627e+003,5.715332e-001
1.868592e+003,1.507568e-002
1.869556e+003,-8.317871e-001
1.870520e+003,-1.367737e+000
1.871484e+003,-1.782410e+000
1.872449e+003,-3.486145e+000
1.873413e+003,-6.592957e+000
1.874377e+003,-6.956360e+000
1.875341e+003,-2.885010e+000
1.876306e+003,1.749146e+000
1.877270e+003,6.506836e+000
1.878234e+003,9.150208e+000
1.879198e+003,6.038879e+000
1.880163e+003,1.083984e-001
1.881127e+003,-3.594727e+000
1.882091e+003,-4.276550e+000
1.883055e+003,-3.081970e+000
1.884020e+003,-8.496704e-001
1.884984e+003,6.040039e-001
1.885948e+003,-4.053345e-001
1.886912e+003,-2.413574e+000
1.887876e+003,-2.399109e+000
1.888841e+003,-4.885864e-001
1.889805e+003,1.380981e+000
1.890769e+003,3.363220e+000
1.891733e+003,4.331604e+000
1.892698e+003,3.146423e+000
1.893662e+003,2.850647e+000
1.894626e+003,6.322510e+000
1.895590e+003,8.802979e+000
1.896554e+003,5.249390e+000
1.897519e+003,5.523682e-001
1.898483e+003,1.218933e+000
1.899447e+003,5.290100e+000
1.900411e+003,5.866333e+000
1.901376e+003,1.691711e+000
1.902340e+003,-7.537231e-001
1.903304e+003,2.493896e+000
1.904268e+003,5.481567e+000
1.905233e+003,4.303894e+000
1.906197e+003,1.673157e+000
1.907161e+003,-2.160645e-001
1.908125e+003,-1.034851e+000
1.909090e+003,-7.014771e-001
1.910054e+003,4.292603e-001
1.911018e+003,1.833679e+000
1.911982e+003,3.519958e+000
1.912947e+003,6.148987e+000
1.913911e+003,1.012018e+001
1.914875e+003,1.361139e+001
1.915839e+003,1.343634e+001
1.916803e+003,1.024103e+001
1.917768e+003,8.984070e+000
1.918732e+003,1.043732e+001
1.919696e+003,1.031763e+001
1.920660e+003,7.992371e+000
1.921625e+003,6.387329e+000
1.922589e+003,6.262878e+000
1.923553e+003,6.218628e+000
1.924517e+003,4.671692e+000
1.925481e+003,3.768799e+000
1.926446e+003,6.462036e+000
1.927410e+003,1.080255e+001
1.928374e+003,1.307953e+001
1.929338e+003,1.278741e+001
1.930303e+003,1.051965e+001
1.931267e+003,5.837097e+000
1.932231e+003,2.898071e+000
1.933195e+003,4.565125e+000
1.934160e+003,6.614624e+000
1.935124e+003,5.776123e+000
1.936088e+003,3.534363e+000
1.937052e+003,1.744446e+000
1.938017e+003,7.669067e-001
1.938981e+003,7.511597e-001
1.939945e+003,1.344971e+000
1.940909e+003,1.373413e+000
1.941874e+003,2.882080e-001
1.942838e+003,-1.011108e+000
1.943802e+003,-1.423889e+000
1.944766e+003,-6.373291e-001
1.945730e+003,1.491211e+000
1.946695e+003,4.480225e+000
1.947659e+003,6.471985e+000
1.948623e+003,7.373718e+000
1.949587e+003,7.194153e+000
1.950552e+003,5.869751e+000
1.951516e+003,4.500793e+000
1.952480e+003,3.222656e+000
1.953444e+003,2.414978e+000
1.954408e+003,2.338745e+000
1.955373e+003,2.433899e+000
1.956337e+003,2.335632e+000
1.957301e+003,2.473328e+000
1.958265e+003,3.070496e+000
1.959230e+003,4.226685e+000
1.960194e+003,5.468567e+000
1.961158e+003,5.878235e+000
1.962122e+003,6.442383e+000
1.963087e+003,8.889893e+000
1.964051e+003,9.952026e+000
1.965015e+003,6.330505e+000
1.965979e+003,2.360779e+000
1.966944e+003,2.430237e+000
1.967908e+003,4.878967e+000
1.968872e+003,6.378967e+000
1.969836e+003,6.531067e+000
1.970801e+003,6.828186e+000
1.971765e+003,7.932739e+000
1.972729e+003,9.055237e+000
1.973693e+003,9.555725e+000
1.974657e+003,9.512329e+000
1.975622e+003,8.465393e+000
1.976586e+003,6.917053e+000
1.977550e+003,6.977600e+000
1.978514e+003,8.416809e+000
1.979479e+003,8.686584e+000
1.980443e+003,7.452393e+000
1.981407e+003,7.222900e+000
1.982371e+003,9.107239e+000
1.983335e+003,1.177026e+001
1.984300e+003,1.414667e+001
1.985264e+003,1.575543e+001
1.986228e+003,1.605786e+001
1.987192e+003,1.518500e+001
1.988157e+003,1.379913e+001
1.989121e+003,1.184467e+001
1.990085e+003,1.051050e+001
1.991049e+003,1.084625e+001
1.992014e+003,1.009491e+001
1.992978e+003,5.745789e+000
1.993942e+003,2.857544e+000
1.994906e+003,3.980652e+000
1.995871e+003,6.321167e+000
1.996835e+003,8.963379e+000
1.997799e+003,1.109509e+001
1.998763e+003,1.066028e+001
1.999728e+003,8.300110e+000
