5.003444e+002,3.073091e+001
5.013087e+002,3.114275e+001
5.022729e+002,3.286864e+001
5.032371e+002,3.529001e+001
5.042014e+002,3.584375e+001
5.051656e+002,3.481906e+001
5.061298e+002,3.319739e+001
5.070941e+002,3.173099e+001
5.080583e+002,3.023303e+001
5.090225e+002,2.965887e+001
5.099868e+002,3.112088e+001
5.109510e+002,3.206842e+001
5.119152e+002,3.048515e+001
5.128795e+002,2.606807e+001
5.138437e+002,2.348293e+001
5.148079e+002,2.630745e+001
5.157722e+002,2.951848e+001
5.167364e+002,3.119023e+001
5.177006e+002,3.095421e+001
5.186649e+002,2.972710e+001
5.196291e+002,2.817404e+001
5.205933e+002,2.682327e+001
5.215576e+002,2.583951e+001
5.225218e+002,2.524454e+001
5.234860e+002,2.542874e+001
5.244503e+002,2.739828e+001
5.254145e+002,3.230801e+001
5.263787e+002,3.384842e+001
5.273430e+002,2.990788e+001
5.283072e+002,2.404677e+001
5.292714e+002,2.127016e+001
5.302357e+002,2.332607e+001
5.311999e+002,2.439180e+001
5.321641e+002,2.316743e+001
5.331284e+002,2.162047e+001
5.340926e+002,2.143135e+001
5.350568e+002,2.323752e+001
5.360211e+002,2.484705e+001
5.369853e+002,2.446686e+001
5.379495e+002,2.315771e+001
5.389138e+002,2.121246e+001
5.398780e+002,1.893729e+001
5.408422e+002,1.686519e+001
5.418065e+002,1.688965e+001
5.427707e+002,1.869182e+001
5.437349e+002,2.025897e+001
5.446992e+002,2.109727e+001
5.456634e+002,2.129323e+001
5.466276e+002,2.121504e+001
5.475919e+002,2.095970e+001
5.485561e+002,2.031454e+001
5.495203e+002,1.860408e+001
5.504846e+002,1.660529e+001
5.514488e+002,1.561198e+001
5.524130e+002,1.667722e+001
5.533773e+002,1.766464e+001
5.543415e+002,1.770853e+001
5.553057e+002,1.703363e+001
5.562700e+002,1.554245e+001
5.572342e+002,1.317578e+001
5.581984e+002,1.068309e+001
5.591627e+002,1.015462e+001
5.601269e+002,1.100864e+001
5.610911e+002,1.220815e+001
5.620554e+002,1.325082e+001
5.630196e+002,1.398097e+001
5.639838e+002,1.340730e+001
5.649481e+002,9.512466e+000
5.659123e+002,7.241959e+000
5.668765e+002,8.827881e+000
5.678408e+002,1.288841e+001
5.688050e+002,1.514972e+001
5.697692e+002,1.269908e+001
5.707335e+002,1.044302e+001
5.716977e+002,1.036946e+001
5.726619e+002,1.133575e+001
5.736262e+002,1.159218e+001
5.745904e+002,9.837387e+000
5.755546e+002,7.608017e+000
5.765189e+002,7.275894e+000
5.774831e+002,8.043777e+000
5.784473e+002,8.864746e+000
5.794116e+002,9.082870e+000
5.803758e+002,8.786209e+000
5.813400e+002,7.706863e+000
5.823043e+002,5.195755e+000
5.832685e+002,3.219101e+000
5.842327e+002,2.843155e+000
5.851970e+002,3.904968e+000
5.861612e+002,4.741882e+000
5.871254e+002,4.302475e+000
5.880897e+002,4.417297e+000
5.890539e+002,6.238815e+000
5.900181e+002,8.616455e+000
5.909824e+002,9.515259e+000
5.919466e+002,7.169601e+000
5.929108e+002,4.185272e+000
5.938751e+002,3.381256e+000
5.948393e+002,3.931198e+000
5.958035e+002,4.696808e+000
5.967678e+002,4.853500e+000
5.977320e+002,4.527847e+000
5.986962e+002,4.165802e+000
5.996605e+002,3.585052e+000
6.006247e+002,3.106476e+000
6.015889e+002,2.810318e+000
6.025532e+002,2.729172e+000
6.035174e+002,3.065994e+000
6.044816e+002,4.854584e+000
6.054459e+002,5.970093e+000
6.064101e+002,5.585678e+000
6.073743e+002,4.384583e+000
6.083386e+002,3.671768e+000
6.093028e+002,4.347763e+000
6.102670e+002,5.288956e+000
6.112313e+002,5.379364e+000
6.121955e+002,5.143188e+000
6.131597e+002,5.486023e+000
6.141240e+002,6.986252e+000
6.150882e+002,9.028458e+000
6.160524e+002,8.630020e+000
6.170167e+002,6.308777e+000
6.179809e+002,4.264755e+000
6.189451e+002,3.448257e+000
6.199094e+002,3.643753e+000
6.208736e+002,3.690918e+000
6.218378e+002,3.764816e+000
6.228021e+002,3.745789e+000
6.237663e+002,3.665939e+000
6.247305e+002,3.519653e+000
6.256948e+002,3.133423e+000
6.266590e+002,2.029724e+000
6.276232e+002,1.340729e+000
6.285875e+002,2.021530e+000
6.295517e+002,3.383789e+000
6.305159e+002,4.920898e+000
6.314802e+002,6.244995e+000
6.324444e+002,7.005478e+000
6.334086e+002,5.729294e+000
6.343729e+002,3.223114e+000
6.353371e+002,1.285400e+000
6.363013e+002,5.012054e-001
6.372656e+002,6.725922e-001
6.382298e+002,1.248764e+000
6.391940e+002,3.501419e+000
6.401583e+002,4.227356e+000
6.411225e+002,2.641174e+000
6.420867e+002,1.982269e-001
6.430510e+002,-1.570969e+000
6.440152e+002,-2.365982e+000
6.449794e+002,-2.640350e+000
6.459437e+002,-2.199127e+000
6.469079e+002,-1.742371e+000
6.478721e+002,-1.953979e+000
6.488364e+002,-2.946274e+000
6.498006e+002,-4.016769e+000
6.507648e+002,-3.976151e+000
6.517291e+002,-3.102142e+000
6.526933e+002,-1.693726e+000
6.536575e+002,2.477417e-001
6.546218e+002,2.141785e+000
6.555860e+002,2.882477e+000
6.565502e+002,1.932266e+000
6.575145e+002,6.838379e-001
6.584787e+002,-1.100891e+000
6.594429e+002,-2.930450e+000
6.604072e+002,-4.716721e+000
6.613714e+002,-6.565735e+000
6.623356e+002,-7.137833e+000
6.632999e+002,-4.375626e+000
6.642641e+002,-1.588547e+000
6.652283e+002,-5.800323e-001
6.661926e+002,-1.270721e+000
6.671568e+002,-2.206955e+000
6.681210e+002,-1.624298e+000
6.690853e+002,-2.866974e-001
6.700495e+002,-1.996002e-001
6.710137e+002,-1.322311e+000
6.719780e+002,-2.575439e+000
6.729422e+002,-2.790634e+000
6.739064e+002,-1.719055e+000
6.748707e+002,-1.386887e+000
6.758349e+002,-2.213623e+000
6.767991e+002,-3.113113e+000
6.777634e+002,-3.854584e+000
6.787276e+002,-4.234344e+000
6.796918e+002,-3.525009e+000
6.806561e+002,-7.432556e-002
6.816203e+002,2.743729e+000
6.825845e+002,3.156723e+000
6.835488e+002,2.145248e+000
6.845130e+002,1.504074e+000
6.854772e+002,2.657547e+000
6.864415e+002,4.619888e+000
6.874057e+002,5.036133e+000
6.883699e+002,4.139725e+000
6.893342e+002,2.529541e+000
6.902984e+002,4.923096e-001
6.912626e+002,-1.765503e+000
6.922269e+002,-3.121338e+000
6.931911e+002,-2.619446e+000
6.941553e+002,-2.116959e+000
6.951196e+002,-2.105743e+000
6.960838e+002,-2.277344e+000
6.970480e+002,-1.998596e+000
6.980123e+002,-9.104156e-001
6.989765e+002,2.525940e-001
6.999407e+002,1.718765e+000
7.009050e+002,2.736893e+000
7.018692e+002,2.416779e+000
7.028334e+002,5.953064e-001
7.037977e+002,-1.788040e+000
7.047619e+002,-3.475998e+000
7.057261e+002,-4.315826e+000
7.066904e+002,-3.977829e+000
7.076546e+002,-2.409576e+000
7.086188e+002,-1.996765e-001
7.095831e+002,1.829559e+000
7.105473e+002,4.050629e+000
7.115115e+002,4.283066e+000
7.124758e+002,1.077026e+000
7.134400e+002,-2.326401e+000
7.144042e+002,-3.928391e+000
7.153685e+002,-3.611023e+000
7.163327e+002,-2.976868e+000
7.172969e+002,-2.395737e+000
7.182612e+002,-1.914780e+000
7.192254e+002,-1.582016e+000
7.201896e+002,-1.441177e+000
7.211539e+002,-1.610199e+000
7.221181e+002,-2.236389e+000
7.230823e+002,-2.963776e+000
7.240466e+002,-2.564560e+000
7.250108e+002,-1.258499e+000
7.259750e+002,-5.411530e-001
7.269393e+002,-1.616013e+000
7.279035e+002,-4.203278e+000
7.288677e+002,-4.843704e+000
7.298320e+002,-3.146973e-001
7.307962e+002,2.706314e+000
7.317604e+002,3.073929e+000
7.327247e+002,2.018799e+000
7.336889e+002,1.081268e+000
7.346531e+002,4.573212e-001
7.356174e+002,-2.846069e-001
7.365816e+002,-1.072952e+000
7.375458e+002,-1.807175e+000
7.385101e+002,-2.769104e+000
7.394743e+002,-3.814972e+000
7.404385e+002,-4.087524e+000
7.414028e+002,-1.729584e+000
7.423670e+002,2.065430e+000
7.433312e+002,2.873688e+000
7.442955e+002,3.815155e-001
7.452597e+002,-2.930618e+000
7.462239e+002,-4.445541e+000
7.471882e+002,-3.897659e+000
7.481524e+002,-2.759933e+000
7.491166e+002,-3.302460e-001
7.500809e+002,1.423218e+000
7.510451e+002,1.521484e+000
7.520093e+002,2.843475e-001
7.529736e+002,-1.039047e+000
7.539378e+002,-1.878616e+000
7.549020e+002,-2.289246e+000
7.558663e+002,-2.430298e+000
7.568306e+002,-2.265335e+000
7.577948e+002,-1.730927e+000
7.587590e+002,-8.464813e-001
7.597233e+002,2.178955e-001
7.606875e+002,1.277527e+000
7.616517e+002,2.415726e+000
7.626160e+002,3.590637e+000
7.635802e+002,4.975601e+000
7.645444e+002,6.253784e+000
7.655087e+002,6.622055e+000
7.664729e+002,5.427338e+000
7.674371e+002,4.625259e+000
7.684014e+002,4.797668e+000
7.693656e+002,4.898544e+000
7.703298e+002,3.965439e+000
7.712941e+002,2.062195e+000
7.722583e+002,7.308044e-001
7.732225e+002,2.092148e+000
7.741868e+002,3.479019e+000
7.751510e+002,2.133575e+000
7.761152e+002,-1.014267e+000
7.770795e+002,-3.422989e+000
7.780437e+002,-2.849701e+000
7.790079e+002,2.012177e-001
7.799722e+002,1.687729e+000
7.809364e+002,1.630768e+000
7.819006e+002,1.215088e+000
7.828649e+002,1.016220e+000
7.838291e+002,9.338989e-001
7.847933e+002,2.099609e-001
7.857576e+002,-2.801544e+000
7.867218e+002,-3.851944e+000
7.876860e+002,-3.751221e-001
7.886503e+002,3.988022e+000
7.896145e+002,6.019730e+000
7.905787e+002,4.957794e+000
7.915430e+002,3.244247e+000
7.925072e+002,3.327454e+000
7.934714e+002,4.067642e+000
7.944357e+002,4.590973e+000
7.953999e+002,4.816086e+000
7.963641e+002,4.652435e+000
7.973284e+002,3.885040e+000
7.982926e+002,2.416336e+000
7.992568e+002,2.587524e+000
8.002211e+002,5.356186e+000
8.011853e+002,7.135239e+000
8.021495e+002,6.152298e+000
8.031138e+002,3.425049e+000
8.040780e+002,2.045013e+000
8.050422e+002,2.970932e+000
8.060065e+002,4.339157e+000
8.069707e+002,6.116638e+000
8.079349e+002,7.475967e+000
8.088992e+002,7.262802e+000
8.098634e+002,5.331024e+000
8.108276e+002,3.410675e+000
8.117919e+002,4.380264e+000
8.127561e+002,6.694656e+000
8.137203e+002,7.710098e+000
8.146846e+002,7.258011e+000
8.156488e+002,5.991379e+000
8.166130e+002,4.482437e+000
8.175773e+002,2.475769e+000
8.185415e+002,1.566116e+000
8.195057e+002,2.540588e+000
8.204700e+002,3.178360e+000
8.214342e+002,1.703949e+000
8.223984e+002,-6.510468e-001
8.233627e+002,-1.905365e-001
8.243269e+002,6.260925e+000
8.252911e+002,1.190086e+001
8.262554e+002,1.256062e+001
8.272196e+002,1.077235e+001
8.281838e+002,8.675995e+000
8.291481e+002,7.297211e+000
8.301123e+002,6.657120e+000
8.310765e+002,7.118576e+000
8.320408e+002,8.411118e+000
8.330050e+002,8.050476e+000
8.339692e+002,5.543365e+000
8.349335e+002,2.631546e+000
8.358977e+002,1.085709e+000
8.368619e+002,1.103821e+000
8.378262e+002,1.568726e+000
8.387904e+002,2.804352e+000
8.397546e+002,3.846176e+000
8.407189e+002,4.430557e+000
8.416831e+002,4.693909e+000
8.426473e+002,4.938461e+000
8.436116e+002,5.343765e+000
8.445758e+002,5.642334e+000
8.455400e+002,5.289520e+000
8.465043e+002,4.536392e+000
8.474685e+002,3.716995e+000
8.484327e+002,3.082245e+000
8.493970e+002,2.824036e+000
8.503612e+002,3.113922e+000
8.513254e+002,3.998001e+000
8.522897e+002,4.796204e+000
8.532539e+002,5.591049e+000
8.542181e+002,6.050476e+000
8.551824e+002,5.785187e+000
8.561466e+002,5.084976e+000
8.571108e+002,5.362045e+000
8.580751e+002,7.516602e+000
8.590393e+002,9.229660e+000
8.600035e+002,9.380341e+000
8.609678e+002,9.137665e+000
8.619320e+002,1.019006e+001
8.628962e+002,1.305695e+001
8.638605e+002,1.585980e+001
8.648247e+002,1.500020e+001
8.657889e+002,1.215671e+001
8.667532e+002,1.098488e+001
8.677174e+002,1.196175e+001
8.686816e+002,1.409288e+001
8.696459e+002,1.657370e+001
8.706101e+002,1.978000e+001
8.715743e+002,2.080147e+001
8.725386e+002,1.759084e+001
8.735028e+002,1.505127e+001
8.744670e+002,1.451205e+001
8.754313e+002,1.524371e+001
8.763955e+002,1.593253e+001
8.773597e+002,1.624722e+001
8.783240e+002,1.646696e+001
8.792882e+002,1.623009e+001
8.802524e+002,1.623387e+001
8.812167e+002,1.759653e+001
8.821809e+002,2.019479e+001
8.831451e+002,2.267374e+001
8.841094e+002,2.326646e+001
8.850736e+002,2.210010e+001
8.860378e+002,2.112257e+001
8.870021e+002,2.003987e+001
8.879663e+002,1.970226e+001
8.889305e+002,2.111105e+001
8.898948e+002,2.374757e+001
8.908590e+002,2.506197e+001
8.918232e+002,2.406927e+001
8.927875e+002,2.327420e+001
8.937517e+002,2.353127e+001
8.947159e+002,2.396126e+001
8.956802e+002,2.338792e+001
8.966444e+002,2.171542e+001
8.976086e+002,2.044591e+001
8.985729e+002,2.163612e+001
8.995371e+002,2.400764e+001
9.005013e+002,2.526099e+001
9.014656e+002,2.548972e+001
9.024298e+002,2.519844e+001
9.033940e+002,2.460150e+001
9.043583e+002,2.371315e+001
9.053225e+002,2.348326e+001
9.062867e+002,2.477400e+001
9.072510e+002,2.541808e+001
9.082152e+002,2.511143e+001
9.091794e+002,2.460397e+001
9.101437e+002,2.463699e+001
9.111079e+002,2.531772e+001
9.120721e+002,2.596844e+001
9.130364e+002,2.592856e+001
9.140006e+002,2.573167e+001
9.149648e+002,2.562570e+001
9.159291e+002,2.580882e+001
9.168933e+002,2.661722e+001
9.178575e+002,2.819727e+001
9.188218e+002,2.999686e+001
9.197860e+002,3.016161e+001
9.207502e+002,2.862103e+001
9.217145e+002,2.689705e+001
9.226787e+002,2.480820e+001
9.236429e+002,2.338371e+001
9.246072e+002,2.462201e+001
9.255714e+002,2.941008e+001
9.265356e+002,3.157979e+001
9.274999e+002,2.763530e+001
9.284641e+002,2.353404e+001
9.294283e+002,2.069008e+001
9.303926e+002,1.940218e+001
9.313568e+002,2.016046e+001
9.323210e+002,2.338792e+001
9.332853e+002,2.669621e+001
9.342495e+002,2.533505e+001
9.352137e+002,2.158125e+001
9.361780e+002,1.871422e+001
9.371422e+002,1.756142e+001
9.381064e+002,1.738293e+001
9.390707e+002,1.706856e+001
9.400349e+002,1.637332e+001
9.409991e+002,1.629161e+001
9.419634e+002,1.748645e+001
9.429276e+002,1.829607e+001
9.438918e+002,1.784335e+001
9.448561e+002,1.692909e+001
9.458203e+002,1.708971e+001
9.467845e+002,1.901601e+001
9.477488e+002,2.088475e+001
9.487130e+002,2.129301e+001
9.496772e+002,2.104181e+001
9.506415e+002,2.034210e+001
9.516057e+002,1.949448e+001
9.525699e+002,1.910030e+001
9.535342e+002,1.974416e+001
9.544984e+002,2.121539e+001
9.554626e+002,2.221779e+001
9.564269e+002,2.311102e+001
9.573911e+002,2.323666e+001
9.583553e+002,2.170038e+001
9.593196e+002,1.951184e+001
9.602838e+002,1.833290e+001
9.612480e+002,1.831873e+001
9.622123e+002,1.876001e+001
9.631765e+002,2.015402e+001
9.641407e+002,2.134381e+001
9.651050e+002,2.172826e+001
9.660692e+002,2.137944e+001
9.670334e+002,2.064850e+001
9.679977e+002,1.981996e+001
9.689619e+002,1.902016e+001
9.699261e+002,1.804089e+001
9.708904e+002,1.697658e+001
9.718546e+002,1.645978e+001
9.728188e+002,1.651250e+001
9.737831e+002,1.740028e+001
9.747473e+002,2.004912e+001
9.757115e+002,2.523204e+001
9.766758e+002,2.814276e+001
9.776400e+002,2.722015e+001
9.786042e+002,2.614040e+001
9.795685e+002,2.567555e+001
9.805327e+002,2.537561e+001
9.814969e+002,2.445155e+001
9.824612e+002,2.272064e+001
9.834254e+002,2.134775e+001
9.843896e+002,2.192114e+001
9.853539e+002,2.297447e+001
9.863181e+002,2.276031e+001
9.872823e+002,2.132219e+001
9.882466e+002,1.998038e+001
9.892108e+002,2.001932e+001
9.901750e+002,2.129295e+001
9.911393e+002,2.137775e+001
9.921035e+002,1.838054e+001
9.930677e+002,1.653891e+001
9.940320e+002,1.672336e+001
9.949962e+002,1.783093e+001
9.959604e+002,1.904176e+001
9.969247e+002,2.027802e+001
9.978889e+002,2.144666e+001
9.988531e+002,2.238239e+001
9.998174e+002,2.295157e+001
1.000782e+003,2.275415e+001
1.001746e+003,2.250281e+001
1.002710e+003,2.345145e+001
1.003674e+003,2.594862e+001
1.004639e+003,2.870016e+001
1.005603e+003,2.932622e+001
1.006567e+003,2.753024e+001
1.007531e+003,2.696573e+001
1.008495e+003,2.837100e+001
1.009460e+003,2.952803e+001
1.010424e+003,2.889162e+001
1.011388e+003,2.694626e+001
1.012352e+003,2.552129e+001
1.013317e+003,2.484727e+001
1.014281e+003,2.454576e+001
1.015245e+003,2.477702e+001
1.016209e+003,2.487729e+001
1.017174e+003,2.449307e+001
1.018138e+003,2.355319e+001
1.019102e+003,2.204449e+001
1.020066e+003,1.989983e+001
1.021031e+003,1.756151e+001
1.021995e+003,1.645944e+001
1.022959e+003,1.613840e+001
1.023923e+003,1.456561e+001
1.024887e+003,1.048581e+001
1.025852e+003,5.828400e+000
1.026816e+003,4.067596e+000
1.027780e+003,6.204971e+000
1.028744e+003,6.966614e+000
1.029709e+003,3.734985e+000
1.030673e+003,1.649033e+000
1.031637e+003,3.280899e+000
1.032601e+003,6.472198e+000
1.033566e+003,8.209152e+000
1.034530e+003,7.473724e+000
1.035494e+003,5.644440e+000
1.036458e+003,3.533768e+000
1.037422e+003,1.649048e+000
1.038387e+003,9.707184e-001
1.039351e+003,1.413895e+000
1.040315e+003,2.281754e+000
1.041279e+003,3.191803e+000
1.042244e+003,4.086334e+000
1.043208e+003,4.372498e+000
1.044172e+003,3.280914e+000
1.045136e+003,2.643204e+000
1.046101e+003,2.567078e+000
1.047065e+003,2.958298e+000
1.048029e+003,4.046509e+000
1.048993e+003,5.531876e+000
1.049958e+003,6.661575e+000
1.050922e+003,7.309814e+000
1.051886e+003,7.108887e+000
1.052850e+003,4.631454e+000
1.053814e+003,1.614090e+000
1.054779e+003,5.851898e-001
1.055743e+003,1.920776e+000
1.056707e+003,3.952896e+000
1.057671e+003,4.689285e+000
1.058636e+003,4.095078e+000
1.059600e+003,3.651245e+000
1.060564e+003,3.426788e+000
1.061528e+003,3.550797e+000
1.062493e+003,4.074738e+000
1.063457e+003,4.700714e+000
1.064421e+003,5.320190e+000
1.065385e+003,5.951294e+000
1.066349e+003,6.153671e+000
1.067314e+003,5.386673e+000
1.068278e+003,4.491898e+000
1.069242e+003,4.026566e+000
1.070206e+003,3.922760e+000
1.071171e+003,4.198853e+000
1.072135e+003,4.695694e+000
1.073099e+003,4.710464e+000
1.074063e+003,3.041183e+000
1.075028e+003,-5.471802e-001
1.075992e+003,-1.862427e+000
1.076956e+003,1.757202e-001
1.077920e+003,2.014526e+000
1.078885e+003,2.244400e+000
1.079849e+003,1.642441e+000
1.080813e+003,1.526947e+000
1.081777e+003,2.123322e+000
1.082741e+003,3.013977e+000
1.083706e+003,4.281433e+000
1.084670e+003,5.278259e+000
1.085634e+003,5.425079e+000
1.086598e+003,5.049454e+000
1.087563e+003,4.798233e+000
1.088527e+003,5.100677e+000
1.089491e+003,5.997604e+000
1.090455e+003,7.609497e+000
1.091420e+003,9.945755e+000
1.092384e+003,9.859497e+000
1.093348e+003,5.889053e+000
1.094312e+003,2.024933e+000
1.095276e+003,1.133286e+000
1.096241e+003,2.254349e+000
1.097205e+003,2.055542e+000
1.098169e+003,-6.428528e-001
1.099133e+003,-2.606339e+000
1.100098e+003,-1.930023e+000
1.101062e+003,-7.378998e-001
1.102026e+003,-5.065460e-001
1.102990e+003,-8.575745e-001
1.103955e+003,-3.496704e-001
1.104919e+003,1.841537e+000
1.105883e+003,4.469070e+000
1.106847e+003,4.751038e+000
1.107812e+003,2.613419e+000
1.108776e+003,1.297714e+000
1.109740e+003,9.176025e-001
1.110704e+003,1.405289e+000
1.111668e+003,3.423218e+000
1.112633e+003,6.523972e+000
1.113597e+003,8.236664e+000
1.114561e+003,7.546112e+000
1.115525e+003,7.045685e+000
1.116490e+003,8.126053e+000
1.117454e+003,9.066406e+000
1.118418e+003,8.419968e+000
1.119382e+003,6.812683e+000
1.120347e+003,5.954269e+000
1.121311e+003,6.790436e+000
1.122275e+003,8.301727e+000
1.123239e+003,8.769669e+000
1.124203e+003,8.401016e+000
1.125168e+003,8.064774e+000
1.126132e+003,7.803284e+000
1.127096e+003,7.722748e+000
1.128060e+003,7.615524e+000
1.129025e+003,7.611938e+000
1.129989e+003,8.801666e+000
1.130953e+003,1.230330e+001
1.131917e+003,1.441243e+001
1.132882e+003,1.305666e+001
1.133846e+003,1.139214e+001
1.134810e+003,1.145338e+001
1.135774e+003,1.284801e+001
1.136739e+003,1.398914e+001
1.137703e+003,1.398410e+001
1.138667e+003,1.372485e+001
1.139631e+003,1.478940e+001
1.140595e+003,1.712613e+001
1.141560e+003,1.994600e+001
1.142524e+003,2.339241e+001
1.143488e+003,2.705913e+001
1.144452e+003,3.045276e+001
1.145417e+003,3.379477e+001
1.146381e+003,3.803065e+001
1.147345e+003,4.361472e+001
1.148309e+003,4.880096e+001
1.149274e+003,5.245779e+001
1.150238e+003,5.647858e+001
1.151202e+003,6.198917e+001
1.152166e+003,6.869812e+001
1.153130e+003,7.630321e+001
1.154095e+003,8.436342e+001
1.155059e+003,9.124895e+001
1.156023e+003,9.470692e+001
1.156987e+003,9.492839e+001
1.157952e+003,9.464772e+001
1.158916e+003,9.427864e+001
1.159880e+003,9.263077e+001
1.160844e+003,8.878619e+001
1.161809e+003,8.287292e+001
1.162773e+003,7.495837e+001
1.163737e+003,6.417993e+001
1.164701e+003,5.541721e+001
1.165666e+003,5.197443e+001
1.166630e+003,4.883795e+001
1.167594e+003,4.393301e+001
1.168558e+003,3.827600e+001
1.169522e+003,3.292555e+001
1.170487e+003,2.854594e+001
1.171451e+003,2.631094e+001
1.172415e+003,2.795779e+001
1.173379e+003,3.228719e+001
1.174344e+003,3.266336e+001
1.175308e+003,2.896625e+001
1.176272e+003,2.597375e+001
1.177236e+003,2.561281e+001
1.178201e+003,2.647575e+001
1.179165e+003,2.706036e+001
1.180129e+003,2.729233e+001
1.181093e+003,2.604881e+001
1.182057e+003,2.144423e+001
1.183022e+003,1.796608e+001
1.183986e+003,1.781836e+001
1.184950e+003,1.905315e+001
1.185914e+003,2.030946e+001
1.186879e+003,2.105649e+001
1.187843e+003,2.077258e+001
1.188807e+003,1.893924e+001
1.189771e+003,1.653705e+001
1.190736e+003,1.705156e+001
1.191700e+003,2.091367e+001
1.192664e+003,2.296671e+001
1.193628e+003,2.168921e+001
1.194593e+003,2.009518e+001
1.195557e+003,2.076352e+001
1.196521e+003,2.283466e+001
1.197485e+003,2.318451e+001
1.198449e+003,2.091705e+001
1.199414e+003,1.837000e+001
1.200378e+003,1.623079e+001
1.201342e+003,1.451573e+001
1.202306e+003,1.306599e+001
1.203271e+003,1.203636e+001
1.204235e+003,1.226482e+001
1.205199e+003,1.394234e+001
1.206163e+003,1.520744e+001
1.207128e+003,1.257477e+001
1.208092e+003,5.718536e+000
1.209056e+003,3.645233e+000
1.210020e+003,9.119492e+000
1.210984e+003,1.299930e+001
1.211949e+003,1.193837e+001
1.212913e+003,8.314651e+000
1.213877e+003,4.755249e+000
1.214841e+003,1.555603e+000
1.215806e+003,-9.060822e-001
1.216770e+003,-2.766571e+000
1.217734e+003,-3.343903e+000
1.218698e+003,-9.420166e-001
1.219663e+003,1.953796e+000
1.220627e+003,1.776154e+000
1.221591e+003,-1.613556e+000
1.222555e+003,-5.113205e+000
1.223520e+003,-5.799911e+000
1.224484e+003,-4.397217e+000
1.225448e+003,-4.645676e+000
1.226412e+003,-8.071671e+000
1.227376e+003,-9.725220e+000
1.228341e+003,-7.996887e+000
1.229305e+003,-6.445328e+000
1.230269e+003,-7.349533e+000
1.231233e+003,-9.712921e+000
1.232198e+003,-1.141579e+001
1.233162e+003,-1.186931e+001
1.234126e+003,-1.166182e+001
1.235090e+003,-1.084981e+001
1.236055e+003,-1.006055e+001
1.237019e+003,-1.001016e+001
1.237983e+003,-1.053899e+001
1.238947e+003,-1.116248e+001
1.239911e+003,-1.161951e+001
1.240876e+003,-1.178642e+001
1.241840e+003,-1.143422e+001
1.242804e+003,-1.048665e+001
1.243768e+003,-1.029047e+001
1.244733e+003,-1.226682e+001
1.245697e+003,-1.305428e+001
1.246661e+003,-1.186479e+001
1.247625e+003,-1.009558e+001
1.248590e+003,-8.374222e+000
1.249554e+003,-6.892838e+000
1.250518e+003,-5.990189e+000
1.251482e+003,-5.907059e+000
1.252447e+003,-6.149994e+000
1.253411e+003,-5.964401e+000
1.254375e+003,-5.608932e+000
1.255339e+003,-5.879349e+000
1.256303e+003,-6.717926e+000
1.257268e+003,-7.226715e+000
1.258232e+003,-6.964310e+000
1.259196e+003,-6.240555e+000
1.260160e+003,-5.392426e+000
1.261125e+003,-4.240067e+000
1.262089e+003,-3.521240e+000
1.263053e+003,-4.512390e+000
1.264017e+003,-4.608200e+000
1.264982e+003,-1.606216e+000
1.265946e+003,1.468323e+000
1.266910e+003,1.062119e+000
1.267874e+003,-2.249039e+000
1.268839e+003,-4.755417e+000
1.269803e+003,-3.979828e+000
1.270767e+003,-1.576324e+000
1.271731e+003,-6.896362e-001
1.272695e+003,-1.244614e+000
1.273660e+003,-1.339905e+000
1.274624e+003,-8.168945e-001
1.275588e+003,-6.053314e-001
1.276552e+003,-1.189301e+000
1.277517e+003,-2.229126e+000
1.278481e+003,-3.368439e+000
1.279445e+003,-4.666901e+000
1.280409e+003,-5.446289e+000
1.281374e+003,-5.150024e+000
1.282338e+003,-4.672958e+000
1.283302e+003,-4.005234e+000
1.284266e+003,-3.735489e+000
1.285230e+003,-4.978409e+000
1.286195e+003,-7.475357e+000
1.287159e+003,-9.531906e+000
1.288123e+003,-9.702454e+000
1.289087e+003,-8.566483e+000
1.290052e+003,-8.113647e+000
1.291016e+003,-8.769531e+000
1.291980e+003,-8.849777e+000
1.292944e+003,-7.990448e+000
1.293909e+003,-7.269043e+000
1.294873e+003,-7.112183e+000
1.295837e+003,-7.159027e+000
1.296801e+003,-6.861481e+000
1.297766e+003,-6.188965e+000
1.298730e+003,-5.784622e+000
1.299694e+003,-6.135117e+000
1.300658e+003,-6.771713e+000
1.301622e+003,-7.277374e+000
1.302587e+003,-7.570389e+000
1.303551e+003,-7.381592e+000
1.304515e+003,-6.701904e+000
1.305479e+003,-6.178024e+000
1.306444e+003,-6.421341e+000
1.307408e+003,-7.240036e+000
1.308372e+003,-7.946716e+000
1.309336e+003,-8.838287e+000
1.310301e+003,-8.682526e+000
1.311265e+003,-5.200150e+000
1.312229e+003,-3.320969e+000
1.313193e+003,-6.629227e+000
1.314157e+003,-1.088208e+001
1.315122e+003,-1.082478e+001
1.316086e+003,-6.705414e+000
1.317050e+003,-3.346481e+000
1.318014e+003,-3.899841e+000
1.318979e+003,-6.439423e+000
1.319943e+003,-7.818237e+000
1.320907e+003,-8.059296e+000
1.321871e+003,-8.146103e+000
1.322836e+003,-8.339737e+000
1.323800e+003,-8.070862e+000
1.324764e+003,-6.368774e+000
1.325728e+003,-4.314987e+000
1.326693e+003,-4.011154e+000
1.327657e+003,-5.599716e+000
1.328621e+003,-7.091156e+000
1.329585e+003,-8.033401e+000
1.330549e+003,-8.070679e+000
1.331514e+003,-6.635483e+000
1.332478e+003,-5.098694e+000
1.333442e+003,-4.771515e+000
1.334406e+003,-5.508179e+000
1.335371e+003,-6.488739e+000
1.336335e+003,-7.181946e+000
1.337299e+003,-7.346100e+000
1.338263e+003,-6.437241e+000
1.339228e+003,-4.173203e+000
1.340192e+003,-3.487305e+000
1.341156e+003,-6.427963e+000
1.342120e+003,-7.842148e+000
1.343084e+003,-5.671509e+000
1.344049e+003,-3.094666e+000
1.345013e+003,-2.689926e+000
1.345977e+003,-4.031952e+000
1.346941e+003,-5.443207e+000
1.347906e+003,-6.368668e+000
1.348870e+003,-6.759842e+000
1.349834e+003,-6.374741e+000
1.350798e+003,-5.649231e+000
1.351763e+003,-5.184250e+000
1.352727e+003,-4.993546e+000
1.353691e+003,-5.343430e+000
1.354655e+003,-6.424622e+000
1.355620e+003,-7.696671e+000
1.356584e+003,-8.763092e+000
1.357548e+003,-9.510330e+000
1.358512e+003,-8.958069e+000
1.359476e+003,-6.311523e+000
1.360441e+003,-4.724731e+000
1.361405e+003,-5.974030e+000
1.362369e+003,-7.268478e+000
1.363333e+003,-6.968079e+000
1.364298e+003,-5.975296e+000
1.365262e+003,-5.793884e+000
1.366226e+003,-6.679688e+000
1.367190e+003,-7.588104e+000
1.368155e+003,-7.581131e+000
1.369119e+003,-7.001770e+000
1.370083e+003,-6.928757e+000
1.371047e+003,-7.530655e+000
1.372011e+003,-7.665436e+000
1.372976e+003,-6.770752e+000
1.373940e+003,-6.391800e+000
1.374904e+003,-7.703583e+000
1.375868e+003,-9.357651e+000
1.376833e+003,-9.678162e+000
1.377797e+003,-8.624573e+000
1.378761e+003,-7.027405e+000
1.379725e+003,-4.973480e+000
1.380690e+003,-3.222397e+000
1.381654e+003,-2.985992e+000
1.382618e+003,-3.293137e+000
1.383582e+003,-2.466629e+000
1.384547e+003,-6.915588e-001
1.385511e+003,-3.598022e-002
1.386475e+003,-1.808609e+000
1.387439e+003,-4.419281e+000
1.388403e+003,-5.378983e+000
1.389368e+003,-4.702621e+000
1.390332e+003,-4.061798e+000
1.391296e+003,-3.325302e+000
1.392260e+003,-2.845093e+000
1.393225e+003,-2.886215e+000
1.394189e+003,-3.020905e+000
1.395153e+003,-3.013763e+000
1.396117e+003,-2.929520e+000
1.397082e+003,-3.034729e+000
1.398046e+003,-3.264954e+000
1.399010e+003,-2.969635e+000
1.399974e+003,-1.573044e+000
1.400938e+003,1.828308e-001
1.401903e+003,1.708984e-001
1.402867e+003,-2.071121e+000
1.403831e+003,-2.682312e+000
1.404795e+003,-5.538330e-001
1.405760e+003,1.359528e+000
1.406724e+003,2.045700e+000
1.407688e+003,1.636749e+000
1.408652e+003,-1.304626e-002
1.409617e+003,-2.395142e+000
1.410581e+003,-3.794373e+000
1.411545e+003,-3.452850e+000
1.412509e+003,-2.441513e+000
1.413474e+003,-1.532272e+000
1.414438e+003,-9.503479e-001
1.415402e+003,-8.815002e-001
1.416366e+003,-1.195862e+000
1.417330e+003,-1.721756e+000
1.418295e+003,-2.505280e+000
1.419259e+003,-3.043289e+000
1.420223e+003,-2.573090e+000
1.421187e+003,-1.374451e+000
1.422152e+003,-8.168945e-001
1.423116e+003,-9.340210e-001
1.424080e+003,-1.286896e+000
1.425044e+003,-2.734711e+000
1.426009e+003,-3.526093e+000
1.426973e+003,-2.145721e+000
1.427937e+003,-1.768799e-001
1.428901e+003,2.874756e-001
1.429865e+003,-6.552124e-001
1.430830e+003,-1.118973e+000
1.431794e+003,7.209778e-002
1.432758e+003,1.710037e+000
1.433722e+003,1.440628e+000
1.434687e+003,-8.305664e-001
1.435651e+003,-1.696716e+000
1.436615e+003,-8.304443e-001
1.437579e+003,2.313690e-001
1.438544e+003,1.756927e+000
1.439508e+003,3.131775e+000
1.440472e+003,4.040527e+000
1.441436e+003,4.606339e+000
1.442401e+003,5.132156e+000
1.443365e+003,5.603760e+000
1.444329e+003,5.364456e+000
1.445293e+003,3.792923e+000
1.446257e+003,1.751038e+000
1.447222e+003,6.803589e-001
1.448186e+003,5.101929e-001
1.449150e+003,1.223465e+000
1.450114e+003,3.043411e+000
1.451079e+003,4.685120e+000
1.452043e+003,5.956573e+000
1.453007e+003,6.509964e+000
1.453971e+003,5.304855e+000
1.454936e+003,2.599426e+000
1.455900e+003,6.368408e-001
1.456864e+003,-4.229736e-002
1.457828e+003,-1.342773e-002
1.458792e+003,7.871246e-001
1.459757e+003,1.694595e+000
1.460721e+003,2.295547e+000
1.461685e+003,2.553207e+000
1.462649e+003,2.544937e+000
1.463614e+003,2.308411e+000
1.464578e+003,1.582123e+000
1.465542e+003,-3.535461e-002
1.466506e+003,-2.123840e+000
1.467471e+003,-3.321533e+000
1.468435e+003,-3.417648e+000
1.469399e+003,-3.093140e+000
1.470363e+003,-2.281647e+000
1.471328e+003,-1.421677e+000
1.472292e+003,-4.673157e-001
1.473256e+003,1.611481e-001
1.474220e+003,-2.223206e-002
1.475184e+003,-4.584045e-001
1.476149e+003,-1.846313e-001
1.477113e+003,9.958496e-001
1.478077e+003,2.486252e+000
1.479041e+003,3.809830e+000
1.480006e+003,4.961075e+000
1.480970e+003,5.680923e+000
1.481934e+003,5.909943e+000
1.482898e+003,5.352219e+000
1.483863e+003,2.557617e+000
1.484827e+003,1.050827e+000
1.485791e+003,2.849869e+000
1.486755e+003,5.555466e+000
1.487719e+003,7.001541e+000
1.488684e+003,7.323502e+000
1.489648e+003,7.602509e+000
1.490612e+003,8.244919e+000
1.491576e+003,8.928391e+000
1.492541e+003,9.270477e+000
1.493505e+003,9.547791e+000
1.494469e+003,1.057300e+001
1.495433e+003,1.207373e+001
1.496398e+003,1.298816e+001
1.497362e+003,1.311472e+001
1.498326e+003,1.349173e+001
1.499290e+003,1.460162e+001
1.500255e+003,1.626212e+001
1.501219e+003,1.828087e+001
1.502183e+003,2.058568e+001
1.503147e+003,2.307008e+001
1.504111e+003,2.578232e+001
1.505076e+003,2.823170e+001
1.506040e+003,2.934708e+001
1.507004e+003,3.101332e+001
1.507968e+003,3.516455e+001
1.508933e+003,4.113673e+001
1.509897e+003,4.786926e+001
1.510861e+003,5.522459e+001
1.511825e+003,6.253833e+001
1.512790e+003,6.920273e+001
1.513754e+003,7.545551e+001
1.514718e+003,8.189188e+001
1.515682e+003,8.841022e+001
1.516646e+003,9.497452e+001
1.517611e+003,1.019924e+002
1.518575e+003,1.084031e+002
1.519539e+003,1.135660e+002
1.520503e+003,1.185815e+002
1.521468e+003,1.247405e+002
1.522432e+003,1.306347e+002
1.523396e+003,1.345057e+002
1.524360e+003,1.359857e+002
1.525325e+003,1.356506e+002
1.526289e+003,1.339060e+002
1.527253e+003,1.307429e+002
1.528217e+003,1.259269e+002
1.529182e+003,1.195255e+002
1.530146e+003,1.136680e+002
1.531110e+003,1.098816e+002
1.532074e+003,1.034689e+002
1.533039e+003,9.202200e+001
1.534003e+003,8.014395e+001
1.534967e+003,6.946500e+001
1.535931e+003,6.015393e+001
1.536896e+003,5.240723e+001
1.537860e+003,4.596628e+001
1.538824e+003,4.001556e+001
1.539788e+003,3.409732e+001
1.540752e+003,2.870277e+001
1.541717e+003,2.454362e+001
1.542681e+003,2.156726e+001
1.543645e+003,1.893576e+001
1.544609e+003,1.675694e+001
1.545573e+003,1.503456e+001
1.546538e+003,1.352438e+001
1.547502e+003,1.244987e+001
1.548466e+003,1.238957e+001
1.549430e+003,1.268123e+001
1.550395e+003,1.249673e+001
1.551359e+003,1.192006e+001
1.552323e+003,1.167796e+001
1.553287e+003,1.199754e+001
1.554252e+003,1.205345e+001
1.555216e+003,1.101768e+001
1.556180e+003,9.466293e+000
1.557144e+003,8.822189e+000
1.558109e+003,9.167999e+000
1.559073e+003,9.198502e+000
1.560037e+003,8.556396e+000
1.561001e+003,7.940567e+000
1.561966e+003,8.175583e+000
1.562930e+003,8.277222e+000
1.563894e+003,6.701706e+000
1.564858e+003,4.274872e+000
1.565823e+003,3.309769e+000
1.566787e+003,4.166962e+000
1.567751e+003,5.009888e+000
1.568715e+003,4.795715e+000
1.569679e+003,4.358398e+000
1.570644e+003,4.832031e+000
1.571608e+003,5.752747e+000
1.572572e+003,5.827652e+000
1.573536e+003,5.062897e+000
1.574500e+003,4.850784e+000
1.575465e+003,5.845367e+000
1.576429e+003,7.115753e+000
1.577393e+003,8.070251e+000
1.578357e+003,8.634155e+000
1.579322e+003,8.737610e+000
1.580286e+003,8.412399e+000
1.581250e+003,7.525543e+000
1.582214e+003,5.708054e+000
1.583179e+003,4.560959e+000
1.584143e+003,5.774963e+000
1.585107e+003,7.744446e+000
1.586071e+003,8.370377e+000
1.587036e+003,8.138168e+000
1.588000e+003,8.195953e+000
1.588964e+003,8.720123e+000
1.589928e+003,9.328079e+000
1.590893e+003,9.805313e+000
1.591857e+003,1.022707e+001
1.592821e+003,1.079985e+001
1.593785e+003,1.146548e+001
1.594750e+003,1.180672e+001
1.595714e+003,1.174469e+001
1.596678e+003,1.110330e+001
1.597642e+003,9.050400e+000
1.598606e+003,7.568771e+000
1.599571e+003,8.835068e+000
1.600535e+003,1.126677e+001
1.601499e+003,1.297501e+001
1.602463e+003,1.379329e+001
1.603427e+003,1.409952e+001
1.604392e+003,1.403398e+001
1.605356e+003,1.370270e+001
1.606320e+003,1.296056e+001
1.607284e+003,1.212640e+001
1.608249e+003,1.233264e+001
1.609213e+003,1.363544e+001
1.610177e+003,1.407347e+001
1.611141e+003,1.283815e+001
1.612106e+003,1.195103e+001
1.613070e+003,1.308328e+001
1.614034e+003,1.425293e+001
1.614998e+003,1.401697e+001
1.615963e+003,1.283665e+001
1.616927e+003,1.107658e+001
1.617891e+003,9.087006e+000
1.618855e+003,8.377426e+000
1.619820e+003,9.955933e+000
1.620784e+003,1.230460e+001
1.621748e+003,1.352716e+001
1.622712e+003,1.390321e+001
1.623677e+003,1.436005e+001
1.624641e+003,1.510660e+001
1.625605e+003,1.470029e+001
1.626569e+003,1.144629e+001
1.627533e+003,8.787811e+000
1.628498e+003,8.693710e+000
1.629462e+003,9.815964e+000
1.630426e+003,1.191957e+001
1.631390e+003,1.403732e+001
1.632354e+003,1.402298e+001
1.633319e+003,1.160579e+001
1.634283e+003,9.389420e+000
1.635247e+003,9.366669e+000
1.636211e+003,1.035886e+001
1.637176e+003,1.004721e+001
1.638140e+003,8.639557e+000
1.639104e+003,8.811646e+000
1.640068e+003,1.104660e+001
1.641033e+003,1.314796e+001
1.641997e+003,1.530602e+001
1.642961e+003,1.626346e+001
1.643925e+003,1.475125e+001
1.644890e+003,1.238995e+001
1.645854e+003,1.016969e+001
1.646818e+003,8.556717e+000
1.647782e+003,8.568359e+000
1.648747e+003,1.036186e+001
1.649711e+003,1.211327e+001
1.650675e+003,1.240991e+001
1.651639e+003,1.172418e+001
1.652604e+003,1.061639e+001
1.653568e+003,9.069138e+000
1.654532e+003,8.334091e+000
1.655496e+003,8.597672e+000
1.656460e+003,9.262558e+000
1.657425e+003,1.048709e+001
1.658389e+003,1.173103e+001
1.659353e+003,1.275648e+001
1.660317e+003,1.360400e+001
1.661281e+003,1.450676e+001
1.662246e+003,1.522229e+001
1.663210e+003,1.516641e+001
1.664174e+003,1.418300e+001
1.665138e+003,1.243806e+001
1.666103e+003,9.638428e+000
1.667067e+003,6.717377e+000
1.668031e+003,5.828308e+000
1.668995e+003,6.855301e+000
1.669960e+003,7.738174e+000
1.670924e+003,8.416153e+000
1.671888e+003,8.692871e+000
1.672852e+003,8.076447e+000
1.673817e+003,7.554535e+000
1.674781e+003,7.847702e+000
1.675745e+003,8.462509e+000
1.676709e+003,8.983063e+000
1.677674e+003,9.323608e+000
1.678638e+003,9.432541e+000
1.679602e+003,9.293289e+000
1.680566e+003,8.808548e+000
1.681531e+003,7.824036e+000
1.682495e+003,6.689499e+000
1.683459e+003,5.857239e+000
1.684423e+003,5.253128e+000
1.685387e+003,4.720367e+000
1.686352e+003,4.230652e+000
1.687316e+003,4.317322e+000
1.688280e+003,5.594711e+000
1.689244e+003,6.639191e+000
1.690208e+003,5.847351e+000
1.691173e+003,4.582443e+000
1.692137e+003,4.596832e+000
1.693101e+003,5.544479e+000
1.694065e+003,5.735046e+000
1.695030e+003,4.635025e+000
1.695994e+003,3.800217e+000
1.696958e+003,4.551926e+000
1.697922e+003,5.721420e+000
1.698887e+003,5.782425e+000
1.699851e+003,5.101959e+000
1.700815e+003,4.669952e+000
1.701779e+003,4.529587e+000
1.702744e+003,4.577927e+000
1.703708e+003,5.013107e+000
1.704672e+003,5.129776e+000
1.705636e+003,3.836716e+000
1.706601e+003,2.258087e+000
1.707565e+003,2.645538e+000
1.708529e+003,4.336060e+000
1.709493e+003,5.051712e+000
1.710458e+003,4.500443e+000
1.711422e+003,3.135773e+000
1.712386e+003,-7.395935e-002
1.713350e+003,-2.420639e+000
1.714314e+003,-1.020691e+000
1.715279e+003,2.056244e+000
1.716243e+003,3.563385e+000
1.717207e+003,3.457062e+000
1.718171e+003,2.886078e+000
1.719135e+003,2.193176e+000
1.720100e+003,1.642838e+000
1.721064e+003,1.377701e+000
1.722028e+003,1.295898e+000
1.722992e+003,1.328735e+000
1.723957e+003,1.595108e+000
1.724921e+003,2.365082e+000
1.725885e+003,3.749847e+000
1.726849e+003,3.921021e+000
1.727814e+003,1.754807e+000
1.728778e+003,-1.653748e-001
1.729742e+003,-7.976532e-001
1.730706e+003,-7.081604e-001
1.731671e+003,-2.033081e-001
1.732635e+003,3.009033e-001
1.733599e+003,3.588409e-001
1.734563e+003,-3.482056e-002
1.735528e+003,-1.000229e+000
1.736492e+003,-2.637115e+000
1.737456e+003,-3.710022e+000
1.738420e+003,-2.628250e+000
1.739385e+003,-1.440277e-001
1.740349e+003,1.285599e+000
1.741313e+003,1.659592e+000
1.742277e+003,1.318939e+000
1.743241e+003,-4.246368e-001
1.744206e+003,-1.596375e+000
1.745170e+003,-1.540268e+000
1.746134e+003,-1.433563e+000
1.747098e+003,-1.807251e+000
1.748063e+003,-2.582687e+000
1.749027e+003,-4.247742e+000
1.749991e+003,-6.027832e+000
1.750955e+003,-5.904510e+000
1.751919e+003,-3.486328e+000
1.752884e+003,-7.532959e-001
1.753848e+003,6.688538e-001
1.754812e+003,9.578857e-001
1.755776e+003,4.398651e-001
1.756741e+003,-7.761688e-001
1.757705e+003,-1.971909e+000
1.758669e+003,-3.450317e+000
1.759633e+003,-4.234390e+000
1.760598e+003,-3.935745e+000
1.761562e+003,-3.467331e+000
1.762526e+003,-2.579178e+000
1.763490e+003,-1.969574e+000
1.764455e+003,-2.490479e+000
1.765419e+003,-3.403015e+000
1.766383e+003,-3.547089e+000
1.767347e+003,-2.917465e+000
1.768312e+003,-2.245895e+000
1.769276e+003,-1.895554e+000
1.770240e+003,-1.901550e+000
1.771204e+003,-2.219849e+000
1.772168e+003,-2.711060e+000
1.773133e+003,-3.587662e+000
1.774097e+003,-4.700943e+000
1.775061e+003,-4.069519e+000
1.776025e+003,-1.191772e+000
1.776990e+003,1.919861e-001
1.777954e+003,-1.845215e+000
1.778918e+003,-3.763123e+000
1.779882e+003,-2.427811e+000
1.780846e+003,-1.941223e-001
1.781811e+003,-5.704041e-001
1.782775e+003,-2.624664e+000
1.783739e+003,-3.208755e+000
1.784703e+003,-1.743149e+000
1.785668e+003,-1.117096e-001
1.786632e+003,1.048752e+000
1.787596e+003,1.723206e+000
1.788560e+003,1.995743e+000
1.789525e+003,1.963364e+000
1.790489e+003,1.483047e+000
1.791453e+003,6.668243e-001
1.792417e+003,-1.686096e-001
1.793382e+003,-8.839417e-001
1.794346e+003,-1.006195e+000
1.795310e+003,-2.468872e-001
1.796274e+003,5.324402e-001
1.797239e+003,3.981781e-001
1.798203e+003,-3.229065e-001
1.799167e+003,-1.025146e+000
1.800131e+003,-2.000092e+000
1.801095e+003,-2.348175e+000
1.802060e+003,-1.070816e+000
1.803024e+003,-4.512024e-001
1.803988e+003,-1.704071e+000
1.804952e+003,-2.563721e+000
1.805917e+003,-1.198532e+000
1.806881e+003,4.240723e-001
1.807845e+003,1.326294e-001
1.808809e+003,-1.410797e+000
1.809773e+003,-2.648758e+000
1.810738e+003,-3.092194e+000
1.811702e+003,-2.926529e+000
1.812666e+003,-2.287369e+000
1.813630e+003,-1.264145e+000
1.814595e+003,1.794586e-001
1.815559e+003,1.678772e+000
1.816523e+003,1.665268e+000
1.817487e+003,6.271362e-003
1.818452e+003,-1.440109e+000
1.819416e+003,-2.629410e+000
1.820380e+003,-3.215195e+000
1.821344e+003,-3.092026e+000
1.822309e+003,-2.547318e+000
1.823273e+003,-1.214493e+000
1.824237e+003,1.561584e-001
1.825201e+003,8.675232e-001
1.826166e+003,8.686523e-001
1.827130e+003,-2.171326e-001
1.828094e+003,-2.401962e+000
1.829058e+003,-3.335678e+000
1.830022e+003,-1.231598e+000
1.830987e+003,1.162674e+000
1.831951e+003,1.592331e+000
1.832915e+003,9.234161e-001
1.833879e+003,1.479034e-001
1.834844e+003,-5.933533e-001
1.835808e+003,-1.142532e+000
1.836772e+003,-1.442322e+000
1.837736e+003,-1.280762e+000
1.838700e+003,-5.802307e-001
1.839665e+003,-2.468567e-001
1.840629e+003,-1.265533e+000
1.841593e+003,-2.553253e+000
1.842557e+003,-1.707428e+000
1.843522e+003,1.224670e+000
1.844486e+003,2.979279e+000
1.845450e+003,3.494965e+000
1.846414e+003,3.101578e+000
1.847379e+003,3.950653e-001
1.848343e+003,-1.588272e+000
1.849307e+003,-1.368073e+000
1.850271e+003,-6.442871e-001
1.851236e+003,-3.674164e-001
1.852200e+003,-4.749451e-001
1.853164e+003,-1.131226e+000
1.854128e+003,-2.061539e+000
1.855093e+003,-2.253677e+000
1.856057e+003,-1.339081e+000
1.857021e+003,-3.562622e-001
1.857985e+003,-2.652283e-001
1.858949e+003,-4.538116e-001
1.859914e+003,2.866364e-001
1.860878e+003,1.773758e+000
1.861842e+003,2.967072e+000
1.862806e+003,3.836319e+000
1.863771e+003,3.624969e+000
1.864735e+003,1.800232e+000
1.865699e+003,5.946045e-001
1.866663e+003,1.294174e+000
1.867627e+003,2.463089e+000
1.868592e+003,2.744095e+000
1.869556e+003,2.540756e+000
1.870520e+003,3.273407e+000
1.871484e+003,4.561432e+000
1.872449e+003,3.447891e+000
1.873413e+003,-1.206024e+000
1.874377e+003,-3.905090e+000
1.875341e+003,-2.102921e+000
1.876306e+003,2.799683e-001
1.877270e+003,1.401855e+000
1.878234e+003,1.840927e+000
1.879198e+003,2.215195e+000
1.880163e+003,2.445084e+000
1.881127e+003,1.856903e+000
1.882091e+003,8.317719e-001
1.883055e+003,1.236359e+000
1.884020e+003,3.625519e+000
1.884984e+003,5.698181e+000
1.885948e+003,5.353180e+000
1.886912e+003,3.568924e+000
1.887876e+003,2.141937e+000
1.888841e+003,1.134857e+000
1.889805e+003,1.528931e+000
1.890769e+003,3.808914e+000
1.891733e+003,4.804459e+000
1.892698e+003,3.694000e+000
1.893662e+003,2.358780e+000
1.894626e+003,1.004929e+000
1.895590e+003,2.442017e-001
1.896554e+003,9.895630e-001
1.897519e+003,2.289841e+000
1.898483e+003,3.025299e+000
1.899447e+003,3.169098e+000
1.900411e+003,3.045624e+000
1.901376e+003,2.723526e+000
1.902340e+003,2.417587e+000
1.903304e+003,2.093124e+000
1.904268e+003,1.946426e+000
1.905233e+003,2.615921e+000
1.906197e+003,3.104721e+000
1.907161e+003,1.334015e+000
1.908125e+003,-8.031769e-001
1.909090e+003,1.046432e+000
1.910054e+003,5.904144e+000
1.911018e+003,8.416046e+000
1.911982e+003,6.983658e+000
1.912947e+003,4.450439e+000
1.913911e+003,2.870850e+000
1.914875e+003,2.389832e+000
1.915839e+003,3.376480e+000
1.916803e+003,5.308578e+000
1.917768e+003,5.726212e+000
1.918732e+003,4.340179e+000
1.919696e+003,3.902985e+000
1.920660e+003,5.153625e+000
1.921625e+003,5.428772e+000
1.922589e+003,3.040451e+000
1.923553e+003,1.265976e+000
1.924517e+003,2.574844e+000
1.925481e+003,4.614624e+000
1.926446e+003,5.633743e+000
1.927410e+003,5.779465e+000
1.928374e+003,5.124435e+000
1.929338e+003,3.746704e+000
1.930303e+003,2.850037e+000
1.931267e+003,3.002365e+000
1.932231e+003,3.245667e+000
1.933195e+003,2.642273e+000
1.934160e+003,2.373962e+000
1.935124e+003,3.846680e+000
1.936088e+003,5.647629e+000
1.937052e+003,6.109558e+000
1.938017e+003,5.596573e+000
1.938981e+003,4.874588e+000
1.939945e+003,4.292175e+000
1.940909e+003,4.371414e+000
1.941874e+003,5.264038e+000
1.942838e+003,6.403549e+000
1.943802e+003,7.419403e+000
1.944766e+003,7.738403e+000
1.945730e+003,5.459335e+000
1.946695e+003,1.156433e+000
1.947659e+003,7.241058e-001
1.948623e+003,4.649109e+000
1.949587e+003,6.449448e+000
1.950552e+003,5.029266e+000
1.951516e+003,3.313568e+000
1.952480e+003,1.771805e+000
1.953444e+003,1.229630e+000
1.954408e+003,2.873672e+000
1.955373e+003,5.121307e+000
1.956337e+003,5.777557e+000
1.957301e+003,5.356873e+000
1.958265e+003,5.431183e+000
1.959230e+003,6.161972e+000
1.960194e+003,6.377701e+000
1.961158e+003,5.235458e+000
1.962122e+003,4.297623e+000
1.963087e+003,3.875824e+000
1.964051e+003,3.917542e+000
1.965015e+003,5.244446e+000
1.965979e+003,6.442413e+000
1.966944e+003,5.143478e+000
1.967908e+003,2.910660e+000
1.968872e+003,3.188522e+000
1.969836e+003,5.933380e+000
1.970801e+003,8.221390e+000
1.971765e+003,8.807144e+000
1.972729e+003,8.723053e+000
1.973693e+003,8.741684e+000
1.974657e+003,8.847870e+000
1.975622e+003,9.194168e+000
1.976586e+003,9.484253e+000
1.977550e+003,8.584763e+000
1.978514e+003,6.914948e+000
1.979479e+003,7.040024e+000
1.980443e+003,9.172562e+000
1.981407e+003,1.046429e+001
1.982371e+003,9.859802e+000
1.983335e+003,8.978043e+000
1.984300e+003,8.950043e+000
1.985264e+003,9.410507e+000
1.986228e+003,9.988205e+000
1.987192e+003,1.048010e+001
1.988157e+003,9.725723e+000
1.989121e+003,7.269897e+000
1.990085e+003,6.190338e+000
1.991049e+003,7.592209e+000
1.992014e+003,8.234421e+000
1.992978e+003,6.640900e+000
1.993942e+003,5.637482e+000
1.994906e+003,6.711578e+000
1.995871e+003,8.173264e+000
1.996835e+003,8.755569e+000
1.997799e+003,9.016800e+000
1.998763e+003,1.028622e+001
1.999728e+003,1.202980e+001
