5.003444e+002,3.851807e+001
5.013087e+002,3.667865e+001
5.022729e+002,3.638358e+001
5.032371e+002,3.731235e+001
5.042014e+002,3.751645e+001
5.051656e+002,3.711295e+001
5.061298e+002,3.620175e+001
5.070941e+002,3.469794e+001
5.080583e+002,3.215820e+001
5.090225e+002,3.112222e+001
5.099868e+002,3.281174e+001
5.109510e+002,3.422607e+001
5.119152e+002,3.313388e+001
5.128795e+002,2.921970e+001
5.138437e+002,2.730930e+001
5.148079e+002,3.071680e+001
5.157722e+002,3.499258e+001
5.167364e+002,3.935730e+001
5.177006e+002,4.295343e+001
5.186649e+002,4.440320e+001
5.196291e+002,4.014978e+001
5.205933e+002,3.434308e+001
5.215576e+002,3.163135e+001
5.225218e+002,3.219434e+001
5.234860e+002,3.406628e+001
5.244503e+002,3.390021e+001
5.254145e+002,3.111465e+001
5.263787e+002,2.949341e+001
5.273430e+002,2.987170e+001
5.283072e+002,3.084491e+001
5.292714e+002,3.013525e+001
5.302357e+002,2.580975e+001
5.311999e+002,2.352490e+001
5.321641e+002,2.552203e+001
5.331284e+002,2.865808e+001
5.340926e+002,3.046451e+001
5.350568e+002,2.989908e+001
5.360211e+002,2.841248e+001
5.369853e+002,2.735083e+001
5.379495e+002,2.652371e+001
5.389138e+002,2.582928e+001
5.398780e+002,2.512851e+001
5.408422e+002,2.419400e+001
5.418065e+002,2.193896e+001
5.427707e+002,1.869440e+001
5.437349e+002,1.738416e+001
5.446992e+002,1.925815e+001
5.456634e+002,2.324005e+001
5.466276e+002,2.562872e+001
5.475919e+002,2.579523e+001
5.485561e+002,2.484946e+001
5.495203e+002,2.160916e+001
5.504846e+002,1.754684e+001
5.514488e+002,1.481961e+001
5.524130e+002,1.455920e+001
5.533773e+002,1.529520e+001
5.543415e+002,1.686597e+001
5.553057e+002,1.844064e+001
5.562700e+002,1.885385e+001
5.572342e+002,1.738974e+001
5.581984e+002,1.524292e+001
5.591627e+002,1.611456e+001
5.601269e+002,1.881815e+001
5.610911e+002,2.046774e+001
5.620554e+002,1.942831e+001
5.630196e+002,1.605569e+001
5.639838e+002,1.427042e+001
5.649481e+002,1.562054e+001
5.659123e+002,1.631750e+001
5.668765e+002,1.540994e+001
5.678408e+002,1.364734e+001
5.688050e+002,1.290750e+001
5.697692e+002,1.416656e+001
5.707335e+002,1.522272e+001
5.716977e+002,1.583923e+001
5.726619e+002,1.588171e+001
5.736262e+002,1.506494e+001
5.745904e+002,1.305267e+001
5.755546e+002,1.087546e+001
5.765189e+002,9.915497e+000
5.774831e+002,9.678925e+000
5.784473e+002,9.619141e+000
5.794116e+002,9.446411e+000
5.803758e+002,9.308716e+000
5.813400e+002,9.528473e+000
5.823043e+002,1.012308e+001
5.832685e+002,1.021329e+001
5.842327e+002,9.317139e+000
5.851970e+002,7.772736e+000
5.861612e+002,6.994049e+000
5.871254e+002,7.334595e+000
5.880897e+002,8.115204e+000
5.890539e+002,9.790680e+000
5.900181e+002,1.160635e+001
5.909824e+002,1.229895e+001
5.919466e+002,1.068140e+001
5.929108e+002,8.792450e+000
5.938751e+002,9.342773e+000
5.948393e+002,1.100815e+001
5.958035e+002,1.154370e+001
5.967678e+002,9.369263e+000
5.977320e+002,5.180481e+000
5.986962e+002,4.034454e+000
5.996605e+002,5.560608e+000
6.006247e+002,7.486633e+000
6.015889e+002,8.951599e+000
6.025532e+002,1.000104e+001
6.035174e+002,1.105612e+001
6.044816e+002,1.349924e+001
6.054459e+002,1.435022e+001
6.064101e+002,1.185550e+001
6.073743e+002,7.647095e+000
6.083386e+002,4.749756e+000
6.093028e+002,5.262299e+000
6.102670e+002,6.496490e+000
6.112313e+002,6.445251e+000
6.121955e+002,5.537201e+000
6.131597e+002,4.107788e+000
6.141240e+002,2.419312e+000
6.150882e+002,7.914429e-001
6.160524e+002,1.247772e+000
6.170167e+002,3.489471e+000
6.179809e+002,5.197540e+000
6.189451e+002,4.946136e+000
6.199094e+002,3.015625e+000
6.208736e+002,2.267426e+000
6.218378e+002,5.277832e+000
6.228021e+002,6.870667e+000
6.237663e+002,5.494324e+000
6.247305e+002,2.770691e+000
6.256948e+002,1.415558e+000
6.266590e+002,2.950470e+000
6.276232e+002,4.383484e+000
6.285875e+002,3.904968e+000
6.295517e+002,2.633972e+000
6.305159e+002,1.665588e+000
6.314802e+002,1.541779e+000
6.324444e+002,1.757721e+000
6.334086e+002,9.456482e-001
6.343729e+002,-3.839111e-001
6.353371e+002,-1.154541e+000
6.363013e+002,-9.599609e-001
6.372656e+002,-1.381226e-001
6.382298e+002,2.517090e-001
6.391940e+002,-4.836731e-001
6.401583e+002,-8.836060e-001
6.411225e+002,-8.963013e-002
6.420867e+002,1.009491e+000
6.430510e+002,1.056641e+000
6.440152e+002,-8.249207e-001
6.449794e+002,-2.644958e+000
6.459437e+002,-3.516357e+000
6.469079e+002,-3.823212e+000
6.478721e+002,-3.628174e+000
6.488364e+002,-3.002136e+000
6.498006e+002,-2.173889e+000
6.507648e+002,-1.755493e+000
6.517291e+002,-1.543304e+000
6.526933e+002,-7.793884e-001
6.536575e+002,7.041626e-001
6.546218e+002,2.466461e+000
6.555860e+002,3.739075e+000
6.565502e+002,4.736969e+000
6.575145e+002,4.365814e+000
6.584787e+002,1.491455e+000
6.594429e+002,-1.629974e+000
6.604072e+002,-3.175568e+000
6.613714e+002,-2.783783e+000
6.623356e+002,-2.016113e+000
6.632999e+002,-1.458893e+000
6.642641e+002,-1.096924e+000
6.652283e+002,-7.128296e-001
6.661926e+002,-2.936401e-001
6.671568e+002,-1.140747e-001
6.681210e+002,-8.592834e-001
6.690853e+002,-1.966766e+000
6.700495e+002,-1.751465e+000
6.710137e+002,-2.331848e-001
6.719780e+002,1.788269e+000
6.729422e+002,3.592834e+000
6.739064e+002,5.361176e+000
6.748707e+002,5.032715e+000
6.758349e+002,7.775269e-001
6.767991e+002,-2.911499e+000
6.777634e+002,-3.699921e+000
6.787276e+002,-1.797424e+000
6.796918e+002,1.227417e-001
6.806561e+002,1.436829e+000
6.816203e+002,1.760010e+000
6.825845e+002,3.545227e-001
6.835488e+002,-1.988403e+000
6.845130e+002,-4.038696e+000
6.854772e+002,-4.840179e+000
6.864415e+002,-4.794922e+000
6.874057e+002,-5.612213e+000
6.883699e+002,-6.946594e+000
6.893342e+002,-6.979187e+000
6.902984e+002,-4.468567e+000
6.912626e+002,-1.525879e-004
6.922269e+002,2.000275e+000
6.931911e+002,-1.239075e+000
6.941553e+002,-2.630859e+000
6.951196e+002,-6.491089e-001
6.960838e+002,2.827820e+000
6.970480e+002,4.980530e+000
6.980123e+002,5.009583e+000
6.989765e+002,4.425079e+000
6.999407e+002,3.767029e+000
7.009050e+002,2.972046e+000
7.018692e+002,1.659515e+000
7.028334e+002,-1.465454e-001
7.037977e+002,-1.594910e+000
7.047619e+002,-6.625366e-001
7.057261e+002,1.666901e+000
7.066904e+002,3.282257e+000
7.076546e+002,3.824554e+000
7.086188e+002,3.245422e+000
7.095831e+002,1.282379e+000
7.105473e+002,-3.159912e+000
7.115115e+002,-5.650787e+000
7.124758e+002,-5.980133e+000
7.134400e+002,-5.185822e+000
7.144042e+002,-3.057556e+000
7.153685e+002,3.220215e-001
7.163327e+002,2.460846e+000
7.172969e+002,7.519226e-001
7.182612e+002,-1.128235e+000
7.192254e+002,-1.984039e+000
7.201896e+002,-1.887939e+000
7.211539e+002,-1.252502e+000
7.221181e+002,-3.175049e-001
7.230823e+002,6.907959e-001
7.240466e+002,1.107361e+000
7.250108e+002,1.220703e+000
7.259750e+002,1.671692e+000
7.269393e+002,2.804840e+000
7.279035e+002,4.225769e+000
7.288677e+002,4.225403e+000
7.298320e+002,1.416656e+000
7.307962e+002,-3.677063e-001
7.317604e+002,-7.110901e-001
7.327247e+002,8.203125e-002
7.336889e+002,1.861237e+000
7.346531e+002,4.972046e+000
7.356174e+002,6.502869e+000
7.365816e+002,4.377289e+000
7.375458e+002,1.340485e+000
7.385101e+002,-8.224792e-001
7.394743e+002,-1.518311e+000
7.404385e+002,-1.189606e+000
7.414028e+002,-3.158875e-001
7.423670e+002,5.820923e-001
7.433312e+002,7.803040e-001
7.442955e+002,4.457092e-001
7.452597e+002,2.315674e-001
7.462239e+002,7.931213e-001
7.471882e+002,2.277527e+000
7.481524e+002,3.530487e+000
7.491166e+002,5.007202e+000
7.500809e+002,5.303925e+000
7.510451e+002,3.087250e+000
7.520093e+002,-8.780212e-001
7.529736e+002,-3.975281e+000
7.539378e+002,-4.609711e+000
7.549020e+002,-4.044281e+000
7.558663e+002,-2.820679e+000
7.568306e+002,-1.304901e+000
7.577948e+002,4.516602e-003
7.587590e+002,7.526550e-001
7.597233e+002,1.041687e+000
7.606875e+002,1.820282e+000
7.616517e+002,3.091217e+000
7.626160e+002,2.785828e+000
7.635802e+002,-5.821228e-001
7.645444e+002,-4.759827e+000
7.655087e+002,-4.621307e+000
7.664729e+002,3.050232e+000
7.674371e+002,7.878235e+000
7.684014e+002,8.203339e+000
7.693656e+002,6.990112e+000
7.703298e+002,6.010620e+000
7.712941e+002,5.548950e+000
7.722583e+002,4.714294e+000
7.732225e+002,2.233948e+000
7.741868e+002,-3.056641e-001
7.751510e+002,-1.751984e+000
7.761152e+002,-2.150665e+000
7.770795e+002,-1.870697e+000
7.780437e+002,-1.250732e+000
7.790079e+002,-3.901978e-001
7.799722e+002,4.736023e-001
7.809364e+002,1.505859e+000
7.819006e+002,1.789764e+000
7.828649e+002,4.299622e-001
7.838291e+002,-1.789429e+000
7.847933e+002,-2.474976e+000
7.857576e+002,-9.382324e-001
7.867218e+002,6.981506e-001
7.876860e+002,2.783997e+000
7.886503e+002,4.636139e+000
7.896145e+002,5.573212e+000
7.905787e+002,5.461273e+000
7.915430e+002,4.998749e+000
7.925072e+002,4.491577e+000
7.934714e+002,3.996552e+000
7.944357e+002,4.185333e+000
7.953999e+002,4.967499e+000
7.963641e+002,5.285522e+000
7.973284e+002,3.801910e+000
7.982926e+002,3.463135e-001
7.992568e+002,-1.436096e+000
8.002211e+002,-1.763428e+000
8.011853e+002,-1.510132e+000
8.021495e+002,-6.384277e-002
8.031138e+002,2.308502e+000
8.040780e+002,3.685181e+000
8.050422e+002,2.382477e+000
8.060065e+002,1.753632e+000
8.069707e+002,3.727905e+000
8.079349e+002,6.088074e+000
8.088992e+002,6.166565e+000
8.098634e+002,3.371948e+000
8.108276e+002,5.918274e-001
8.117919e+002,2.605865e+000
8.127561e+002,6.980682e+000
8.137203e+002,9.493958e+000
8.146846e+002,9.843689e+000
8.156488e+002,8.986908e+000
8.166130e+002,7.798004e+000
8.175773e+002,5.989349e+000
8.185415e+002,5.293457e+000
8.195057e+002,6.523376e+000
8.204700e+002,7.299805e+000
8.214342e+002,6.442749e+000
8.223984e+002,4.540039e+000
8.233627e+002,3.160248e+000
8.243269e+002,2.811066e+000
8.252911e+002,3.360992e+000
8.262554e+002,5.340820e+000
8.272196e+002,7.523224e+000
8.281838e+002,8.201965e+000
8.291481e+002,7.014893e+000
8.301123e+002,5.670227e+000
8.310765e+002,7.701019e+000
8.320408e+002,1.247534e+001
8.330050e+002,1.328757e+001
8.339692e+002,8.895691e+000
8.349335e+002,3.463196e+000
8.358977e+002,1.403931e+000
8.368619e+002,3.324005e+000
8.378262e+002,4.877167e+000
8.387904e+002,6.495056e+000
8.397546e+002,6.755127e+000
8.407189e+002,4.053925e+000
8.416831e+002,7.171631e-002
8.426473e+002,-2.302155e+000
8.436116e+002,-1.585114e+000
8.445758e+002,2.869568e-001
8.455400e+002,1.295685e+000
8.465043e+002,1.763458e+000
8.474685e+002,2.104004e+000
8.484327e+002,2.660614e+000
8.493970e+002,3.850098e+000
8.503612e+002,6.234650e+000
8.513254e+002,1.013452e+001
8.522897e+002,1.168576e+001
8.532539e+002,9.238892e+000
8.542181e+002,6.654907e+000
8.551824e+002,6.629578e+000
8.561466e+002,9.020050e+000
8.571108e+002,1.106769e+001
8.580751e+002,1.137915e+001
8.590393e+002,1.142163e+001
8.600035e+002,1.199680e+001
8.609678e+002,1.273474e+001
8.619320e+002,1.311469e+001
8.628962e+002,1.291220e+001
8.638605e+002,1.238214e+001
8.648247e+002,1.160843e+001
8.657889e+002,1.091708e+001
8.667532e+002,1.147995e+001
8.677174e+002,1.343829e+001
8.686816e+002,1.520563e+001
8.696459e+002,1.475842e+001
8.706101e+002,1.165054e+001
8.715743e+002,1.051944e+001
8.725386e+002,1.233661e+001
8.735028e+002,1.468753e+001
8.744670e+002,1.769202e+001
8.754313e+002,2.041177e+001
8.763955e+002,2.105484e+001
8.773597e+002,1.846878e+001
8.783240e+002,1.612711e+001
8.792882e+002,1.681216e+001
8.802524e+002,1.850360e+001
8.812167e+002,1.962039e+001
8.821809e+002,1.980273e+001
8.831451e+002,1.966135e+001
8.841094e+002,2.004007e+001
8.850736e+002,2.101181e+001
8.860378e+002,2.130661e+001
8.870021e+002,2.064114e+001
8.879663e+002,2.000052e+001
8.889305e+002,2.018167e+001
8.898948e+002,2.082080e+001
8.908590e+002,2.011526e+001
8.918232e+002,1.599762e+001
8.927875e+002,1.428159e+001
8.937517e+002,1.776279e+001
8.947159e+002,2.267560e+001
8.956802e+002,2.589758e+001
8.966444e+002,2.662155e+001
8.976086e+002,2.627124e+001
8.985729e+002,2.635144e+001
8.995371e+002,2.647510e+001
9.005013e+002,2.519485e+001
9.014656e+002,2.303638e+001
9.024298e+002,2.223346e+001
9.033940e+002,2.450305e+001
9.043583e+002,2.924960e+001
9.053225e+002,3.287103e+001
9.062867e+002,3.560907e+001
9.072510e+002,3.626913e+001
9.082152e+002,3.339438e+001
9.091794e+002,2.978287e+001
9.101437e+002,2.814764e+001
9.111079e+002,2.890759e+001
9.120721e+002,3.022690e+001
9.130364e+002,3.203522e+001
9.140006e+002,3.283652e+001
9.149648e+002,3.082397e+001
9.159291e+002,2.742017e+001
9.168933e+002,2.545227e+001
9.178575e+002,2.678555e+001
9.188218e+002,3.019424e+001
9.197860e+002,3.183112e+001
9.207502e+002,3.162228e+001
9.217145e+002,3.093991e+001
9.226787e+002,3.027042e+001
9.236429e+002,2.944086e+001
9.246072e+002,2.783163e+001
9.255714e+002,2.500574e+001
9.265356e+002,2.294250e+001
9.274999e+002,2.209750e+001
9.284641e+002,2.175311e+001
9.294283e+002,2.243762e+001
9.303926e+002,2.342068e+001
9.313568e+002,2.318338e+001
9.323210e+002,2.081732e+001
9.332853e+002,1.819949e+001
9.342495e+002,1.893546e+001
9.352137e+002,2.133069e+001
9.361780e+002,2.353644e+001
9.371422e+002,2.522742e+001
9.381064e+002,2.570419e+001
9.390707e+002,2.349771e+001
9.400349e+002,1.759952e+001
9.409991e+002,1.459210e+001
9.419634e+002,1.669092e+001
9.429276e+002,1.832001e+001
9.438918e+002,1.720407e+001
9.448561e+002,1.504944e+001
9.458203e+002,1.517822e+001
9.467845e+002,1.904306e+001
9.477488e+002,2.277942e+001
9.487130e+002,2.331451e+001
9.496772e+002,2.255615e+001
9.506415e+002,2.133212e+001
9.516057e+002,2.013657e+001
9.525699e+002,1.966531e+001
9.535342e+002,2.059857e+001
9.544984e+002,2.262198e+001
9.554626e+002,2.359412e+001
9.564269e+002,2.368857e+001
9.573911e+002,2.366171e+001
9.583553e+002,2.365140e+001
9.593196e+002,2.353384e+001
9.602838e+002,2.295676e+001
9.612480e+002,2.157800e+001
9.622123e+002,2.088602e+001
9.631765e+002,2.198541e+001
9.641407e+002,2.330029e+001
9.651050e+002,2.460388e+001
9.660692e+002,2.533731e+001
9.670334e+002,2.454990e+001
9.679977e+002,2.170963e+001
9.689619e+002,1.823233e+001
9.699261e+002,1.653262e+001
9.708904e+002,1.623398e+001
9.718546e+002,1.749142e+001
9.728188e+002,2.054279e+001
9.737831e+002,2.400290e+001
9.747473e+002,2.613016e+001
9.757115e+002,2.677200e+001
9.766758e+002,2.721234e+001
9.776400e+002,2.757159e+001
9.786042e+002,2.789410e+001
9.795685e+002,2.833145e+001
9.805327e+002,2.841794e+001
9.814969e+002,2.756628e+001
9.824612e+002,2.569498e+001
9.834254e+002,2.366632e+001
9.843896e+002,2.170041e+001
9.853539e+002,2.010788e+001
9.863181e+002,1.959650e+001
9.872823e+002,1.987912e+001
9.882466e+002,2.000629e+001
9.892108e+002,1.934470e+001
9.901750e+002,1.829150e+001
9.911393e+002,1.791415e+001
9.921035e+002,1.811053e+001
9.930677e+002,1.815665e+001
9.940320e+002,1.766171e+001
9.949962e+002,1.765256e+001
9.959604e+002,1.965451e+001
9.969247e+002,2.364127e+001
9.978889e+002,2.647131e+001
9.988531e+002,2.484207e+001
9.998174e+002,2.340829e+001
1.000782e+003,2.614655e+001
1.001746e+003,3.081717e+001
1.002710e+003,3.377121e+001
1.003674e+003,3.350327e+001
1.004639e+003,3.181390e+001
1.005603e+003,3.191092e+001
1.006567e+003,3.394080e+001
1.007531e+003,3.533234e+001
1.008495e+003,3.617563e+001
1.009460e+003,3.636526e+001
1.010424e+003,3.567099e+001
1.011388e+003,3.431876e+001
1.012352e+003,3.296371e+001
1.013317e+003,3.124789e+001
1.014281e+003,3.024304e+001
1.015245e+003,3.094653e+001
1.016209e+003,3.156378e+001
1.017174e+003,3.078293e+001
1.018138e+003,2.863724e+001
1.019102e+003,2.606363e+001
1.020066e+003,2.384195e+001
1.021031e+003,2.193616e+001
1.021995e+003,1.969116e+001
1.022959e+003,1.705569e+001
1.023923e+003,1.502081e+001
1.024887e+003,1.395209e+001
1.025852e+003,1.346869e+001
1.026816e+003,1.337769e+001
1.027780e+003,1.426270e+001
1.028744e+003,1.343024e+001
1.029709e+003,8.730438e+000
1.030673e+003,4.499420e+000
1.031637e+003,1.613159e+000
1.032601e+003,2.142334e-002
1.033566e+003,-4.611206e-002
1.034530e+003,1.465149e+000
1.035494e+003,3.132599e+000
1.036458e+003,3.054688e+000
1.037422e+003,2.172363e+000
1.038387e+003,2.082245e+000
1.039351e+003,2.789154e+000
1.040315e+003,3.936127e+000
1.041279e+003,5.430328e+000
1.042244e+003,7.145294e+000
1.043208e+003,8.081879e+000
1.044172e+003,7.975159e+000
1.045136e+003,6.985901e+000
1.046101e+003,4.592865e+000
1.047065e+003,2.105927e+000
1.048029e+003,-3.354492e-001
1.048993e+003,-2.277710e+000
1.049958e+003,-2.076782e+000
1.050922e+003,1.915161e+000
1.051886e+003,6.328308e+000
1.052850e+003,7.442169e+000
1.053814e+003,6.945190e+000
1.054779e+003,7.017426e+000
1.055743e+003,8.051666e+000
1.056707e+003,8.807861e+000
1.057671e+003,7.718872e+000
1.058636e+003,4.730530e+000
1.059600e+003,3.247345e+000
1.060564e+003,4.660187e+000
1.061528e+003,5.922211e+000
1.062493e+003,6.163239e+000
1.063457e+003,6.040405e+000
1.064421e+003,6.515320e+000
1.065385e+003,7.751587e+000
1.066349e+003,8.776154e+000
1.067314e+003,9.302094e+000
1.068278e+003,9.174072e+000
1.069242e+003,8.081940e+000
1.070206e+003,6.504486e+000
1.071171e+003,4.868805e+000
1.072135e+003,3.393646e+000
1.073099e+003,2.433380e+000
1.074063e+003,2.834534e+000
1.075028e+003,4.891052e+000
1.075992e+003,5.201050e+000
1.076956e+003,2.336548e+000
1.077920e+003,1.180725e-001
1.078885e+003,3.822937e-001
1.079849e+003,2.276947e+000
1.080813e+003,4.321533e+000
1.081777e+003,6.453461e+000
1.082741e+003,8.152863e+000
1.083706e+003,8.735718e+000
1.084670e+003,8.750275e+000
1.085634e+003,8.296082e+000
1.086598e+003,7.525757e+000
1.087563e+003,6.699982e+000
1.088527e+003,6.040161e+000
1.089491e+003,5.481171e+000
1.090455e+003,4.510742e+000
1.091420e+003,2.919647e+000
1.092384e+003,2.845062e+000
1.093348e+003,5.427979e+000
1.094312e+003,7.176208e+000
1.095276e+003,5.398285e+000
1.096241e+003,1.468201e+000
1.097205e+003,-7.326660e-001
1.098169e+003,-6.392822e-001
1.099133e+003,4.439087e-001
1.100098e+003,3.440887e+000
1.101062e+003,6.052277e+000
1.102026e+003,6.436188e+000
1.102990e+003,5.247620e+000
1.103955e+003,4.281494e+000
1.104919e+003,4.590698e+000
1.105883e+003,5.450256e+000
1.106847e+003,5.355225e+000
1.107812e+003,4.260498e+000
1.108776e+003,3.528625e+000
1.109740e+003,3.051147e+000
1.110704e+003,3.284149e+000
1.111668e+003,5.460663e+000
1.112633e+003,8.975800e+000
1.113597e+003,1.039139e+001
1.114561e+003,8.116302e+000
1.115525e+003,6.351044e+000
1.116490e+003,6.718506e+000
1.117454e+003,7.585754e+000
1.118418e+003,8.111145e+000
1.119382e+003,8.397095e+000
1.120347e+003,8.804230e+000
1.121311e+003,9.416229e+000
1.122275e+003,1.012750e+001
1.123239e+003,1.145840e+001
1.124203e+003,1.347800e+001
1.125168e+003,1.424634e+001
1.126132e+003,1.321088e+001
1.127096e+003,1.213773e+001
1.128060e+003,1.245956e+001
1.129025e+003,1.376825e+001
1.129989e+003,1.435568e+001
1.130953e+003,1.363785e+001
1.131917e+003,1.309250e+001
1.132882e+003,1.296271e+001
1.133846e+003,1.338379e+001
1.134810e+003,1.460022e+001
1.135774e+003,1.645004e+001
1.136739e+003,1.871301e+001
1.137703e+003,2.122806e+001
1.138667e+003,2.353314e+001
1.139631e+003,2.462839e+001
1.140595e+003,2.469531e+001
1.141560e+003,2.564761e+001
1.142524e+003,2.764099e+001
1.143488e+003,3.079773e+001
1.144452e+003,3.573819e+001
1.145417e+003,4.186221e+001
1.146381e+003,4.664413e+001
1.147345e+003,4.870004e+001
1.148309e+003,5.288287e+001
1.149274e+003,6.207278e+001
1.150238e+003,7.193991e+001
1.151202e+003,8.070526e+001
1.152166e+003,8.855017e+001
1.153130e+003,9.616840e+001
1.154095e+003,1.037402e+002
1.155059e+003,1.108717e+002
1.156023e+003,1.177321e+002
1.156987e+003,1.238037e+002
1.157952e+003,1.257892e+002
1.158916e+003,1.234839e+002
1.159880e+003,1.204093e+002
1.160844e+003,1.187214e+002
1.161809e+003,1.167973e+002
1.162773e+003,1.110461e+002
1.163737e+003,1.005296e+002
1.164701e+003,9.052078e+001
1.165666e+003,8.282764e+001
1.166630e+003,7.564243e+001
1.167594e+003,6.838943e+001
1.168558e+003,6.114142e+001
1.169522e+003,5.356842e+001
1.170487e+003,4.593350e+001
1.171451e+003,4.002356e+001
1.172415e+003,3.800580e+001
1.173379e+003,3.910864e+001
1.174344e+003,3.924442e+001
1.175308e+003,3.834738e+001
1.176272e+003,3.834268e+001
1.177236e+003,4.133972e+001
1.178201e+003,4.451758e+001
1.179165e+003,4.348590e+001
1.180129e+003,3.805072e+001
1.181093e+003,3.384412e+001
1.182057e+003,3.239337e+001
1.183022e+003,3.204132e+001
1.183986e+003,3.343369e+001
1.184950e+003,3.462183e+001
1.185914e+003,3.319489e+001
1.186879e+003,2.954288e+001
1.187843e+003,2.628183e+001
1.188807e+003,2.547971e+001
1.189771e+003,2.651755e+001
1.190736e+003,2.798477e+001
1.191700e+003,2.994119e+001
1.192664e+003,3.144226e+001
1.193628e+003,3.270651e+001
1.194593e+003,3.334180e+001
1.195557e+003,3.262601e+001
1.196521e+003,3.096707e+001
1.197485e+003,2.997864e+001
1.198449e+003,3.015881e+001
1.199414e+003,3.029147e+001
1.200378e+003,3.048633e+001
1.201342e+003,2.989398e+001
1.202306e+003,2.690286e+001
1.203271e+003,2.272733e+001
1.204235e+003,2.019946e+001
1.205199e+003,2.057837e+001
1.206163e+003,2.181671e+001
1.207128e+003,2.031134e+001
1.208092e+003,1.586975e+001
1.209056e+003,1.356061e+001
1.210020e+003,1.452283e+001
1.210984e+003,1.496826e+001
1.211949e+003,1.356064e+001
1.212913e+003,1.114481e+001
1.213877e+003,8.918579e+000
1.214841e+003,6.994598e+000
1.215806e+003,4.388031e+000
1.216770e+003,-4.087830e-001
1.217734e+003,-4.211639e+000
1.218698e+003,-4.327515e+000
1.219663e+003,-2.862366e+000
1.220627e+003,-2.216675e+000
1.221591e+003,-2.887207e+000
1.222555e+003,-4.115234e+000
1.223520e+003,-5.188873e+000
1.224484e+003,-6.040131e+000
1.225448e+003,-6.692383e+000
1.226412e+003,-7.345215e+000
1.227376e+003,-7.328003e+000
1.228341e+003,-5.673157e+000
1.229305e+003,-4.570190e+000
1.230269e+003,-5.692841e+000
1.231233e+003,-8.096100e+000
1.232198e+003,-9.786682e+000
1.233162e+003,-1.017224e+001
1.234126e+003,-9.963470e+000
1.235090e+003,-9.323456e+000
1.236055e+003,-8.896393e+000
1.237019e+003,-9.615112e+000
1.237983e+003,-1.109576e+001
1.238947e+003,-1.208850e+001
1.239911e+003,-1.199936e+001
1.240876e+003,-1.157336e+001
1.241840e+003,-1.217453e+001
1.242804e+003,-1.394400e+001
1.243768e+003,-1.401068e+001
1.244733e+003,-9.392426e+000
1.245697e+003,-7.083252e+000
1.246661e+003,-9.606720e+000
1.247625e+003,-1.310571e+001
1.248590e+003,-1.506909e+001
1.249554e+003,-1.518857e+001
1.250518e+003,-1.380206e+001
1.251482e+003,-1.104248e+001
1.252447e+003,-7.956970e+000
1.253411e+003,-5.016998e+000
1.254375e+003,-2.839447e+000
1.255339e+003,-3.444183e+000
1.256303e+003,-6.664764e+000
1.257268e+003,-9.084381e+000
1.258232e+003,-8.789063e+000
1.259196e+003,-6.923706e+000
1.260160e+003,-5.575806e+000
1.261125e+003,-4.803436e+000
1.262089e+003,-3.285675e+000
1.263053e+003,3.557434e-001
1.264017e+003,2.819000e+000
1.264982e+003,2.565826e+000
1.265946e+003,1.505157e+000
1.266910e+003,1.721161e+000
1.267874e+003,3.015350e+000
1.268839e+003,3.331329e+000
1.269803e+003,1.289215e+000
1.270767e+003,-1.517212e+000
1.271731e+003,-1.802734e+000
1.272695e+003,4.407959e-001
1.273660e+003,1.772888e+000
1.274624e+003,1.678223e+000
1.275588e+003,1.110962e+000
1.276552e+003,7.119751e-001
1.277517e+003,4.001465e-001
1.278481e+003,-3.447571e-001
1.279445e+003,-1.675781e+000
1.280409e+003,-2.375763e+000
1.281374e+003,-1.266327e+000
1.282338e+003,-4.616699e-001
1.283302e+003,-1.298218e+000
1.284266e+003,-2.892395e+000
1.285230e+003,-4.211304e+000
1.286195e+003,-5.149567e+000
1.287159e+003,-6.383301e+000
1.288123e+003,-8.401276e+000
1.289087e+003,-1.064151e+001
1.290052e+003,-1.169894e+001
1.291016e+003,-1.152707e+001
1.291980e+003,-1.055319e+001
1.292944e+003,-7.384155e+000
1.293909e+003,-5.545319e+000
1.294873e+003,-7.511261e+000
1.295837e+003,-1.070816e+001
1.296801e+003,-1.131674e+001
1.297766e+003,-9.008881e+000
1.298730e+003,-7.018890e+000
1.299694e+003,-7.197052e+000
1.300658e+003,-8.281708e+000
1.301622e+003,-9.395996e+000
1.302587e+003,-1.007349e+001
1.303551e+003,-9.041931e+000
1.304515e+003,-6.267517e+000
1.305479e+003,-4.049805e+000
1.306444e+003,-4.416351e+000
1.307408e+003,-6.713196e+000
1.308372e+003,-8.563019e+000
1.309336e+003,-9.943970e+000
1.310301e+003,-1.095633e+001
1.311265e+003,-1.192007e+001
1.312229e+003,-1.195697e+001
1.313193e+003,-1.013144e+001
1.314157e+003,-7.756897e+000
1.315122e+003,-5.984497e+000
1.316086e+003,-5.156128e+000
1.317050e+003,-5.229523e+000
1.318014e+003,-6.145569e+000
1.318979e+003,-7.579315e+000
1.319943e+003,-9.388733e+000
1.320907e+003,-1.130637e+001
1.321871e+003,-1.163800e+001
1.322836e+003,-9.949158e+000
1.323800e+003,-8.767670e+000
1.324764e+003,-1.013281e+001
1.325728e+003,-1.241611e+001
1.326693e+003,-1.269876e+001
1.327657e+003,-1.095200e+001
1.328621e+003,-9.642609e+000
1.329585e+003,-9.481812e+000
1.330549e+003,-8.806244e+000
1.331514e+003,-6.470673e+000
1.332478e+003,-4.171967e+000
1.333442e+003,-3.772308e+000
1.334406e+003,-4.822937e+000
1.335371e+003,-5.250946e+000
1.336335e+003,-3.848602e+000
1.337299e+003,-1.925537e+000
1.338263e+003,-2.126648e+000
1.339228e+003,-4.817230e+000
1.340192e+003,-6.115479e+000
1.341156e+003,-4.863678e+000
1.342120e+003,-4.047180e+000
1.343084e+003,-4.771637e+000
1.344049e+003,-5.749939e+000
1.345013e+003,-5.614746e+000
1.345977e+003,-4.588654e+000
1.346941e+003,-3.780945e+000
1.347906e+003,-3.586945e+000
1.348870e+003,-3.971161e+000
1.349834e+003,-5.532196e+000
1.350798e+003,-7.268829e+000
1.351763e+003,-6.511536e+000
1.352727e+003,-3.829865e+000
1.353691e+003,-3.107208e+000
1.354655e+003,-6.184845e+000
1.355620e+003,-1.004068e+001
1.356584e+003,-1.092999e+001
1.357548e+003,-9.158691e+000
1.358512e+003,-7.880402e+000
1.359476e+003,-7.300781e+000
1.360441e+003,-7.500092e+000
1.361405e+003,-9.888519e+000
1.362369e+003,-1.138062e+001
1.363333e+003,-9.397278e+000
1.364298e+003,-6.048279e+000
1.365262e+003,-4.318787e+000
1.366226e+003,-4.912048e+000
1.367190e+003,-6.670654e+000
1.368155e+003,-8.617218e+000
1.369119e+003,-1.019724e+001
1.370083e+003,-9.414703e+000
1.371047e+003,-5.064423e+000
1.372011e+003,-3.312836e+000
1.372976e+003,-6.766693e+000
1.373940e+003,-9.601563e+000
1.374904e+003,-8.899841e+000
1.375868e+003,-6.784973e+000
1.376833e+003,-6.115723e+000
1.377797e+003,-6.993622e+000
1.378761e+003,-7.546509e+000
1.379725e+003,-6.951111e+000
1.380690e+003,-5.769867e+000
1.381654e+003,-3.772736e+000
1.382618e+003,-1.896088e+000
1.383582e+003,-2.067963e+000
1.384547e+003,-4.004028e+000
1.385511e+003,-4.933990e+000
1.386475e+003,-3.264374e+000
1.387439e+003,-9.307556e-001
1.388403e+003,-1.349518e+000
1.389368e+003,-4.522675e+000
1.390332e+003,-5.319275e+000
1.391296e+003,-1.621307e+000
1.392260e+003,6.473999e-001
1.393225e+003,-6.911621e-001
1.394189e+003,-2.796967e+000
1.395153e+003,-4.374908e+000
1.396117e+003,-5.507660e+000
1.397082e+003,-6.735809e+000
1.398046e+003,-8.045898e+000
1.399010e+003,-8.812286e+000
1.399974e+003,-8.560181e+000
1.400938e+003,-7.466949e+000
1.401903e+003,-5.410278e+000
1.402867e+003,-1.362152e+000
1.403831e+003,8.394470e-001
1.404795e+003,-1.618652e-001
1.405760e+003,-1.484009e+000
1.406724e+003,-2.531738e+000
1.407688e+003,-3.668121e+000
1.408652e+003,-5.377258e+000
1.409617e+003,-7.225433e+000
1.410581e+003,-7.578217e+000
1.411545e+003,-5.523315e+000
1.412509e+003,-3.356567e+000
1.413474e+003,-4.124298e+000
1.414438e+003,-5.918274e+000
1.415402e+003,-4.581329e+000
1.416366e+003,-5.800171e-001
1.417330e+003,1.884705e+000
1.418295e+003,9.780579e-001
1.419259e+003,-1.196686e+000
1.420223e+003,-2.850250e+000
1.421187e+003,-3.936340e+000
1.422152e+003,-3.177185e+000
1.423116e+003,4.855347e-001
1.424080e+003,3.188690e+000
1.425044e+003,2.920929e+000
1.426009e+003,2.145691e+000
1.426973e+003,1.555542e+000
1.427937e+003,1.179047e+000
1.428901e+003,1.143799e+000
1.429865e+003,1.414307e+000
1.430830e+003,1.669739e+000
1.431794e+003,1.625549e+000
1.432758e+003,1.379913e+000
1.433722e+003,1.290710e+000
1.434687e+003,1.540222e+000
1.435651e+003,2.801178e+000
1.436615e+003,6.510315e+000
1.437579e+003,7.935883e+000
1.438544e+003,4.790802e+000
1.439508e+003,1.306335e+000
1.440472e+003,5.040283e-001
1.441436e+003,1.576843e+000
1.442401e+003,2.440796e+000
1.443365e+003,2.545013e+000
1.444329e+003,2.970764e+000
1.445293e+003,4.776520e+000
1.446257e+003,6.817627e+000
1.447222e+003,6.157501e+000
1.448186e+003,3.502411e+000
1.449150e+003,3.332031e+000
1.450114e+003,6.849731e+000
1.451079e+003,9.243622e+000
1.452043e+003,7.609772e+000
1.453007e+003,4.040985e+000
1.453971e+003,5.288086e-001
1.454936e+003,-2.699158e+000
1.455900e+003,-3.536865e+000
1.456864e+003,-7.116394e-001
1.457828e+003,1.888275e+000
1.458792e+003,9.670105e-001
1.459757e+003,-3.412170e-001
1.460721e+003,1.532593e+000
1.461685e+003,4.730225e+000
1.462649e+003,4.701569e+000
1.463614e+003,6.812744e-001
1.464578e+003,-2.712646e+000
1.465542e+003,-1.172577e+000
1.466506e+003,3.284271e+000
1.467471e+003,4.771881e+000
1.468435e+003,2.797119e+000
1.469399e+003,1.343231e+000
1.470363e+003,2.529907e-001
1.471328e+003,-1.545410e-001
1.472292e+003,9.598083e-001
1.473256e+003,1.711456e+000
1.474220e+003,-1.195068e-001
1.475184e+003,-2.715576e+000
1.476149e+003,-2.013763e+000
1.477113e+003,2.607605e+000
1.478077e+003,6.689880e+000
1.479041e+003,5.940857e+000
1.480006e+003,2.421631e+000
1.480970e+003,2.825409e+000
1.481934e+003,8.801025e+000
1.482898e+003,1.077051e+001
1.483863e+003,5.044037e+000
1.484827e+003,8.851624e-001
1.485791e+003,1.998962e+000
1.486755e+003,4.853760e+000
1.487719e+003,6.352051e+000
1.488684e+003,6.550476e+000
1.489648e+003,6.502716e+000
1.490612e+003,6.683563e+000
1.491576e+003,7.814301e+000
1.492541e+003,1.059161e+001
1.493505e+003,1.431253e+001
1.494469e+003,1.820975e+001
1.495433e+003,2.181363e+001
1.496398e+003,2.232471e+001
1.497362e+003,1.840063e+001
1.498326e+003,1.554330e+001
1.499290e+003,1.703360e+001
1.500255e+003,2.082324e+001
1.501219e+003,2.473502e+001
1.502183e+003,2.846130e+001
1.503147e+003,3.065500e+001
1.504111e+003,3.046594e+001
1.505076e+003,3.168237e+001
1.506040e+003,3.760760e+001
1.507004e+003,4.485181e+001
1.507968e+003,4.998264e+001
1.508933e+003,5.380386e+001
1.509897e+003,5.776291e+001
1.510861e+003,6.245422e+001
1.511825e+003,6.854425e+001
1.512790e+003,7.641122e+001
1.513754e+003,8.550418e+001
1.514718e+003,9.506488e+001
1.515682e+003,1.049431e+002
1.516646e+003,1.153729e+002
1.517611e+003,1.267760e+002
1.518575e+003,1.382379e+002
1.519539e+003,1.504076e+002
1.520503e+003,1.619149e+002
1.521468e+003,1.731387e+002
1.522432e+003,1.825423e+002
1.523396e+003,1.878538e+002
1.524360e+003,1.890835e+002
1.525325e+003,1.884437e+002
1.526289e+003,1.874388e+002
1.527253e+003,1.851905e+002
1.528217e+003,1.798423e+002
1.529182e+003,1.714891e+002
1.530146e+003,1.637330e+002
1.531110e+003,1.583660e+002
1.532074e+003,1.498153e+002
1.533039e+003,1.355679e+002
1.534003e+003,1.201458e+002
1.534967e+003,1.048137e+002
1.535931e+003,9.057291e+001
1.536896e+003,7.853491e+001
1.537860e+003,6.843146e+001
1.538824e+003,5.865509e+001
1.539788e+003,4.836417e+001
1.540752e+003,3.892184e+001
1.541717e+003,3.225531e+001
1.542681e+003,2.808511e+001
1.543645e+003,2.380530e+001
1.544609e+003,1.920984e+001
1.545573e+003,1.562314e+001
1.546538e+003,1.249408e+001
1.547502e+003,1.054984e+001
1.548466e+003,1.103439e+001
1.549430e+003,1.246622e+001
1.550395e+003,1.327618e+001
1.551359e+003,1.344223e+001
1.552323e+003,1.377985e+001
1.553287e+003,1.456500e+001
1.554252e+003,1.497061e+001
1.555216e+003,1.408871e+001
1.556180e+003,1.277444e+001
1.557144e+003,1.359048e+001
1.558109e+003,1.666803e+001
1.559073e+003,1.641443e+001
1.560037e+003,1.019678e+001
1.561001e+003,5.441193e+000
1.561966e+003,5.896454e+000
1.562930e+003,8.046722e+000
1.563894e+003,8.519714e+000
1.564858e+003,7.892609e+000
1.565823e+003,8.449280e+000
1.566787e+003,1.048074e+001
1.567751e+003,1.130954e+001
1.568715e+003,9.121490e+000
1.569679e+003,6.284882e+000
1.570644e+003,5.579590e+000
1.571608e+003,6.457123e+000
1.572572e+003,7.877045e+000
1.573536e+003,9.959625e+000
1.574500e+003,1.101669e+001
1.575465e+003,9.797089e+000
1.576429e+003,8.353821e+000
1.577393e+003,8.635925e+000
1.578357e+003,9.610016e+000
1.579322e+003,9.023132e+000
1.580286e+003,6.964050e+000
1.581250e+003,6.050201e+000
1.582214e+003,7.347473e+000
1.583179e+003,8.847992e+000
1.584143e+003,8.662354e+000
1.585107e+003,8.097870e+000
1.586071e+003,9.641479e+000
1.587036e+003,1.260336e+001
1.588000e+003,1.411749e+001
1.588964e+003,1.339746e+001
1.589928e+003,1.205594e+001
1.590893e+003,1.082706e+001
1.591857e+003,9.954712e+000
1.592821e+003,9.969818e+000
1.593785e+003,1.075806e+001
1.594750e+003,1.150406e+001
1.595714e+003,1.205490e+001
1.596678e+003,1.235007e+001
1.597642e+003,1.204712e+001
1.598606e+003,1.200687e+001
1.599571e+003,1.337119e+001
1.600535e+003,1.522131e+001
1.601499e+003,1.640088e+001
1.602463e+003,1.679779e+001
1.603427e+003,1.656055e+001
1.604392e+003,1.565985e+001
1.605356e+003,1.498364e+001
1.606320e+003,1.575220e+001
1.607284e+003,1.735086e+001
1.608249e+003,1.800543e+001
1.609213e+003,1.769232e+001
1.610177e+003,1.700677e+001
1.611141e+003,1.589700e+001
1.612106e+003,1.480038e+001
1.613070e+003,1.320529e+001
1.614034e+003,1.237210e+001
1.614998e+003,1.424152e+001
1.615963e+003,1.712305e+001
1.616927e+003,1.814383e+001
1.617891e+003,1.685403e+001
1.618855e+003,1.414313e+001
1.619820e+003,1.011459e+001
1.620784e+003,6.548157e+000
1.621748e+003,6.911957e+000
1.622712e+003,1.066714e+001
1.623677e+003,1.294669e+001
1.624641e+003,1.350662e+001
1.625605e+003,1.392206e+001
1.626569e+003,1.395032e+001
1.627533e+003,1.396274e+001
1.628498e+003,1.451508e+001
1.629462e+003,1.518860e+001
1.630426e+003,1.565042e+001
1.631390e+003,1.585376e+001
1.632354e+003,1.581723e+001
1.633319e+003,1.553293e+001
1.634283e+003,1.495038e+001
1.635247e+003,1.393979e+001
1.636211e+003,1.278680e+001
1.637176e+003,1.195627e+001
1.638140e+003,1.154810e+001
1.639104e+003,1.212192e+001
1.640068e+003,1.403448e+001
1.641033e+003,1.529019e+001
1.641997e+003,1.506897e+001
1.642961e+003,1.473212e+001
1.643925e+003,1.499158e+001
1.644890e+003,1.541519e+001
1.645854e+003,1.553302e+001
1.646818e+003,1.539297e+001
1.647782e+003,1.515424e+001
1.648747e+003,1.490363e+001
1.649711e+003,1.517960e+001
1.650675e+003,1.676556e+001
1.651639e+003,1.875165e+001
1.652604e+003,1.891367e+001
1.653568e+003,1.722632e+001
1.654532e+003,1.531973e+001
1.655496e+003,1.289261e+001
1.656460e+003,1.170407e+001
1.657425e+003,1.362521e+001
1.658389e+003,1.518967e+001
1.659353e+003,1.387570e+001
1.660317e+003,1.174640e+001
1.661281e+003,1.129285e+001
1.662246e+003,1.195496e+001
1.663210e+003,1.142462e+001
1.664174e+003,9.045685e+000
1.665138e+003,6.590668e+000
1.666103e+003,5.305115e+000
1.667067e+003,5.073944e+000
1.668031e+003,6.183655e+000
1.668995e+003,8.522156e+000
1.669960e+003,9.883240e+000
1.670924e+003,9.981171e+000
1.671888e+003,9.795074e+000
1.672852e+003,9.116760e+000
1.673817e+003,8.781708e+000
1.674781e+003,9.609314e+000
1.675745e+003,1.078229e+001
1.676709e+003,1.157239e+001
1.677674e+003,1.187729e+001
1.678638e+003,1.161465e+001
1.679602e+003,1.076740e+001
1.680566e+003,9.700989e+000
1.681531e+003,8.740295e+000
1.682495e+003,7.887207e+000
1.683459e+003,6.778534e+000
1.684423e+003,5.469452e+000
1.685387e+003,5.168610e+000
1.686352e+003,6.249298e+000
1.687316e+003,6.481201e+000
1.688280e+003,4.424683e+000
1.689244e+003,2.724030e+000
1.690208e+003,4.091217e+000
1.691173e+003,6.251617e+000
1.692137e+003,6.783875e+000
1.693101e+003,6.119446e+000
1.694065e+003,5.684082e+000
1.695030e+003,5.696686e+000
1.695994e+003,5.163147e+000
1.696958e+003,3.096161e+000
1.697922e+003,8.143311e-001
1.698887e+003,-1.134033e-001
1.699851e+003,1.312561e-001
1.700815e+003,1.142761e+000
1.701779e+003,2.766296e+000
1.702744e+003,3.589050e+000
1.703708e+003,3.029022e+000
1.704672e+003,2.968781e+000
1.705636e+003,5.284088e+000
1.706601e+003,7.846069e+000
1.707565e+003,7.313568e+000
1.708529e+003,4.757843e+000
1.709493e+003,3.245605e+000
1.710458e+003,3.225433e+000
1.711422e+003,3.028168e+000
1.712386e+003,1.611023e+000
1.713350e+003,4.644775e-001
1.714314e+003,8.548584e-001
1.715279e+003,1.952423e+000
1.716243e+003,2.579956e+000
1.717207e+003,2.725830e+000
1.718171e+003,2.866547e+000
1.719135e+003,3.168823e+000
1.720100e+003,3.323059e+000
1.721064e+003,3.160858e+000
1.722028e+003,2.315308e+000
1.722992e+003,-2.322083e-001
1.723957e+003,-3.620575e+000
1.724921e+003,-3.398346e+000
1.725885e+003,1.032379e+000
1.726849e+003,3.264008e+000
1.727814e+003,7.425232e-001
1.728778e+003,-1.424561e+000
1.729742e+003,-7.583008e-001
1.730706e+003,8.578186e-001
1.731671e+003,1.851257e+000
1.732635e+003,1.924561e+000
1.733599e+003,9.161072e-001
1.734563e+003,-7.983398e-001
1.735528e+003,-2.196686e+000
1.736492e+003,-2.813873e+000
1.737456e+003,-2.566986e+000
1.738420e+003,-1.180328e+000
1.739385e+003,6.463318e-001
1.740349e+003,7.038879e-001
1.741313e+003,-1.426239e+000
1.742277e+003,-2.586182e+000
1.743241e+003,-2.320709e+000
1.744206e+003,-1.623505e+000
1.745170e+003,5.786133e-002
1.746134e+003,1.196838e+000
1.747098e+003,4.428406e-001
1.748063e+003,-9.471436e-001
1.749027e+003,-1.505890e+000
1.749991e+003,-1.274323e+000
1.750955e+003,-9.719849e-001
1.751919e+003,-9.335022e-001
1.752884e+003,-1.165710e+000
1.753848e+003,-1.678284e+000
1.754812e+003,-2.387665e+000
1.755776e+003,-3.057617e+000
1.756741e+003,-3.539520e+000
1.757705e+003,-3.393768e+000
1.758669e+003,-2.316986e+000
1.759633e+003,-1.910919e+000
1.760598e+003,-3.348694e+000
1.761562e+003,-4.242432e+000
1.762526e+003,-2.548920e+000
1.763490e+003,-1.136993e+000
1.764455e+003,-2.702515e+000
1.765419e+003,-5.527405e+000
1.766383e+003,-7.122711e+000
1.767347e+003,-7.135468e+000
1.768312e+003,-6.096680e+000
1.769276e+003,-4.277679e+000
1.770240e+003,-2.272888e+000
1.771204e+003,-2.016602e-001
1.772168e+003,1.616302e+000
1.773133e+003,1.968445e+000
1.774097e+003,9.687805e-001
1.775061e+003,-3.538513e-001
1.776025e+003,-2.204742e+000
1.776990e+003,-3.303772e+000
1.777954e+003,-2.783173e+000
1.778918e+003,-1.863251e+000
1.779882e+003,-1.401031e+000
1.780846e+003,-1.348053e+000
1.781811e+003,-1.411591e+000
1.782775e+003,-1.613647e+000
1.783739e+003,-2.386322e+000
1.784703e+003,-3.858429e+000
1.785668e+003,-4.450500e+000
1.786632e+003,-3.249237e+000
1.787596e+003,-1.716125e+000
1.788560e+003,-7.708740e-002
1.789525e+003,1.073334e+000
1.790489e+003,1.680908e-001
1.791453e+003,-2.193726e+000
1.792417e+003,-4.042633e+000
1.793382e+003,-4.848267e+000
1.794346e+003,-4.448517e+000
1.795310e+003,-2.708313e+000
1.796274e+003,-4.902039e-001
1.797239e+003,1.530060e+000
1.798203e+003,3.152069e+000
1.799167e+003,2.938385e+000
1.800131e+003,1.236267e-001
1.801095e+003,-1.671631e+000
1.802060e+003,-1.180878e+000
1.803024e+003,-1.164185e+000
1.803988e+003,-3.234894e+000
1.804952e+003,-4.394958e+000
1.805917e+003,-1.867157e+000
1.806881e+003,1.090912e+000
1.807845e+003,5.559998e-001
1.808809e+003,-1.895752e+000
1.809773e+003,-1.969788e+000
1.810738e+003,7.472229e-001
1.811702e+003,2.255341e+000
1.812666e+003,8.630371e-002
1.813630e+003,-3.062927e+000
1.814595e+003,-3.500366e+000
1.815559e+003,-2.008148e+000
1.816523e+003,-1.738983e+000
1.817487e+003,-2.851257e+000
1.818452e+003,-2.884430e+000
1.819416e+003,-1.127228e+000
1.820380e+003,4.653320e-001
1.821344e+003,1.634094e+000
1.822309e+003,1.803558e+000
1.823273e+003,-9.783936e-002
1.824237e+003,-2.305145e+000
1.825201e+003,-3.147675e+000
1.826166e+003,-2.920715e+000
1.827130e+003,-2.526703e+000
1.828094e+003,-2.181366e+000
1.829058e+003,-1.473328e+000
1.830022e+003,3.255615e-001
1.830987e+003,1.663391e+000
1.831951e+003,7.347107e-001
1.832915e+003,-1.050629e+000
1.833879e+003,-1.794159e+000
1.834844e+003,-1.594574e+000
1.835808e+003,-7.438354e-001
1.836772e+003,5.488281e-001
1.837736e+003,9.720764e-001
1.838700e+003,-1.489258e-001
1.839665e+003,-1.668732e+000
1.840629e+003,-2.559235e+000
1.841593e+003,-2.811310e+000
1.842557e+003,-2.439819e+000
1.843522e+003,-1.465271e+000
1.844486e+003,-8.114014e-001
1.845450e+003,-3.250732e-001
1.846414e+003,-8.178711e-002
1.847379e+003,-7.168579e-002
1.848343e+003,-8.474731e-001
1.849307e+003,-3.616669e+000
1.850271e+003,-5.956726e+000
1.851236e+003,-5.623352e+000
1.852200e+003,-3.959381e+000
1.853164e+003,-3.077362e+000
1.854128e+003,-3.180969e+000
1.855093e+003,-3.190674e+000
1.856057e+003,-2.582245e+000
1.857021e+003,-1.872284e+000
1.857985e+003,-1.539124e+000
1.858949e+003,-1.639313e+000
1.859914e+003,-2.840302e+000
1.860878e+003,-4.558472e+000
1.861842e+003,-2.979614e+000
1.862806e+003,1.977844e+000
1.863771e+003,4.147156e+000
1.864735e+003,1.729858e+000
1.865699e+003,-1.564026e-001
1.866663e+003,1.046143e+000
1.867627e+003,3.138977e+000
1.868592e+003,4.913055e+000
1.869556e+003,5.512878e+000
1.870520e+003,2.803314e+000
1.871484e+003,-2.536957e+000
1.872449e+003,-5.832336e+000
1.873413e+003,-6.004669e+000
1.874377e+003,-4.875214e+000
1.875341e+003,-2.403381e+000
1.876306e+003,-2.298279e-001
1.877270e+003,8.846436e-001
1.878234e+003,1.082031e+000
1.879198e+003,-1.541748e-001
1.880163e+003,-1.746979e+000
1.881127e+003,-1.726929e+000
1.882091e+003,-9.356689e-002
1.883055e+003,1.907898e+000
1.884020e+003,3.599884e+000
1.884984e+003,4.375549e+000
1.885948e+003,3.653473e+000
1.886912e+003,2.292084e+000
1.887876e+003,2.100464e+000
1.888841e+003,2.962219e+000
1.889805e+003,3.159515e+000
1.890769e+003,2.508392e+000
1.891733e+003,2.251526e+000
1.892698e+003,2.741150e+000
1.893662e+003,2.704651e+000
1.894626e+003,1.126617e+000
1.895590e+003,-2.061462e-001
1.896554e+003,4.171753e-002
1.897519e+003,1.278534e+000
1.898483e+003,3.236847e+000
1.899447e+003,5.313568e+000
1.900411e+003,5.882996e+000
1.901376e+003,4.632568e+000
1.902340e+003,3.799927e+000
1.903304e+003,4.620728e+000
1.904268e+003,5.370270e+000
1.905233e+003,5.428802e+000
1.906197e+003,4.632751e+000
1.907161e+003,1.766815e+000
1.908125e+003,-1.480713e+000
1.909090e+003,-1.826691e+000
1.910054e+003,2.522888e-001
1.911018e+003,1.609497e+000
1.911982e+003,1.333710e+000
1.912947e+003,1.305969e+000
1.913911e+003,2.869537e+000
1.914875e+003,4.599945e+000
1.915839e+003,4.073700e+000
1.916803e+003,1.842102e+000
1.917768e+003,1.517944e+000
1.918732e+003,3.633728e+000
1.919696e+003,4.928284e+000
1.920660e+003,5.433319e+000
1.921625e+003,5.064392e+000
1.922589e+003,2.701172e+000
1.923553e+003,1.021637e+000
1.924517e+003,2.223969e+000
1.925481e+003,4.073730e+000
1.926446e+003,4.744263e+000
1.927410e+003,4.606140e+000
1.928374e+003,4.208344e+000
1.929338e+003,3.585663e+000
1.930303e+003,3.449951e+000
1.931267e+003,4.428284e+000
1.932231e+003,5.244385e+000
1.933195e+003,5.137787e+000
1.934160e+003,4.550934e+000
1.935124e+003,3.058594e+000
1.936088e+003,1.777466e+000
1.937052e+003,2.791718e+000
1.938017e+003,5.101898e+000
1.938981e+003,6.097198e+000
1.939945e+003,5.496826e+000
1.940909e+003,4.864075e+000
1.941874e+003,4.864716e+000
1.942838e+003,4.697174e+000
1.943802e+003,3.718170e+000
1.944766e+003,2.513611e+000
1.945730e+003,1.915680e+000
1.946695e+003,1.780701e+000
1.947659e+003,1.808136e+000
1.948623e+003,1.942078e+000
1.949587e+003,2.580048e+000
1.950552e+003,4.179047e+000
1.951516e+003,4.827057e+000
1.952480e+003,3.300629e+000
1.953444e+003,1.929138e+000
1.954408e+003,2.431885e+000
1.955373e+003,3.689667e+000
1.956337e+003,4.509430e+000
1.957301e+003,5.069092e+000
1.958265e+003,5.345642e+000
1.959230e+003,5.292755e+000
1.960194e+003,5.541534e+000
1.961158e+003,6.490631e+000
1.962122e+003,6.735382e+000
1.963087e+003,5.324036e+000
1.964051e+003,3.922394e+000
1.965015e+003,3.678436e+000
1.965979e+003,4.027008e+000
1.966944e+003,4.404114e+000
1.967908e+003,4.559387e+000
1.968872e+003,4.036652e+000
1.969836e+003,3.183868e+000
1.970801e+003,3.567810e+000
1.971765e+003,5.737640e+000
1.972729e+003,7.524719e+000
1.973693e+003,7.012207e+000
1.974657e+003,5.337280e+000
1.975622e+003,3.435059e+000
1.976586e+003,1.871643e+000
1.977550e+003,2.856934e+000
1.978514e+003,5.950531e+000
1.979479e+003,8.287415e+000
1.980443e+003,9.395935e+000
1.981407e+003,9.863098e+000
1.982371e+003,9.959808e+000
1.983335e+003,9.642365e+000
1.984300e+003,8.751862e+000
1.985264e+003,7.405609e+000
1.986228e+003,5.729156e+000
1.987192e+003,4.054749e+000
1.988157e+003,4.295471e+000
1.989121e+003,7.190186e+000
1.990085e+003,8.456635e+000
1.991049e+003,7.208130e+000
1.992014e+003,6.313263e+000
1.992978e+003,6.226715e+000
1.993942e+003,6.195496e+000
1.994906e+003,5.796875e+000
1.995871e+003,5.543976e+000
1.996835e+003,5.952850e+000
1.997799e+003,6.767029e+000
1.998763e+003,7.926208e+000
1.999728e+003,8.989380e+000
