5.003444e+002,2.798651e+001
5.013087e+002,2.874283e+001
5.022729e+002,2.924277e+001
5.032371e+002,2.945316e+001
5.042014e+002,2.874457e+001
5.051656e+002,2.730298e+001
5.061298e+002,2.578168e+001
5.070941e+002,2.469312e+001
5.080583e+002,2.394928e+001
5.090225e+002,2.374710e+001
5.099868e+002,2.444537e+001
5.109510e+002,2.511411e+001
5.119152e+002,2.529556e+001
5.128795e+002,2.496188e+001
5.138437e+002,2.450839e+001
5.148079e+002,2.446097e+001
5.157722e+002,2.406729e+001
5.167364e+002,2.234244e+001
5.177006e+002,1.953015e+001
5.186649e+002,1.723849e+001
5.196291e+002,1.862857e+001
5.205933e+002,2.119943e+001
5.215576e+002,2.127917e+001
5.225218e+002,1.869446e+001
5.234860e+002,1.559198e+001
5.244503e+002,1.610474e+001
5.254145e+002,2.199039e+001
5.263787e+002,2.544766e+001
5.273430e+002,2.544214e+001
5.283072e+002,2.374966e+001
5.292714e+002,2.281226e+001
5.302357e+002,2.331873e+001
5.311999e+002,2.236679e+001
5.321641e+002,1.854550e+001
5.331284e+002,1.458194e+001
5.340926e+002,1.263458e+001
5.350568e+002,1.349536e+001
5.360211e+002,1.499356e+001
5.369853e+002,1.556619e+001
5.379495e+002,1.582855e+001
5.389138e+002,1.615750e+001
5.398780e+002,1.668906e+001
5.408422e+002,1.729486e+001
5.418065e+002,1.777151e+001
5.427707e+002,1.810248e+001
5.437349e+002,1.804556e+001
5.446992e+002,1.745740e+001
5.456634e+002,1.642587e+001
5.466276e+002,1.532175e+001
5.475919e+002,1.442505e+001
5.485561e+002,1.316687e+001
5.495203e+002,1.099649e+001
5.504846e+002,8.498505e+000
5.514488e+002,6.438904e+000
5.524130e+002,4.903259e+000
5.533773e+002,4.698669e+000
5.543415e+002,6.789307e+000
5.553057e+002,9.728821e+000
5.562700e+002,1.214700e+001
5.572342e+002,1.317731e+001
5.581984e+002,1.308780e+001
5.591627e+002,1.234512e+001
5.601269e+002,1.130716e+001
5.610911e+002,1.054739e+001
5.620554e+002,1.033920e+001
5.630196e+002,1.051688e+001
5.639838e+002,1.013681e+001
5.649481e+002,8.911560e+000
5.659123e+002,7.581421e+000
5.668765e+002,6.442657e+000
5.678408e+002,5.506989e+000
5.688050e+002,4.452698e+000
5.697692e+002,2.144287e+000
5.707335e+002,8.212891e-001
5.716977e+002,2.267059e+000
5.726619e+002,4.792450e+000
5.736262e+002,5.990295e+000
5.745904e+002,4.032745e+000
5.755546e+002,1.148346e+000
5.765189e+002,8.164978e-001
5.774831e+002,1.972473e+000
5.784473e+002,3.087524e+000
5.794116e+002,3.189453e+000
5.803758e+002,2.470062e+000
5.813400e+002,1.924011e+000
5.823043e+002,1.413025e+000
5.832685e+002,7.369385e-001
5.842327e+002,-5.811462e-001
5.851970e+002,-2.140594e+000
5.861612e+002,-1.955139e+000
5.871254e+002,2.600037e+000
5.880897e+002,6.167084e+000
5.890539e+002,7.413330e+000
5.900181e+002,6.956879e+000
5.909824e+002,5.938141e+000
5.919466e+002,4.885223e+000
5.929108e+002,4.035431e+000
5.938751e+002,3.719666e+000
5.948393e+002,3.658508e+000
5.958035e+002,3.323578e+000
5.967678e+002,2.365753e+000
5.977320e+002,1.065277e+000
5.986962e+002,1.432190e+000
5.996605e+002,3.290039e+000
6.006247e+002,4.871918e+000
6.015889e+002,5.551514e+000
6.025532e+002,5.350952e+000
6.035174e+002,4.411041e+000
6.044816e+002,1.098755e+000
6.054459e+002,-1.101837e+000
6.064101e+002,-1.333557e+000
6.073743e+002,-1.777649e-001
6.083386e+002,1.488800e+000
6.093028e+002,3.860687e+000
6.102670e+002,5.346008e+000
6.112313e+002,4.008301e+000
6.121955e+002,1.484924e+000
6.131597e+002,6.774902e-003
6.141240e+002,1.074249e+000
6.150882e+002,3.889282e+000
6.160524e+002,5.297119e+000
6.170167e+002,5.623962e+000
6.179809e+002,5.348236e+000
6.189451e+002,4.236298e+000
6.199094e+002,2.466644e+000
6.208736e+002,2.022400e+000
6.218378e+002,5.781952e+000
6.228021e+002,7.860809e+000
6.237663e+002,6.601135e+000
6.247305e+002,3.697205e+000
6.256948e+002,1.873688e+000
6.266590e+002,2.340576e+000
6.276232e+002,3.257629e+000
6.285875e+002,3.642120e+000
6.295517e+002,3.860016e+000
6.305159e+002,4.307678e+000
6.314802e+002,5.134613e+000
6.324444e+002,5.978424e+000
6.334086e+002,6.317169e+000
6.343729e+002,6.239044e+000
6.353371e+002,4.846832e+000
6.363013e+002,1.488098e+000
6.372656e+002,-3.085602e+000
6.382298e+002,-6.061523e+000
6.391940e+002,-6.640961e+000
6.401583e+002,-6.401947e+000
6.411225e+002,-4.341217e+000
6.420867e+002,-1.683868e+000
6.430510e+002,-6.250000e-002
6.440152e+002,-3.002625e-001
6.449794e+002,-8.102112e-001
6.459437e+002,-9.173279e-001
6.469079e+002,-7.794495e-001
6.478721e+002,-1.952209e-001
6.488364e+002,7.925110e-001
6.498006e+002,1.606445e+000
6.507648e+002,7.423401e-001
6.517291e+002,-1.174286e+000
6.526933e+002,-2.487701e+000
6.536575e+002,-2.888947e+000
6.546218e+002,-2.738312e+000
6.555860e+002,-2.762207e+000
6.565502e+002,-3.480896e+000
6.575145e+002,-3.108978e+000
6.584787e+002,-4.390869e-001
6.594429e+002,2.244446e+000
6.604072e+002,2.932007e+000
6.613714e+002,1.166626e+000
6.623356e+002,-5.614014e-001
6.632999e+002,-1.018127e+000
6.642641e+002,-1.379791e+000
6.652283e+002,-2.406616e+000
6.661926e+002,-3.873840e+000
6.671568e+002,-4.754944e+000
6.681210e+002,-3.588165e+000
6.690853e+002,-1.332672e+000
6.700495e+002,-5.910950e-001
6.710137e+002,-1.309357e+000
6.719780e+002,-2.083740e+000
6.729422e+002,-1.341217e+000
6.739064e+002,1.351654e+000
6.748707e+002,2.520203e+000
6.758349e+002,1.433533e+000
6.767991e+002,9.597778e-002
6.777634e+002,-7.307129e-001
6.787276e+002,-9.237976e-001
6.796918e+002,-5.841370e-001
6.806561e+002,2.023621e-001
6.816203e+002,1.377991e+000
6.825845e+002,4.034912e+000
6.835488e+002,6.853363e+000
6.845130e+002,7.488892e+000
6.854772e+002,3.985229e+000
6.864415e+002,-1.267700e+000
6.874057e+002,-3.382233e+000
6.883699e+002,-3.212860e+000
6.893342e+002,-1.898254e+000
6.902984e+002,1.321716e-001
6.912626e+002,2.634735e+000
6.922269e+002,3.603516e+000
6.931911e+002,2.066772e+000
6.941553e+002,7.196350e-001
6.951196e+002,-1.234772e+000
6.960838e+002,-2.854889e+000
6.970480e+002,-1.996918e+000
6.980123e+002,3.442719e+000
6.989765e+002,7.242950e+000
6.999407e+002,6.205505e+000
7.009050e+002,3.358398e+000
7.018692e+002,6.430664e-001
7.028334e+002,-1.090393e+000
7.037977e+002,-1.957245e+000
7.047619e+002,-1.377502e+000
7.057261e+002,-9.890747e-002
7.066904e+002,-2.958374e-001
7.076546e+002,-2.317688e+000
7.086188e+002,-4.542694e+000
7.095831e+002,-4.273560e+000
7.105473e+002,-2.658997e-001
7.115115e+002,2.050812e+000
7.124758e+002,2.323975e+000
7.134400e+002,1.587280e+000
7.144042e+002,-2.010498e-001
7.153685e+002,-2.838867e+000
7.163327e+002,-4.022339e+000
7.172969e+002,-7.406616e-001
7.182612e+002,2.525635e+000
7.192254e+002,4.118622e+000
7.201896e+002,4.119507e+000
7.211539e+002,3.017090e+000
7.221181e+002,1.051910e+000
7.230823e+002,-1.063019e+000
7.240466e+002,-1.310791e+000
7.250108e+002,2.392578e-002
7.259750e+002,1.538910e+000
7.269393e+002,2.322906e+000
7.279035e+002,2.275970e+000
7.288677e+002,1.937775e+000
7.298320e+002,1.024597e+000
7.307962e+002,8.550110e-001
7.317604e+002,2.040680e+000
7.327247e+002,3.854462e+000
7.336889e+002,5.249786e+000
7.346531e+002,5.781586e+000
7.356174e+002,5.432800e+000
7.365816e+002,4.464386e+000
7.375458e+002,3.187164e+000
7.385101e+002,1.418182e+000
7.394743e+002,-6.516418e-001
7.404385e+002,-2.244751e+000
7.414028e+002,-1.985168e+000
7.423670e+002,-5.796509e-001
7.433312e+002,-1.277466e-001
7.442955e+002,-6.026001e-001
7.452597e+002,-1.087555e+000
7.462239e+002,-5.659485e-001
7.471882e+002,1.262970e+000
7.481524e+002,2.452148e+000
7.491166e+002,2.339325e+000
7.500809e+002,2.018707e+000
7.510451e+002,2.077148e+000
7.520093e+002,2.318634e+000
7.529736e+002,1.911194e+000
7.539378e+002,1.489868e-001
7.549020e+002,-1.447388e+000
7.558663e+002,-2.093140e+000
7.568306e+002,-1.999847e+000
7.577948e+002,-1.377686e+000
7.587590e+002,-4.485168e-001
7.597233e+002,4.805603e-001
7.606875e+002,6.854553e-001
7.616517e+002,3.753662e-001
7.626160e+002,2.962646e-001
7.635802e+002,6.593018e-001
7.645444e+002,1.393738e+000
7.655087e+002,2.414154e+000
7.664729e+002,4.158997e+000
7.674371e+002,5.020752e+000
7.684014e+002,4.347198e+000
7.693656e+002,3.422363e+000
7.703298e+002,3.379211e+000
7.712941e+002,4.220398e+000
7.722583e+002,4.422302e+000
7.732225e+002,2.354858e+000
7.741868e+002,-4.074097e-001
7.751510e+002,-3.177246e+000
7.761152e+002,-5.534576e+000
7.770795e+002,-6.892151e+000
7.780437e+002,-6.739014e+000
7.790079e+002,-5.263885e+000
7.799722e+002,-3.320679e+000
7.809364e+002,-7.188416e-001
7.819006e+002,1.059601e+000
7.828649e+002,8.773804e-001
7.838291e+002,-4.324341e-001
7.847933e+002,-2.035828e-001
7.857576e+002,2.717010e+000
7.867218e+002,4.919830e+000
7.876860e+002,5.899597e+000
7.886503e+002,6.279907e+000
7.896145e+002,6.490784e+000
7.905787e+002,6.674500e+000
7.915430e+002,6.795227e+000
7.925072e+002,6.711243e+000
7.934714e+002,6.298645e+000
7.944357e+002,5.533295e+000
7.953999e+002,4.567963e+000
7.963641e+002,3.567932e+000
7.973284e+002,2.616364e+000
7.982926e+002,1.672546e+000
7.992568e+002,1.940338e+000
8.002211e+002,3.695465e+000
8.011853e+002,5.110901e+000
8.021495e+002,6.031738e+000
8.031138e+002,6.568359e+000
8.040780e+002,6.276886e+000
8.050422e+002,3.941772e+000
8.060065e+002,2.172119e+000
8.069707e+002,1.609039e+000
8.079349e+002,1.837585e+000
8.088992e+002,2.805878e+000
8.098634e+002,4.421417e+000
8.108276e+002,6.103973e+000
8.117919e+002,6.945557e+000
8.127561e+002,6.810425e+000
8.137203e+002,5.784393e+000
8.146846e+002,4.070435e+000
8.156488e+002,2.294708e+000
8.166130e+002,1.065247e+000
8.175773e+002,3.106689e-001
8.185415e+002,3.055115e-001
8.195057e+002,1.677277e+000
8.204700e+002,2.595123e+000
8.214342e+002,1.721252e+000
8.223984e+002,-5.850220e-002
8.233627e+002,-2.264404e-001
8.243269e+002,2.910522e+000
8.252911e+002,6.274872e+000
8.262554e+002,8.279999e+000
8.272196e+002,9.394348e+000
8.281838e+002,9.928436e+000
8.291481e+002,1.007794e+001
8.301123e+002,1.003195e+001
8.310765e+002,1.021878e+001
8.320408e+002,1.046088e+001
8.330050e+002,9.747070e+000
8.339692e+002,7.929474e+000
8.349335e+002,5.599762e+000
8.358977e+002,2.925232e+000
8.368619e+002,-3.706970e-001
8.378262e+002,-1.272919e+000
8.387904e+002,2.440125e+000
8.397546e+002,5.817596e+000
8.407189e+002,7.883087e+000
8.416831e+002,8.772461e+000
8.426473e+002,8.810333e+000
8.436116e+002,7.980133e+000
8.445758e+002,7.108032e+000
8.455400e+002,7.038208e+000
8.465043e+002,7.110809e+000
8.474685e+002,6.684326e+000
8.484327e+002,5.767700e+000
8.493970e+002,4.965881e+000
8.503612e+002,5.118195e+000
8.513254e+002,6.362030e+000
8.522897e+002,7.127350e+000
8.532539e+002,7.277863e+000
8.542181e+002,7.007965e+000
8.551824e+002,6.346893e+000
8.561466e+002,5.542267e+000
8.571108e+002,5.374634e+000
8.580751e+002,5.780792e+000
8.590393e+002,6.430420e+000
8.600035e+002,7.318939e+000
8.609678e+002,8.584595e+000
8.619320e+002,1.066818e+001
8.628962e+002,1.360910e+001
8.638605e+002,1.636084e+001
8.648247e+002,1.722327e+001
8.657889e+002,1.664630e+001
8.667532e+002,1.523538e+001
8.677174e+002,1.307971e+001
8.686816e+002,1.139508e+001
8.696459e+002,1.184335e+001
8.706101e+002,1.498965e+001
8.715743e+002,1.660867e+001
8.725386e+002,1.573077e+001
8.735028e+002,1.477380e+001
8.744670e+002,1.394757e+001
8.754313e+002,1.330035e+001
8.763955e+002,1.291144e+001
8.773597e+002,1.279221e+001
8.783240e+002,1.336584e+001
8.792882e+002,1.581659e+001
8.802524e+002,1.831232e+001
8.812167e+002,1.899475e+001
8.821809e+002,1.771439e+001
8.831451e+002,1.573239e+001
8.841094e+002,1.463980e+001
8.850736e+002,1.463116e+001
8.860378e+002,1.590454e+001
8.870021e+002,1.866006e+001
8.879663e+002,2.140952e+001
8.889305e+002,2.366681e+001
8.898948e+002,2.524268e+001
8.908590e+002,2.522736e+001
8.918232e+002,2.222916e+001
8.927875e+002,2.008841e+001
8.937517e+002,1.962579e+001
8.947159e+002,2.021466e+001
8.956802e+002,2.160092e+001
8.966444e+002,2.342538e+001
8.976086e+002,2.485880e+001
8.985729e+002,2.498141e+001
8.995371e+002,2.458588e+001
9.005013e+002,2.498038e+001
9.014656e+002,2.610056e+001
9.024298e+002,2.709335e+001
9.033940e+002,2.716684e+001
9.043583e+002,2.638547e+001
9.053225e+002,2.628320e+001
9.062867e+002,2.845285e+001
9.072510e+002,2.889398e+001
9.082152e+002,2.615784e+001
9.091794e+002,2.291428e+001
9.101437e+002,2.169315e+001
9.111079e+002,2.288367e+001
9.120721e+002,2.504584e+001
9.130364e+002,2.879568e+001
9.140006e+002,3.172061e+001
9.149648e+002,3.201013e+001
9.159291e+002,3.056699e+001
9.168933e+002,2.916040e+001
9.178575e+002,2.896674e+001
9.188218e+002,2.962109e+001
9.197860e+002,3.040073e+001
9.207502e+002,3.129846e+001
9.217145e+002,3.098499e+001
9.226787e+002,2.885199e+001
9.236429e+002,2.611157e+001
9.246072e+002,2.419388e+001
9.255714e+002,2.305530e+001
9.265356e+002,2.230530e+001
9.274999e+002,2.235794e+001
9.284641e+002,2.213153e+001
9.294283e+002,2.097879e+001
9.303926e+002,1.945889e+001
9.313568e+002,1.847165e+001
9.323210e+002,1.846036e+001
9.332853e+002,1.914011e+001
9.342495e+002,2.093433e+001
9.352137e+002,2.289313e+001
9.361780e+002,2.334769e+001
9.371422e+002,2.208008e+001
9.381064e+002,2.019724e+001
9.390707e+002,1.896277e+001
9.400349e+002,1.820959e+001
9.409991e+002,1.813297e+001
9.419634e+002,1.959851e+001
9.429276e+002,2.046591e+001
9.438918e+002,1.947943e+001
9.448561e+002,1.783124e+001
9.458203e+002,1.780692e+001
9.467845e+002,2.043054e+001
9.477488e+002,2.294342e+001
9.487130e+002,2.327542e+001
9.496772e+002,2.256976e+001
9.506415e+002,2.123712e+001
9.516057e+002,1.961255e+001
9.525699e+002,1.809818e+001
9.535342e+002,1.703439e+001
9.544984e+002,1.645193e+001
9.554626e+002,1.754523e+001
9.564269e+002,2.103177e+001
9.573911e+002,2.363937e+001
9.583553e+002,2.410959e+001
9.593196e+002,2.326718e+001
9.602838e+002,2.237625e+001
9.612480e+002,2.142587e+001
9.622123e+002,2.043600e+001
9.631765e+002,1.912689e+001
9.641407e+002,1.816168e+001
9.651050e+002,1.806171e+001
9.660692e+002,1.843082e+001
9.670334e+002,1.845944e+001
9.679977e+002,1.771622e+001
9.689619e+002,1.689334e+001
9.699261e+002,1.735776e+001
9.708904e+002,1.860733e+001
9.718546e+002,1.969724e+001
9.728188e+002,2.036780e+001
9.737831e+002,2.076392e+001
9.747473e+002,2.100378e+001
9.757115e+002,2.098355e+001
9.766758e+002,2.170404e+001
9.776400e+002,2.446915e+001
9.786042e+002,2.664346e+001
9.795685e+002,2.751990e+001
9.805327e+002,2.725735e+001
9.814969e+002,2.592813e+001
9.824612e+002,2.364209e+001
9.834254e+002,2.172681e+001
9.843896e+002,2.206866e+001
9.853539e+002,2.283890e+001
9.863181e+002,2.166144e+001
9.872823e+002,1.872360e+001
9.882466e+002,1.614038e+001
9.892108e+002,1.589221e+001
9.901750e+002,1.777866e+001
9.911393e+002,1.876321e+001
9.921035e+002,1.739362e+001
9.930677e+002,1.657727e+001
9.940320e+002,1.642377e+001
9.949962e+002,1.716116e+001
9.959604e+002,1.950571e+001
9.969247e+002,2.339594e+001
9.978889e+002,2.664981e+001
9.988531e+002,2.795584e+001
9.998174e+002,2.810928e+001
1.000782e+003,2.721756e+001
1.001746e+003,2.602158e+001
1.002710e+003,2.549973e+001
1.003674e+003,2.600726e+001
1.004639e+003,2.691797e+001
1.005603e+003,2.705908e+001
1.006567e+003,2.629224e+001
1.007531e+003,2.701010e+001
1.008495e+003,3.027911e+001
1.009460e+003,3.292975e+001
1.010424e+003,3.270007e+001
1.011388e+003,3.031516e+001
1.012352e+003,2.855780e+001
1.013317e+003,2.788727e+001
1.014281e+003,2.740198e+001
1.015245e+003,2.649017e+001
1.016209e+003,2.571237e+001
1.017174e+003,2.602979e+001
1.018138e+003,2.706415e+001
1.019102e+003,2.729520e+001
1.020066e+003,2.546497e+001
1.021031e+003,2.227664e+001
1.021995e+003,1.905051e+001
1.022959e+003,1.570789e+001
1.023923e+003,1.317398e+001
1.024887e+003,1.185599e+001
1.025852e+003,1.122589e+001
1.026816e+003,1.046881e+001
1.027780e+003,9.561096e+000
1.028744e+003,9.240143e+000
1.029709e+003,1.077713e+001
1.030673e+003,1.141049e+001
1.031637e+003,9.345001e+000
1.032601e+003,6.179779e+000
1.033566e+003,4.293762e+000
1.034530e+003,4.544647e+000
1.035494e+003,5.577118e+000
1.036458e+003,6.034393e+000
1.037422e+003,6.102081e+000
1.038387e+003,6.338623e+000
1.039351e+003,6.632721e+000
1.040315e+003,6.089539e+000
1.041279e+003,3.823425e+000
1.042244e+003,6.291199e-001
1.043208e+003,3.356018e-001
1.044172e+003,5.730316e+000
1.045136e+003,8.966797e+000
1.046101e+003,9.533661e+000
1.047065e+003,8.596619e+000
1.048029e+003,5.568420e+000
1.048993e+003,1.470551e+000
1.049958e+003,-2.729187e-001
1.050922e+003,2.742279e+000
1.051886e+003,6.748718e+000
1.052850e+003,7.883301e+000
1.053814e+003,7.539703e+000
1.054779e+003,7.323029e+000
1.055743e+003,7.615692e+000
1.056707e+003,7.992035e+000
1.057671e+003,7.946869e+000
1.058636e+003,7.445618e+000
1.059600e+003,6.993042e+000
1.060564e+003,7.239960e+000
1.061528e+003,6.982361e+000
1.062493e+003,4.689575e+000
1.063457e+003,2.418182e+000
1.064421e+003,3.264557e+000
1.065385e+003,7.519226e+000
1.066349e+003,1.060571e+001
1.067314e+003,9.516754e+000
1.068278e+003,7.307831e+000
1.069242e+003,5.287415e+000
1.070206e+003,4.079498e+000
1.071171e+003,5.044830e+000
1.072135e+003,8.352509e+000
1.073099e+003,1.180228e+001
1.074063e+003,1.169525e+001
1.075028e+003,7.644043e+000
1.075992e+003,5.428955e+000
1.076956e+003,5.799591e+000
1.077920e+003,6.110626e+000
1.078885e+003,5.325073e+000
1.079849e+003,4.082916e+000
1.080813e+003,3.450867e+000
1.081777e+003,3.644623e+000
1.082741e+003,4.166229e+000
1.083706e+003,5.242432e+000
1.084670e+003,5.849030e+000
1.085634e+003,4.826935e+000
1.086598e+003,2.981262e+000
1.087563e+003,2.052551e+000
1.088527e+003,3.009857e+000
1.089491e+003,4.938324e+000
1.090455e+003,5.840729e+000
1.091420e+003,5.455688e+000
1.092384e+003,5.028168e+000
1.093348e+003,4.665558e+000
1.094312e+003,3.856201e+000
1.095276e+003,1.798584e+000
1.096241e+003,-7.423401e-001
1.097205e+003,-1.467743e+000
1.098169e+003,4.355774e-001
1.099133e+003,2.221008e+000
1.100098e+003,2.993774e+000
1.101062e+003,3.351929e+000
1.102026e+003,3.656006e+000
1.102990e+003,3.872528e+000
1.103955e+003,3.630920e+000
1.104919e+003,2.693207e+000
1.105883e+003,1.545319e+000
1.106847e+003,1.393799e+000
1.107812e+003,2.238068e+000
1.108776e+003,2.609711e+000
1.109740e+003,2.202362e+000
1.110704e+003,1.836365e+000
1.111668e+003,2.144348e+000
1.112633e+003,3.150208e+000
1.113597e+003,4.664856e+000
1.114561e+003,6.945160e+000
1.115525e+003,8.772858e+000
1.116490e+003,9.723938e+000
1.117454e+003,1.018555e+001
1.118418e+003,1.028229e+001
1.119382e+003,1.028955e+001
1.120347e+003,1.053720e+001
1.121311e+003,1.110641e+001
1.122275e+003,1.163416e+001
1.123239e+003,1.194638e+001
1.124203e+003,1.213367e+001
1.125168e+003,1.103729e+001
1.126132e+003,7.842499e+000
1.127096e+003,5.381989e+000
1.128060e+003,6.288086e+000
1.129025e+003,9.743988e+000
1.129989e+003,1.206778e+001
1.130953e+003,1.255551e+001
1.131917e+003,1.278265e+001
1.132882e+003,1.280249e+001
1.133846e+003,1.321338e+001
1.134810e+003,1.465875e+001
1.135774e+003,1.679965e+001
1.136739e+003,1.887546e+001
1.137703e+003,2.043588e+001
1.138667e+003,2.148630e+001
1.139631e+003,2.168558e+001
1.140595e+003,2.132632e+001
1.141560e+003,2.292603e+001
1.142524e+003,2.708704e+001
1.143488e+003,3.190726e+001
1.144452e+003,3.586404e+001
1.145417e+003,3.939078e+001
1.146381e+003,4.423303e+001
1.147345e+003,5.098886e+001
1.148309e+003,5.742612e+001
1.149274e+003,6.269766e+001
1.150238e+003,6.799915e+001
1.151202e+003,7.398077e+001
1.152166e+003,8.060263e+001
1.153130e+003,8.769989e+001
1.154095e+003,9.500201e+001
1.155059e+003,1.019274e+002
1.156023e+003,1.082865e+002
1.156987e+003,1.136107e+002
1.157952e+003,1.152074e+002
1.158916e+003,1.129103e+002
1.159880e+003,1.096947e+002
1.160844e+003,1.074487e+002
1.161809e+003,1.047075e+002
1.162773e+003,9.792001e+001
1.163737e+003,8.580981e+001
1.164701e+003,7.550574e+001
1.165666e+003,7.095691e+001
1.166630e+003,6.653336e+001
1.167594e+003,5.959885e+001
1.168558e+003,5.172354e+001
1.169522e+003,4.495624e+001
1.170487e+003,4.009964e+001
1.171451e+003,3.706686e+001
1.172415e+003,3.588657e+001
1.173379e+003,3.620392e+001
1.174344e+003,3.616678e+001
1.175308e+003,3.571054e+001
1.176272e+003,3.614914e+001
1.177236e+003,3.931158e+001
1.178201e+003,4.260724e+001
1.179165e+003,4.208258e+001
1.180129e+003,3.757483e+001
1.181093e+003,3.391940e+001
1.182057e+003,3.263559e+001
1.183022e+003,3.171530e+001
1.183986e+003,3.057248e+001
1.184950e+003,2.928564e+001
1.185914e+003,2.790186e+001
1.186879e+003,2.652249e+001
1.187843e+003,2.517297e+001
1.188807e+003,2.379999e+001
1.189771e+003,2.275931e+001
1.190736e+003,2.364276e+001
1.191700e+003,2.674652e+001
1.192664e+003,2.838760e+001
1.193628e+003,2.745886e+001
1.194593e+003,2.623846e+001
1.195557e+003,2.678912e+001
1.196521e+003,2.833530e+001
1.197485e+003,2.792484e+001
1.198449e+003,2.441382e+001
1.199414e+003,2.128497e+001
1.200378e+003,2.070862e+001
1.201342e+003,2.051291e+001
1.202306e+003,1.910468e+001
1.203271e+003,1.693893e+001
1.204235e+003,1.531519e+001
1.205199e+003,1.488803e+001
1.206163e+003,1.517618e+001
1.207128e+003,1.540924e+001
1.208092e+003,1.561914e+001
1.209056e+003,1.491898e+001
1.210020e+003,1.312735e+001
1.210984e+003,1.103253e+001
1.211949e+003,8.543549e+000
1.212913e+003,5.993164e+000
1.213877e+003,3.989075e+000
1.214841e+003,2.578644e+000
1.215806e+003,7.850037e-001
1.216770e+003,-2.895966e+000
1.217734e+003,-5.218781e+000
1.218698e+003,-2.433838e+000
1.219663e+003,1.727112e+000
1.220627e+003,2.311523e+000
1.221591e+003,-1.151154e+000
1.222555e+003,-5.408386e+000
1.223520e+003,-7.454712e+000
1.224484e+003,-7.553833e+000
1.225448e+003,-7.251526e+000
1.226412e+003,-6.203003e+000
1.227376e+003,-5.626099e+000
1.228341e+003,-5.766327e+000
1.229305e+003,-6.176941e+000
1.230269e+003,-6.632141e+000
1.231233e+003,-7.196777e+000
1.232198e+003,-8.147858e+000
1.233162e+003,-9.540894e+000
1.234126e+003,-1.039952e+001
1.235090e+003,-9.559433e+000
1.236055e+003,-8.468506e+000
1.237019e+003,-9.097092e+000
1.237983e+003,-1.076361e+001
1.238947e+003,-1.131560e+001
1.239911e+003,-9.806335e+000
1.240876e+003,-7.606201e+000
1.241840e+003,-6.915131e+000
1.242804e+003,-7.860657e+000
1.243768e+003,-7.830109e+000
1.244733e+003,-5.471771e+000
1.245697e+003,-3.909790e+000
1.246661e+003,-3.714325e+000
1.247625e+003,-4.331543e+000
1.248590e+003,-5.796600e+000
1.249554e+003,-7.508759e+000
1.250518e+003,-8.104492e+000
1.251482e+003,-6.966705e+000
1.252447e+003,-5.510529e+000
1.253411e+003,-5.336975e+000
1.254375e+003,-5.900848e+000
1.255339e+003,-6.217072e+000
1.256303e+003,-6.175232e+000
1.257268e+003,-5.886780e+000
1.258232e+003,-5.543640e+000
1.259196e+003,-5.138092e+000
1.260160e+003,-4.438904e+000
1.261125e+003,-3.323883e+000
1.262089e+003,-1.919464e+000
1.263053e+003,5.259705e-001
1.264017e+003,1.976929e+000
1.264982e+003,1.718597e+000
1.265946e+003,5.549011e-001
1.266910e+003,-1.442505e+000
1.267874e+003,-3.622772e+000
1.268839e+003,-4.360229e+000
1.269803e+003,-2.537964e+000
1.270767e+003,4.252319e-001
1.271731e+003,1.851624e+000
1.272695e+003,1.788086e+000
1.273660e+003,1.617462e+000
1.274624e+003,1.142883e+000
1.275588e+003,5.940247e-001
1.276552e+003,5.026855e-001
1.277517e+003,4.826050e-001
1.278481e+003,-6.120300e-001
1.279445e+003,-3.003754e+000
1.280409e+003,-4.803650e+000
1.281374e+003,-5.548279e+000
1.282338e+003,-5.231842e+000
1.283302e+003,-2.892151e+000
1.284266e+003,-2.284546e-001
1.285230e+003,1.039246e+000
1.286195e+003,5.230103e-001
1.287159e+003,-1.646545e+000
1.288123e+003,-5.326416e+000
1.289087e+003,-9.365280e+000
1.290052e+003,-1.039789e+001
1.291016e+003,-7.375824e+000
1.291980e+003,-5.328339e+000
1.292944e+003,-4.524658e+000
1.293909e+003,-4.462952e+000
1.294873e+003,-5.245117e+000
1.295837e+003,-6.291412e+000
1.296801e+003,-6.915955e+000
1.297766e+003,-7.019897e+000
1.298730e+003,-6.844543e+000
1.299694e+003,-6.484070e+000
1.300658e+003,-6.146667e+000
1.301622e+003,-6.053955e+000
1.302587e+003,-6.020447e+000
1.303551e+003,-5.785492e+000
1.304515e+003,-5.272095e+000
1.305479e+003,-4.617645e+000
1.306444e+003,-3.942902e+000
1.307408e+003,-3.401184e+000
1.308372e+003,-3.367981e+000
1.309336e+003,-4.027679e+000
1.310301e+003,-4.668213e+000
1.311265e+003,-5.646332e+000
1.312229e+003,-5.964569e+000
1.313193e+003,-4.998260e+000
1.314157e+003,-3.496490e+000
1.315122e+003,-1.648438e+000
1.316086e+003,-4.071045e-002
1.317050e+003,-3.338623e-001
1.318014e+003,-3.718506e+000
1.318979e+003,-8.137497e+000
1.319943e+003,-1.010573e+001
1.320907e+003,-9.687897e+000
1.321871e+003,-8.563004e+000
1.322836e+003,-6.671722e+000
1.323800e+003,-5.121246e+000
1.324764e+003,-4.854767e+000
1.325728e+003,-5.058746e+000
1.326693e+003,-4.005829e+000
1.327657e+003,-1.683960e+000
1.328621e+003,-1.013824e+000
1.329585e+003,-3.641327e+000
1.330549e+003,-5.805847e+000
1.331514e+003,-5.445221e+000
1.332478e+003,-4.433838e+000
1.333442e+003,-4.606689e+000
1.334406e+003,-5.729614e+000
1.335371e+003,-6.307251e+000
1.336335e+003,-5.453186e+000
1.337299e+003,-3.846680e+000
1.338263e+003,-2.792053e+000
1.339228e+003,-2.305756e+000
1.340192e+003,-2.176575e+000
1.341156e+003,-2.892181e+000
1.342120e+003,-3.237213e+000
1.343084e+003,-2.675507e+000
1.344049e+003,-2.241943e+000
1.345013e+003,-2.838684e+000
1.345977e+003,-4.123260e+000
1.346941e+003,-5.262390e+000
1.347906e+003,-6.014221e+000
1.348870e+003,-5.872528e+000
1.349834e+003,-3.584320e+000
1.350798e+003,-8.364258e-001
1.351763e+003,-9.694824e-001
1.352727e+003,-3.470673e+000
1.353691e+003,-5.450287e+000
1.354655e+003,-5.817841e+000
1.355620e+003,-5.452362e+000
1.356584e+003,-5.210327e+000
1.357548e+003,-5.060577e+000
1.358512e+003,-5.121094e+000
1.359476e+003,-5.569885e+000
1.360441e+003,-6.237030e+000
1.361405e+003,-7.852127e+000
1.362369e+003,-8.707367e+000
1.363333e+003,-7.092026e+000
1.364298e+003,-4.584412e+000
1.365262e+003,-3.352753e+000
1.366226e+003,-3.925720e+000
1.367190e+003,-5.480225e+000
1.368155e+003,-7.312027e+000
1.369119e+003,-9.183182e+000
1.370083e+003,-1.032578e+001
1.371047e+003,-1.067735e+001
1.372011e+003,-9.974350e+000
1.372976e+003,-7.599854e+000
1.373940e+003,-5.323639e+000
1.374904e+003,-3.343231e+000
1.375868e+003,-1.986115e+000
1.376833e+003,-2.147339e+000
1.377797e+003,-3.626221e+000
1.378761e+003,-4.554077e+000
1.379725e+003,-4.021057e+000
1.380690e+003,-2.990143e+000
1.381654e+003,-2.117279e+000
1.382618e+003,-1.476898e+000
1.383582e+003,-1.405457e+000
1.384547e+003,-1.805634e+000
1.385511e+003,-1.914154e+000
1.386475e+003,-1.318481e+000
1.387439e+003,-5.814209e-001
1.388403e+003,-6.201782e-001
1.389368e+003,-1.445343e+000
1.390332e+003,-1.877411e+000
1.391296e+003,-1.278290e+000
1.392260e+003,-1.364594e+000
1.393225e+003,-3.664520e+000
1.394189e+003,-5.532623e+000
1.395153e+003,-4.930359e+000
1.396117e+003,-3.115753e+000
1.397082e+003,-2.086700e+000
1.398046e+003,-2.371307e+000
1.399010e+003,-3.266418e+000
1.399974e+003,-4.252808e+000
1.400938e+003,-5.108643e+000
1.401903e+003,-4.591766e+000
1.402867e+003,-1.790344e+000
1.403831e+003,-5.419922e-002
1.404795e+003,2.698364e-001
1.405760e+003,-2.560730e-001
1.406724e+003,-3.077484e+000
1.407688e+003,-5.955902e+000
1.408652e+003,-5.270477e+000
1.409617e+003,-1.455872e+000
1.410581e+003,1.193848e+000
1.411545e+003,9.057007e-001
1.412509e+003,-5.193787e-001
1.413474e+003,-2.174561e+000
1.414438e+003,-3.560150e+000
1.415402e+003,-3.121246e+000
1.416366e+003,-1.126221e+000
1.417330e+003,-2.178955e-002
1.418295e+003,-9.322510e-001
1.419259e+003,-2.361450e+000
1.420223e+003,-2.629974e+000
1.421187e+003,-2.002289e+000
1.422152e+003,-1.646454e+000
1.423116e+003,-1.557739e+000
1.424080e+003,-1.340057e+000
1.425044e+003,-9.567261e-001
1.426009e+003,-6.145630e-001
1.426973e+003,-5.232544e-001
1.427937e+003,-4.585876e-001
1.428901e+003,2.365417e-001
1.429865e+003,1.344971e+000
1.430830e+003,1.497620e+000
1.431794e+003,-2.297363e-001
1.432758e+003,-2.619843e+000
1.433722e+003,-3.042847e+000
1.434687e+003,-1.130035e+000
1.435651e+003,4.548950e-001
1.436615e+003,1.115540e+000
1.437579e+003,1.440094e+000
1.438544e+003,9.554749e-001
1.439508e+003,7.934265e-001
1.440472e+003,2.373322e+000
1.441436e+003,4.762970e+000
1.442401e+003,5.814087e+000
1.443365e+003,5.104095e+000
1.444329e+003,4.629272e+000
1.445293e+003,6.182434e+000
1.446257e+003,8.061035e+000
1.447222e+003,6.041901e+000
1.448186e+003,1.125458e+000
1.449150e+003,-6.675720e-001
1.450114e+003,1.866364e+000
1.451079e+003,4.472900e+000
1.452043e+003,4.903625e+000
1.453007e+003,4.449707e+000
1.453971e+003,4.684326e+000
1.454936e+003,5.518433e+000
1.455900e+003,6.542450e+000
1.456864e+003,7.879150e+000
1.457828e+003,8.952698e+000
1.458792e+003,9.748810e+000
1.459757e+003,9.619934e+000
1.460721e+003,7.221741e+000
1.461685e+003,3.718719e+000
1.462649e+003,1.509827e+000
1.463614e+003,1.235657e+000
1.464578e+003,1.706543e+000
1.465542e+003,1.909363e+000
1.466506e+003,1.840698e+000
1.467471e+003,1.507233e+000
1.468435e+003,8.333740e-001
1.469399e+003,1.074249e+000
1.470363e+003,3.031342e+000
1.471328e+003,4.538910e+000
1.472292e+003,5.082245e+000
1.473256e+003,4.814301e+000
1.474220e+003,3.332886e+000
1.475184e+003,1.622314e+000
1.476149e+003,1.476959e+000
1.477113e+003,3.157898e+000
1.478077e+003,4.794617e+000
1.479041e+003,4.650818e+000
1.480006e+003,3.524811e+000
1.480970e+003,3.867737e+000
1.481934e+003,6.267059e+000
1.482898e+003,6.940033e+000
1.483863e+003,3.576263e+000
1.484827e+003,1.859100e+000
1.485791e+003,5.291931e+000
1.486755e+003,9.473541e+000
1.487719e+003,9.642456e+000
1.488684e+003,7.015503e+000
1.489648e+003,5.981537e+000
1.490612e+003,7.997101e+000
1.491576e+003,1.103696e+001
1.492541e+003,1.367194e+001
1.493505e+003,1.571817e+001
1.494469e+003,1.646747e+001
1.495433e+003,1.602963e+001
1.496398e+003,1.597058e+001
1.497362e+003,1.674429e+001
1.498326e+003,1.776913e+001
1.499290e+003,1.846353e+001
1.500255e+003,1.939026e+001
1.501219e+003,2.139255e+001
1.502183e+003,2.429794e+001
1.503147e+003,2.722293e+001
1.504111e+003,2.994064e+001
1.505076e+003,3.279019e+001
1.506040e+003,3.538910e+001
1.507004e+003,3.896344e+001
1.507968e+003,4.546204e+001
1.508933e+003,5.349619e+001
1.509897e+003,6.000464e+001
1.510861e+003,6.469940e+001
1.511825e+003,6.993735e+001
1.512790e+003,7.724402e+001
1.513754e+003,8.581866e+001
1.514718e+003,9.432480e+001
1.515682e+003,1.026377e+002
1.516646e+003,1.117592e+002
1.517611e+003,1.227595e+002
1.518575e+003,1.325685e+002
1.519539e+003,1.399841e+002
1.520503e+003,1.464937e+002
1.521468e+003,1.530580e+002
1.522432e+003,1.589639e+002
1.523396e+003,1.636763e+002
1.524360e+003,1.666821e+002
1.525325e+003,1.669024e+002
1.526289e+003,1.636555e+002
1.527253e+003,1.584024e+002
1.528217e+003,1.537195e+002
1.529182e+003,1.497426e+002
1.530146e+003,1.445969e+002
1.531110e+003,1.387833e+002
1.532074e+003,1.304630e+002
1.533039e+003,1.176646e+002
1.534003e+003,1.041917e+002
1.534967e+003,9.154102e+001
1.535931e+003,7.980811e+001
1.536896e+003,6.897440e+001
1.537860e+003,5.893469e+001
1.538824e+003,4.899118e+001
1.539788e+003,3.884622e+001
1.540752e+003,3.014139e+001
1.541717e+003,2.523517e+001
1.542681e+003,2.354062e+001
1.543645e+003,2.058987e+001
1.544609e+003,1.500067e+001
1.545573e+003,1.228250e+001
1.546538e+003,1.454431e+001
1.547502e+003,1.640170e+001
1.548466e+003,1.601492e+001
1.549430e+003,1.458551e+001
1.550395e+003,1.278690e+001
1.551359e+003,1.099734e+001
1.552323e+003,9.834839e+000
1.553287e+003,9.548096e+000
1.554252e+003,1.018109e+001
1.555216e+003,1.196408e+001
1.556180e+003,1.410416e+001
1.557144e+003,1.467020e+001
1.558109e+003,1.364212e+001
1.559073e+003,1.296936e+001
1.560037e+003,1.316553e+001
1.561001e+003,1.224518e+001
1.561966e+003,8.192352e+000
1.562930e+003,4.398285e+000
1.563894e+003,4.598816e+000
1.564858e+003,7.227600e+000
1.565823e+003,7.993561e+000
1.566787e+003,6.181427e+000
1.567751e+003,5.234741e+000
1.568715e+003,7.412750e+000
1.569679e+003,1.043359e+001
1.570644e+003,1.164661e+001
1.571608e+003,1.118503e+001
1.572572e+003,9.316315e+000
1.573536e+003,6.068329e+000
1.574500e+003,4.600586e+000
1.575465e+003,6.707825e+000
1.576429e+003,9.575714e+000
1.577393e+003,1.138165e+001
1.578357e+003,1.208359e+001
1.579322e+003,1.140482e+001
1.580286e+003,9.493561e+000
1.581250e+003,7.529022e+000
1.582214e+003,5.582092e+000
1.583179e+003,4.719849e+000
1.584143e+003,6.373627e+000
1.585107e+003,8.850861e+000
1.586071e+003,1.014014e+001
1.587036e+003,1.059573e+001
1.588000e+003,1.077356e+001
1.588964e+003,1.067285e+001
1.589928e+003,1.057483e+001
1.590893e+003,1.079901e+001
1.591857e+003,1.105313e+001
1.592821e+003,1.078378e+001
1.593785e+003,1.013919e+001
1.594750e+003,9.756927e+000
1.595714e+003,9.593658e+000
1.596678e+003,1.018246e+001
1.597642e+003,1.276404e+001
1.598606e+003,1.465448e+001
1.599571e+003,1.247342e+001
1.600535e+003,9.202484e+000
1.601499e+003,8.998657e+000
1.602463e+003,1.158511e+001
1.603427e+003,1.392014e+001
1.604392e+003,1.480450e+001
1.605356e+003,1.500296e+001
1.606320e+003,1.540347e+001
1.607284e+003,1.570493e+001
1.608249e+003,1.458948e+001
1.609213e+003,1.197147e+001
1.610177e+003,1.107309e+001
1.611141e+003,1.335037e+001
1.612106e+003,1.506012e+001
1.613070e+003,1.311414e+001
1.614034e+003,1.110284e+001
1.614998e+003,1.229050e+001
1.615963e+003,1.495834e+001
1.616927e+003,1.606082e+001
1.617891e+003,1.513034e+001
1.618855e+003,1.331360e+001
1.619820e+003,1.104272e+001
1.620784e+003,9.040375e+000
1.621748e+003,8.694885e+000
1.622712e+003,9.962708e+000
1.623677e+003,1.168271e+001
1.624641e+003,1.410379e+001
1.625605e+003,1.550421e+001
1.626569e+003,1.470322e+001
1.627533e+003,1.347943e+001
1.628498e+003,1.233005e+001
1.629462e+003,1.176700e+001
1.630426e+003,1.242032e+001
1.631390e+003,1.389581e+001
1.632354e+003,1.585269e+001
1.633319e+003,1.792612e+001
1.634283e+003,1.823724e+001
1.635247e+003,1.499640e+001
1.636211e+003,1.036819e+001
1.637176e+003,8.277100e+000
1.638140e+003,8.651794e+000
1.639104e+003,9.540314e+000
1.640068e+003,1.106134e+001
1.641033e+003,1.219867e+001
1.641997e+003,1.263770e+001
1.642961e+003,1.286307e+001
1.643925e+003,1.352982e+001
1.644890e+003,1.378717e+001
1.645854e+003,1.186737e+001
1.646818e+003,8.916199e+000
1.647782e+003,8.302856e+000
1.648747e+003,1.088406e+001
1.649711e+003,1.354550e+001
1.650675e+003,1.369720e+001
1.651639e+003,1.261069e+001
1.652604e+003,1.293832e+001
1.653568e+003,1.452261e+001
1.654532e+003,1.472293e+001
1.655496e+003,1.283475e+001
1.656460e+003,1.165579e+001
1.657425e+003,1.278873e+001
1.658389e+003,1.381458e+001
1.659353e+003,1.311237e+001
1.660317e+003,1.186261e+001
1.661281e+003,1.130389e+001
1.662246e+003,1.130847e+001
1.663210e+003,1.118179e+001
1.664174e+003,1.074521e+001
1.665138e+003,1.040070e+001
1.666103e+003,1.050153e+001
1.667067e+003,1.071222e+001
1.668031e+003,1.072705e+001
1.668995e+003,1.049939e+001
1.669960e+003,8.293030e+000
1.670924e+003,3.070892e+000
1.671888e+003,-6.591797e-003
1.672852e+003,1.426178e+000
1.673817e+003,4.150848e+000
1.674781e+003,7.015076e+000
1.675745e+003,9.333984e+000
1.676709e+003,1.016455e+001
1.677674e+003,9.760406e+000
1.678638e+003,8.960724e+000
1.679602e+003,8.038940e+000
1.680566e+003,7.212036e+000
1.681531e+003,6.762695e+000
1.682495e+003,6.525055e+000
1.683459e+003,5.818604e+000
1.684423e+003,4.788696e+000
1.685387e+003,5.256134e+000
1.686352e+003,7.774536e+000
1.687316e+003,8.791565e+000
1.688280e+003,6.424988e+000
1.689244e+003,3.708832e+000
1.690208e+003,2.705780e+000
1.691173e+003,2.606995e+000
1.692137e+003,2.842834e+000
1.693101e+003,3.376282e+000
1.694065e+003,4.052307e+000
1.695030e+003,4.741455e+000
1.695994e+003,4.898071e+000
1.696958e+003,3.907562e+000
1.697922e+003,2.694153e+000
1.698887e+003,2.482605e+000
1.699851e+003,3.009125e+000
1.700815e+003,3.467010e+000
1.701779e+003,3.712250e+000
1.702744e+003,3.365021e+000
1.703708e+003,2.166992e+000
1.704672e+003,1.507751e+000
1.705636e+003,2.401672e+000
1.706601e+003,4.037689e+000
1.707565e+003,6.029907e+000
1.708529e+003,7.994110e+000
1.709493e+003,8.127380e+000
1.710458e+003,6.040771e+000
1.711422e+003,3.681610e+000
1.712386e+003,1.293060e+000
1.713350e+003,-2.301331e-001
1.714314e+003,-3.398743e-001
1.715279e+003,7.291565e-001
1.716243e+003,3.656097e+000
1.717207e+003,7.663239e+000
1.718171e+003,8.862885e+000
1.719135e+003,6.216278e+000
1.720100e+003,3.738373e+000
1.721064e+003,4.175964e+000
1.722028e+003,5.657623e+000
1.722992e+003,5.767944e+000
1.723957e+003,4.764343e+000
1.724921e+003,3.251190e+000
1.725885e+003,7.834778e-001
1.726849e+003,-8.184814e-001
1.727814e+003,-5.245972e-001
1.728778e+003,1.272583e-001
1.729742e+003,2.735291e-001
1.730706e+003,5.783997e-001
1.731671e+003,2.067902e+000
1.732635e+003,3.862061e+000
1.733599e+003,4.437775e+000
1.734563e+003,3.657501e+000
1.735528e+003,1.884827e+000
1.736492e+003,-7.366943e-001
1.737456e+003,-2.894501e+000
1.738420e+003,-2.957535e+000
1.739385e+003,-1.555588e+000
1.740349e+003,-6.101074e-001
1.741313e+003,-6.423950e-002
1.742277e+003,1.928101e-001
1.743241e+003,6.254578e-001
1.744206e+003,2.906189e-001
1.745170e+003,-2.192810e+000
1.746134e+003,-4.149246e+000
1.747098e+003,-3.683792e+000
1.748063e+003,-2.236847e+000
1.749027e+003,-1.538513e+000
1.749991e+003,-1.446457e+000
1.750955e+003,-6.987305e-001
1.751919e+003,9.451599e-001
1.752884e+003,2.184967e+000
1.753848e+003,1.939972e+000
1.754812e+003,6.566467e-001
1.755776e+003,-8.623657e-001
1.756741e+003,-2.461258e+000
1.757705e+003,-2.328217e+000
1.758669e+003,3.815002e-001
1.759633e+003,2.023499e+000
1.760598e+003,1.256836e+000
1.761562e+003,5.929565e-001
1.762526e+003,1.408936e+000
1.763490e+003,2.176300e+000
1.764455e+003,1.674286e+000
1.765419e+003,4.981995e-001
1.766383e+003,-8.578339e-001
1.767347e+003,-1.991196e+000
1.768312e+003,-1.458923e+000
1.769276e+003,1.436981e+000
1.770240e+003,3.955811e+000
1.771204e+003,3.200195e+000
1.772168e+003,4.897156e-001
1.773133e+003,-1.905121e+000
1.774097e+003,-3.874313e+000
1.775061e+003,-3.843658e+000
1.776025e+003,-1.433411e+000
1.776990e+003,3.333435e-001
1.777954e+003,5.012512e-001
1.778918e+003,1.280212e-001
1.779882e+003,-4.213562e-001
1.780846e+003,-1.007446e+000
1.781811e+003,-1.351227e+000
1.782775e+003,-1.431473e+000
1.783739e+003,-1.227676e+000
1.784703e+003,-6.684723e-001
1.785668e+003,-1.288147e-001
1.786632e+003,-1.510620e-002
1.787596e+003,6.500244e-002
1.788560e+003,9.955750e-001
1.789525e+003,1.970734e+000
1.790489e+003,1.264954e+000
1.791453e+003,-5.791168e-001
1.792417e+003,-1.318726e+000
1.793382e+003,-5.926666e-001
1.794346e+003,-3.141937e-001
1.795310e+003,-1.592789e+000
1.796274e+003,-2.587173e+000
1.797239e+003,-7.736206e-001
1.798203e+003,2.541260e+000
1.799167e+003,2.470520e+000
1.800131e+003,-2.022644e+000
1.801095e+003,-4.696457e+000
1.802060e+003,-4.592316e+000
1.803024e+003,-3.903427e+000
1.803988e+003,-2.045654e+000
1.804952e+003,-7.925110e-001
1.805917e+003,-1.800522e+000
1.806881e+003,-3.129364e+000
1.807845e+003,-2.526413e+000
1.808809e+003,-6.653290e-001
1.809773e+003,7.969666e-001
1.810738e+003,1.339264e+000
1.811702e+003,1.016907e+000
1.812666e+003,-1.072235e-001
1.813630e+003,-1.091599e+000
1.814595e+003,-5.422363e-001
1.815559e+003,1.009186e+000
1.816523e+003,1.422592e+000
1.817487e+003,5.917816e-001
1.818452e+003,2.677002e-001
1.819416e+003,1.126648e+000
1.820380e+003,9.891357e-001
1.821344e+003,-2.504837e+000
1.822309e+003,-4.845215e+000
1.823273e+003,-1.468079e+000
1.824237e+003,2.965332e+000
1.825201e+003,3.080658e+000
1.826166e+003,2.702789e-001
1.827130e+003,-1.104843e+000
1.828094e+003,-3.451538e-001
1.829058e+003,4.215393e-001
1.830022e+003,1.372223e-001
1.830987e+003,-9.849548e-002
1.831951e+003,1.200165e+000
1.832915e+003,2.687164e+000
1.833879e+003,1.922272e+000
1.834844e+003,-3.134613e-001
1.835808e+003,-1.423416e+000
1.836772e+003,-1.027725e+000
1.837736e+003,-1.343689e-001
1.838700e+003,7.966461e-001
1.839665e+003,1.222244e+000
1.840629e+003,5.957336e-001
1.841593e+003,-4.957733e-001
1.842557e+003,-8.557739e-001
1.843522e+003,-5.056000e-001
1.844486e+003,-6.534576e-001
1.845450e+003,-1.868042e+000
1.846414e+003,-2.151428e+000
1.847379e+003,-1.093872e+000
1.848343e+003,-7.984924e-002
1.849307e+003,9.901428e-001
1.850271e+003,1.501984e+000
1.851236e+003,3.399658e-001
1.852200e+003,-1.084457e+000
1.853164e+003,-6.133270e-001
1.854128e+003,1.253418e+000
1.855093e+003,2.362427e+000
1.856057e+003,2.010712e+000
1.857021e+003,1.046494e+000
1.857985e+003,-2.268982e-002
1.858949e+003,-7.502747e-001
1.859914e+003,-7.283020e-002
1.860878e+003,1.751633e+000
1.861842e+003,3.201096e+000
1.862806e+003,4.228760e+000
1.863771e+003,4.319763e+000
1.864735e+003,3.078125e+000
1.865699e+003,2.095871e+000
1.866663e+003,2.364975e+000
1.867627e+003,2.732849e+000
1.868592e+003,1.835663e+000
1.869556e+003,3.490753e-001
1.870520e+003,-1.705170e-001
1.871484e+003,1.180573e-001
1.872449e+003,1.765594e-001
1.873413e+003,2.467346e-002
1.874377e+003,5.707397e-001
1.875341e+003,2.355911e+000
1.876306e+003,3.933624e+000
1.877270e+003,4.538544e+000
1.878234e+003,4.486893e+000
1.879198e+003,4.125992e+000
1.880163e+003,3.443939e+000
1.881127e+003,1.981262e+000
1.882091e+003,9.510803e-002
1.883055e+003,-8.150330e-001
1.884020e+003,-2.593536e-001
1.884984e+003,6.402283e-001
1.885948e+003,8.655701e-001
1.886912e+003,8.477173e-001
1.887876e+003,1.516953e+000
1.888841e+003,2.806808e+000
1.889805e+003,3.694794e+000
1.890769e+003,4.136108e+000
1.891733e+003,4.502365e+000
1.892698e+003,5.145248e+000
1.893662e+003,4.593658e+000
1.894626e+003,6.466217e-001
1.895590e+003,-2.296890e+000
1.896554e+003,1.753540e-001
1.897519e+003,4.424973e+000
1.898483e+003,6.082062e+000
1.899447e+003,5.504913e+000
1.900411e+003,4.807083e+000
1.901376e+003,4.340530e+000
1.902340e+003,4.248383e+000
1.903304e+003,4.713013e+000
1.904268e+003,5.310059e+000
1.905233e+003,6.489548e+000
1.906197e+003,7.108322e+000
1.907161e+003,5.172211e+000
1.908125e+003,2.271027e+000
1.909090e+003,1.333481e+000
1.910054e+003,2.236649e+000
1.911018e+003,3.048218e+000
1.911982e+003,3.183105e+000
1.912947e+003,3.558960e+000
1.913911e+003,4.818893e+000
1.914875e+003,6.427139e+000
1.915839e+003,7.559235e+000
1.916803e+003,8.093750e+000
1.917768e+003,7.782318e+000
1.918732e+003,6.532028e+000
1.919696e+003,5.549057e+000
1.920660e+003,4.727417e+000
1.921625e+003,4.824097e+000
1.922589e+003,6.796158e+000
1.923553e+003,8.250229e+000
1.924517e+003,7.293732e+000
1.925481e+003,5.865540e+000
1.926446e+003,5.880280e+000
1.927410e+003,6.588455e+000
1.928374e+003,6.342026e+000
1.929338e+003,5.026825e+000
1.930303e+003,3.689819e+000
1.931267e+003,2.399521e+000
1.932231e+003,2.305527e+000
1.933195e+003,5.145203e+000
1.934160e+003,7.659729e+000
1.935124e+003,6.713928e+000
1.936088e+003,4.648117e+000
1.937052e+003,4.809738e+000
1.938017e+003,6.305298e+000
1.938981e+003,6.404907e+000
1.939945e+003,4.808273e+000
1.940909e+003,3.000961e+000
1.941874e+003,1.687424e+000
1.942838e+003,6.427612e-001
1.943802e+003,-2.711792e-001
1.944766e+003,-7.581940e-001
1.945730e+003,-5.027161e-001
1.946695e+003,4.199524e-001
1.947659e+003,2.362152e+000
1.948623e+003,5.495865e+000
1.949587e+003,7.329117e+000
1.950552e+003,7.482574e+000
1.951516e+003,7.058228e+000
1.952480e+003,6.208466e+000
1.953444e+003,5.248428e+000
1.954408e+003,3.880325e+000
1.955373e+003,2.884705e+000
1.956337e+003,3.952942e+000
1.957301e+003,6.539337e+000
1.958265e+003,8.387802e+000
1.959230e+003,9.461014e+000
1.960194e+003,9.788055e+000
1.961158e+003,8.322754e+000
1.962122e+003,7.304337e+000
1.963087e+003,7.693344e+000
1.964051e+003,8.269684e+000
1.965015e+003,8.401886e+000
1.965979e+003,8.551758e+000
1.966944e+003,9.260788e+000
1.967908e+003,1.012392e+001
1.968872e+003,1.036948e+001
1.969836e+003,1.005399e+001
1.970801e+003,1.005360e+001
1.971765e+003,1.069157e+001
1.972729e+003,1.087537e+001
1.973693e+003,9.567444e+000
1.974657e+003,7.607544e+000
1.975622e+003,5.622299e+000
1.976586e+003,4.110031e+000
1.977550e+003,5.428497e+000
1.978514e+003,8.831482e+000
1.979479e+003,9.296036e+000
1.980443e+003,6.268967e+000
1.981407e+003,4.145020e+000
1.982371e+003,4.612640e+000
1.983335e+003,6.085907e+000
1.984300e+003,7.439743e+000
1.985264e+003,8.396561e+000
1.986228e+003,8.512756e+000
1.987192e+003,8.029266e+000
1.988157e+003,8.296570e+000
1.989121e+003,9.749405e+000
1.990085e+003,9.882828e+000
1.991049e+003,7.686646e+000
1.992014e+003,6.356628e+000
1.992978e+003,6.414230e+000
1.993942e+003,7.065323e+000
1.994906e+003,8.866302e+000
1.995871e+003,1.032458e+001
1.996835e+003,1.001038e+001
1.997799e+003,8.936935e+000
1.998763e+003,8.541977e+000
1.999728e+003,8.723816e+000
