5.003444e+002,8.046805e+001
5.013087e+002,8.041443e+001
5.022729e+002,7.917223e+001
5.032371e+002,7.696574e+001
5.042014e+002,7.396248e+001
5.051656e+002,7.041284e+001
5.061298e+002,6.777260e+001
5.070941e+002,6.748920e+001
5.080583e+002,7.017621e+001
5.090225e+002,7.138582e+001
5.099868e+002,7.059970e+001
5.109510e+002,6.941383e+001
5.119152e+002,6.851144e+001
5.128795e+002,6.793962e+001
5.138437e+002,6.764278e+001
5.148079e+002,6.749236e+001
5.157722e+002,6.774835e+001
5.167364e+002,6.916893e+001
5.177006e+002,7.136133e+001
5.186649e+002,7.268668e+001
5.196291e+002,7.043639e+001
5.205933e+002,6.679396e+001
5.215576e+002,6.372926e+001
5.225218e+002,6.152245e+001
5.234860e+002,6.011917e+001
5.244503e+002,5.954332e+001
5.254145e+002,6.024243e+001
5.263787e+002,6.092677e+001
5.273430e+002,6.165077e+001
5.283072e+002,6.232979e+001
5.292714e+002,6.282060e+001
5.302357e+002,6.300734e+001
5.311999e+002,6.282118e+001
5.321641e+002,6.249269e+001
5.331284e+002,6.197569e+001
5.340926e+002,6.100085e+001
5.350568e+002,5.936198e+001
5.360211e+002,5.784955e+001
5.369853e+002,5.783766e+001
5.379495e+002,5.814001e+001
5.389138e+002,5.746614e+001
5.398780e+002,5.543515e+001
5.408422e+002,5.291176e+001
5.418065e+002,5.264828e+001
5.427707e+002,5.427353e+001
5.437349e+002,5.521172e+001
5.446992e+002,5.467299e+001
5.456634e+002,5.304655e+001
5.466276e+002,5.172292e+001
5.475919e+002,5.036331e+001
5.485561e+002,5.002029e+001
5.495203e+002,5.162361e+001
5.504846e+002,5.387421e+001
5.514488e+002,5.483997e+001
5.524130e+002,5.332425e+001
5.533773e+002,5.181335e+001
5.543415e+002,5.186096e+001
5.553057e+002,5.246623e+001
5.562700e+002,5.254846e+001
5.572342e+002,5.143475e+001
5.581984e+002,4.967540e+001
5.591627e+002,4.841292e+001
5.601269e+002,4.766289e+001
5.610911e+002,4.762177e+001
5.620554e+002,4.841634e+001
5.630196e+002,4.986696e+001
5.639838e+002,5.070343e+001
5.649481e+002,5.066174e+001
5.659123e+002,5.041997e+001
5.668765e+002,5.029512e+001
5.678408e+002,5.019504e+001
5.688050e+002,4.960309e+001
5.697692e+002,4.740117e+001
5.707335e+002,4.579527e+001
5.716977e+002,4.604373e+001
5.726619e+002,4.713321e+001
5.736262e+002,4.767781e+001
5.745904e+002,4.670093e+001
5.755546e+002,4.509605e+001
5.765189e+002,4.403651e+001
5.774831e+002,4.335788e+001
5.784473e+002,4.295218e+001
5.794116e+002,4.279126e+001
5.803758e+002,4.293715e+001
5.813400e+002,4.342311e+001
5.823043e+002,4.456973e+001
5.832685e+002,4.483368e+001
5.842327e+002,4.295877e+001
5.851970e+002,3.951869e+001
5.861612e+002,3.788057e+001
5.871254e+002,4.068105e+001
5.880897e+002,4.284145e+001
5.890539e+002,4.330774e+001
5.900181e+002,4.245279e+001
5.909824e+002,4.108157e+001
5.919466e+002,3.964346e+001
5.929108e+002,3.797021e+001
5.938751e+002,3.506496e+001
5.948393e+002,3.201144e+001
5.958035e+002,3.078787e+001
5.967678e+002,3.280650e+001
5.977320e+002,3.746851e+001
5.986962e+002,3.989145e+001
5.996605e+002,4.015834e+001
6.006247e+002,3.966235e+001
6.015889e+002,3.867134e+001
6.025532e+002,3.726591e+001
6.035174e+002,3.643141e+001
6.044816e+002,3.649091e+001
6.054459e+002,3.691051e+001
6.064101e+002,3.813466e+001
6.073743e+002,3.958318e+001
6.083386e+002,4.020041e+001
6.093028e+002,3.909697e+001
6.102670e+002,3.777274e+001
6.112313e+002,3.718779e+001
6.121955e+002,3.718948e+001
6.131597e+002,3.770934e+001
6.141240e+002,3.867494e+001
6.150882e+002,3.983847e+001
6.160524e+002,4.013351e+001
6.170167e+002,3.976405e+001
6.179809e+002,3.921771e+001
6.189451e+002,3.857178e+001
6.199094e+002,3.782506e+001
6.208736e+002,3.732912e+001
6.218378e+002,3.700247e+001
6.228021e+002,3.731998e+001
6.237663e+002,3.912794e+001
6.247305e+002,4.144055e+001
6.256948e+002,4.261469e+001
6.266590e+002,4.167761e+001
6.276232e+002,3.995464e+001
6.285875e+002,3.809233e+001
6.295517e+002,3.637434e+001
6.305159e+002,3.504152e+001
6.314802e+002,3.420217e+001
6.324444e+002,3.375862e+001
6.334086e+002,3.377766e+001
6.343729e+002,3.417853e+001
6.353371e+002,3.460398e+001
6.363013e+002,3.491109e+001
6.372656e+002,3.509859e+001
6.382298e+002,3.523804e+001
6.391940e+002,3.506443e+001
6.401583e+002,3.515846e+001
6.411225e+002,3.622999e+001
6.420867e+002,3.742195e+001
6.430510e+002,3.756786e+001
6.440152e+002,3.605595e+001
6.449794e+002,3.414501e+001
6.459437e+002,3.201215e+001
6.469079e+002,3.016705e+001
6.478721e+002,2.913326e+001
6.488364e+002,2.906045e+001
6.498006e+002,2.957961e+001
6.507648e+002,3.032508e+001
6.517291e+002,3.101668e+001
6.526933e+002,3.070301e+001
6.536575e+002,2.911369e+001
6.546218e+002,2.732728e+001
6.555860e+002,2.756323e+001
6.565502e+002,3.185236e+001
6.575145e+002,3.360408e+001
6.584787e+002,3.072005e+001
6.594429e+002,2.733505e+001
6.604072e+002,2.711494e+001
6.613714e+002,3.091797e+001
6.623356e+002,3.408279e+001
6.632999e+002,3.401201e+001
6.642641e+002,3.297081e+001
6.652283e+002,3.161036e+001
6.661926e+002,3.040842e+001
6.671568e+002,2.986671e+001
6.681210e+002,3.082288e+001
6.690853e+002,3.258796e+001
6.700495e+002,3.335432e+001
6.710137e+002,3.313441e+001
6.719780e+002,3.265608e+001
6.729422e+002,3.272985e+001
6.739064e+002,3.356949e+001
6.748707e+002,3.338279e+001
6.758349e+002,3.127945e+001
6.767991e+002,2.944723e+001
6.777634e+002,2.899954e+001
6.787276e+002,2.984818e+001
6.796918e+002,3.076607e+001
6.806561e+002,3.137295e+001
6.816203e+002,3.170863e+001
6.825845e+002,3.162911e+001
6.835488e+002,3.133461e+001
6.845130e+002,3.114428e+001
6.854772e+002,3.132378e+001
6.864415e+002,3.173759e+001
6.874057e+002,3.215295e+001
6.883699e+002,3.236349e+001
6.893342e+002,3.178461e+001
6.902984e+002,3.001293e+001
6.912626e+002,2.740442e+001
6.922269e+002,2.622500e+001
6.931911e+002,2.794351e+001
6.941553e+002,2.937893e+001
6.951196e+002,3.030359e+001
6.960838e+002,3.066817e+001
6.970480e+002,3.036649e+001
6.980123e+002,2.913757e+001
6.989765e+002,2.794689e+001
6.999407e+002,2.690465e+001
7.009050e+002,2.620391e+001
7.018692e+002,2.609956e+001
7.028334e+002,2.661457e+001
7.037977e+002,2.743387e+001
7.047619e+002,2.831123e+001
7.057261e+002,2.913936e+001
7.066904e+002,2.936323e+001
7.076546e+002,2.888734e+001
7.086188e+002,2.839523e+001
7.095831e+002,2.905675e+001
7.105473e+002,3.158245e+001
7.115115e+002,3.276118e+001
7.124758e+002,3.220284e+001
7.134400e+002,3.096329e+001
7.144042e+002,2.944254e+001
7.153685e+002,2.774287e+001
7.163327e+002,2.637972e+001
7.172969e+002,2.551550e+001
7.182612e+002,2.520196e+001
7.192254e+002,2.581436e+001
7.201896e+002,2.695341e+001
7.211539e+002,2.796133e+001
7.221181e+002,2.832224e+001
7.230823e+002,2.811626e+001
7.240466e+002,2.755442e+001
7.250108e+002,2.678963e+001
7.259750e+002,2.603045e+001
7.269393e+002,2.518629e+001
7.279035e+002,2.433863e+001
7.288677e+002,2.489468e+001
7.298320e+002,2.973015e+001
7.307962e+002,3.270633e+001
7.317604e+002,3.241194e+001
7.327247e+002,3.046416e+001
7.336889e+002,2.898610e+001
7.346531e+002,2.845954e+001
7.356174e+002,2.798192e+001
7.365816e+002,2.677282e+001
7.375458e+002,2.587872e+001
7.385101e+002,2.645600e+001
7.394743e+002,2.855281e+001
7.404385e+002,3.094486e+001
7.414028e+002,3.170958e+001
7.423670e+002,3.091282e+001
7.433312e+002,3.016245e+001
7.442955e+002,2.970704e+001
7.452597e+002,2.925653e+001
7.462239e+002,2.829638e+001
7.471882e+002,2.651404e+001
7.481524e+002,2.545498e+001
7.491166e+002,2.497256e+001
7.500809e+002,2.496241e+001
7.510451e+002,2.592583e+001
7.520093e+002,2.743050e+001
7.529736e+002,2.798488e+001
7.539378e+002,2.616463e+001
7.549020e+002,2.461145e+001
7.558663e+002,2.523397e+001
7.568306e+002,2.702182e+001
7.577948e+002,2.859621e+001
7.587590e+002,2.908908e+001
7.597233e+002,2.879972e+001
7.606875e+002,2.884776e+001
7.616517e+002,2.922594e+001
7.626160e+002,2.894849e+001
7.635802e+002,2.750964e+001
7.645444e+002,2.558093e+001
7.655087e+002,2.459366e+001
7.664729e+002,2.505051e+001
7.674371e+002,2.535663e+001
7.684014e+002,2.512991e+001
7.693656e+002,2.496651e+001
7.703298e+002,2.516480e+001
7.712941e+002,2.581076e+001
7.722583e+002,2.700954e+001
7.732225e+002,2.975920e+001
7.741868e+002,3.216256e+001
7.751510e+002,3.221904e+001
7.761152e+002,3.063032e+001
7.770795e+002,2.935471e+001
7.780437e+002,3.012272e+001
7.790079e+002,3.250056e+001
7.799722e+002,3.252836e+001
7.809364e+002,2.998714e+001
7.819006e+002,2.802451e+001
7.828649e+002,2.832317e+001
7.838291e+002,3.021088e+001
7.847933e+002,3.121655e+001
7.857576e+002,3.033701e+001
7.867218e+002,2.987962e+001
7.876860e+002,3.101318e+001
7.886503e+002,3.230600e+001
7.896145e+002,3.238468e+001
7.905787e+002,3.095772e+001
7.915430e+002,2.927830e+001
7.925072e+002,2.834660e+001
7.934714e+002,2.801693e+001
7.944357e+002,2.868546e+001
7.953999e+002,3.015594e+001
7.963641e+002,3.136137e+001
7.973284e+002,3.101306e+001
7.982926e+002,2.895587e+001
7.992568e+002,2.843803e+001
8.002211e+002,2.979042e+001
8.011853e+002,3.120183e+001
8.021495e+002,3.257899e+001
8.031138e+002,3.380328e+001
8.040780e+002,3.389325e+001
8.050422e+002,3.135310e+001
8.060065e+002,2.960093e+001
8.069707e+002,3.013992e+001
8.079349e+002,3.152349e+001
8.088992e+002,3.243761e+001
8.098634e+002,3.242879e+001
8.108276e+002,3.207881e+001
8.117919e+002,3.232920e+001
8.127561e+002,3.252008e+001
8.137203e+002,3.119584e+001
8.146846e+002,2.834476e+001
8.156488e+002,2.577409e+001
8.166130e+002,2.583475e+001
8.175773e+002,2.925054e+001
8.185415e+002,3.073489e+001
8.195057e+002,2.850707e+001
8.204700e+002,2.675511e+001
8.214342e+002,2.725948e+001
8.223984e+002,2.930844e+001
8.233627e+002,3.096862e+001
8.243269e+002,3.180551e+001
8.252911e+002,3.170527e+001
8.262554e+002,2.989146e+001
8.272196e+002,2.777244e+001
8.281838e+002,2.694882e+001
8.291481e+002,2.788979e+001
8.301123e+002,2.960898e+001
8.310765e+002,3.044884e+001
8.320408e+002,3.038240e+001
8.330050e+002,3.010495e+001
8.339692e+002,2.961671e+001
8.349335e+002,2.908905e+001
8.358977e+002,2.868425e+001
8.368619e+002,2.843318e+001
8.378262e+002,2.845421e+001
8.387904e+002,2.910028e+001
8.397546e+002,2.946615e+001
8.407189e+002,2.924481e+001
8.416831e+002,2.862557e+001
8.426473e+002,2.782986e+001
8.436116e+002,2.683904e+001
8.445758e+002,2.627164e+001
8.455400e+002,2.686347e+001
8.465043e+002,2.796706e+001
8.474685e+002,2.918368e+001
8.484327e+002,3.036995e+001
8.493970e+002,3.134953e+001
8.503612e+002,3.168625e+001
8.513254e+002,3.118461e+001
8.522897e+002,3.114183e+001
8.532539e+002,3.190133e+001
8.542181e+002,3.250542e+001
8.551824e+002,3.233581e+001
8.561466e+002,3.159116e+001
8.571108e+002,3.122228e+001
8.580751e+002,3.138611e+001
8.590393e+002,3.158065e+001
8.600035e+002,3.186371e+001
8.609678e+002,3.213406e+001
8.619320e+002,3.206807e+001
8.628962e+002,3.159388e+001
8.638605e+002,3.139847e+001
8.648247e+002,3.302823e+001
8.657889e+002,3.555672e+001
8.667532e+002,3.704897e+001
8.677174e+002,3.724673e+001
8.686816e+002,3.661952e+001
8.696459e+002,3.544998e+001
8.706101e+002,3.344620e+001
8.715743e+002,3.364790e+001
8.725386e+002,3.853787e+001
8.735028e+002,4.229288e+001
8.744670e+002,4.283890e+001
8.754313e+002,4.128535e+001
8.763955e+002,3.974078e+001
8.773597e+002,3.872826e+001
8.783240e+002,3.851460e+001
8.792882e+002,3.974809e+001
8.802524e+002,4.137035e+001
8.812167e+002,4.265812e+001
8.821809e+002,4.335014e+001
8.831451e+002,4.338940e+001
8.841094e+002,4.264536e+001
8.850736e+002,4.125616e+001
8.860378e+002,4.072981e+001
8.870021e+002,4.100167e+001
8.879663e+002,4.188757e+001
8.889305e+002,4.377630e+001
8.898948e+002,4.629250e+001
8.908590e+002,4.755361e+001
8.918232e+002,4.673637e+001
8.927875e+002,4.588213e+001
8.937517e+002,4.536531e+001
8.947159e+002,4.504551e+001
8.956802e+002,4.463033e+001
8.966444e+002,4.407893e+001
8.976086e+002,4.379256e+001
8.985729e+002,4.441877e+001
8.995371e+002,4.557468e+001
9.005013e+002,4.654405e+001
9.014656e+002,4.733372e+001
9.024298e+002,4.789511e+001
9.033940e+002,4.807693e+001
9.043583e+002,4.792717e+001
9.053225e+002,4.842035e+001
9.062867e+002,5.063963e+001
9.072510e+002,5.192554e+001
9.082152e+002,5.181123e+001
9.091794e+002,5.120861e+001
9.101437e+002,5.100940e+001
9.111079e+002,5.134763e+001
9.120721e+002,5.155406e+001
9.130364e+002,5.114086e+001
9.140006e+002,5.036145e+001
9.149648e+002,4.931388e+001
9.159291e+002,4.814558e+001
9.168933e+002,4.676455e+001
9.178575e+002,4.509688e+001
9.188218e+002,4.363169e+001
9.197860e+002,4.475256e+001
9.207502e+002,4.853001e+001
9.217145e+002,5.068742e+001
9.226787e+002,4.983039e+001
9.236429e+002,4.780310e+001
9.246072e+002,4.706892e+001
9.255714e+002,4.790038e+001
9.265356e+002,4.818549e+001
9.274999e+002,4.701755e+001
9.284641e+002,4.578858e+001
9.294283e+002,4.498471e+001
9.303926e+002,4.452778e+001
9.313568e+002,4.406569e+001
9.323210e+002,4.338738e+001
9.332853e+002,4.287019e+001
9.342495e+002,4.363757e+001
9.352137e+002,4.485565e+001
9.361780e+002,4.520415e+001
9.371422e+002,4.447285e+001
9.381064e+002,4.335492e+001
9.390707e+002,4.269258e+001
9.400349e+002,4.247681e+001
9.409991e+002,4.211510e+001
9.419634e+002,4.114670e+001
9.429276e+002,4.058573e+001
9.438918e+002,4.122861e+001
9.448561e+002,4.231071e+001
9.458203e+002,4.233968e+001
9.467845e+002,4.067060e+001
9.477488e+002,3.928598e+001
9.487130e+002,4.027122e+001
9.496772e+002,4.169740e+001
9.506415e+002,4.215037e+001
9.516057e+002,4.149001e+001
9.525699e+002,4.017678e+001
9.535342e+002,3.862312e+001
9.544984e+002,3.689669e+001
9.554626e+002,3.592947e+001
9.564269e+002,3.578188e+001
9.573911e+002,3.624525e+001
9.583553e+002,3.822732e+001
9.593196e+002,4.032742e+001
9.602838e+002,3.975748e+001
9.612480e+002,3.544716e+001
9.622123e+002,3.246345e+001
9.631765e+002,3.402571e+001
9.641407e+002,3.550416e+001
9.651050e+002,3.405997e+001
9.660692e+002,3.081207e+001
9.670334e+002,2.868961e+001
9.679977e+002,2.957934e+001
9.689619e+002,3.203476e+001
9.699261e+002,3.274702e+001
9.708904e+002,3.227061e+001
9.718546e+002,3.225064e+001
9.728188e+002,3.296509e+001
9.737831e+002,3.442557e+001
9.747473e+002,3.698267e+001
9.757115e+002,4.106102e+001
9.766758e+002,4.405988e+001
9.776400e+002,4.596286e+001
9.786042e+002,4.694607e+001
9.795685e+002,4.674748e+001
9.805327e+002,4.561790e+001
9.814969e+002,4.384586e+001
9.824612e+002,4.158294e+001
9.834254e+002,3.906155e+001
9.843896e+002,3.595797e+001
9.853539e+002,3.287852e+001
9.863181e+002,3.033964e+001
9.872823e+002,2.844060e+001
9.882466e+002,2.760624e+001
9.892108e+002,2.836484e+001
9.901750e+002,3.038749e+001
9.911393e+002,3.038016e+001
9.921035e+002,2.552995e+001
9.930677e+002,2.279384e+001
9.940320e+002,2.390414e+001
9.949962e+002,2.624759e+001
9.959604e+002,2.768320e+001
9.969247e+002,2.802948e+001
9.978889e+002,2.778440e+001
9.988531e+002,2.633395e+001
9.998174e+002,2.514558e+001
1.000782e+003,2.547717e+001
1.001746e+003,2.662399e+001
1.002710e+003,2.759924e+001
1.003674e+003,2.790341e+001
1.004639e+003,2.762617e+001
1.005603e+003,2.690308e+001
1.006567e+003,2.564453e+001
1.007531e+003,2.419872e+001
1.008495e+003,2.209927e+001
1.009460e+003,2.071722e+001
1.010424e+003,2.155124e+001
1.011388e+003,2.390932e+001
1.012352e+003,2.469318e+001
1.013317e+003,2.230037e+001
1.014281e+003,2.078989e+001
1.015245e+003,2.215524e+001
1.016209e+003,2.395205e+001
1.017174e+003,2.431874e+001
1.018138e+003,2.328822e+001
1.019102e+003,2.233951e+001
1.020066e+003,2.279173e+001
1.021031e+003,2.388054e+001
1.021995e+003,2.261954e+001
1.022959e+003,1.953117e+001
1.023923e+003,1.803576e+001
1.024887e+003,1.978059e+001
1.025852e+003,2.265531e+001
1.026816e+003,2.321524e+001
1.027780e+003,2.095113e+001
1.028744e+003,1.906458e+001
1.029709e+003,1.754299e+001
1.030673e+003,1.666989e+001
1.031637e+003,1.691454e+001
1.032601e+003,1.766647e+001
1.033566e+003,1.832101e+001
1.034530e+003,1.865782e+001
1.035494e+003,1.833273e+001
1.036458e+003,1.609418e+001
1.037422e+003,1.345093e+001
1.038387e+003,1.316049e+001
1.039351e+003,1.511310e+001
1.040315e+003,1.759303e+001
1.041279e+003,1.947333e+001
1.042244e+003,2.075765e+001
1.043208e+003,2.124294e+001
1.044172e+003,2.032182e+001
1.045136e+003,1.940498e+001
1.046101e+003,1.815710e+001
1.047065e+003,1.734840e+001
1.048029e+003,1.773446e+001
1.048993e+003,1.900763e+001
1.049958e+003,2.009039e+001
1.050922e+003,2.058604e+001
1.051886e+003,2.060987e+001
1.052850e+003,1.967348e+001
1.053814e+003,1.863642e+001
1.054779e+003,1.908635e+001
1.055743e+003,2.110224e+001
1.056707e+003,2.281827e+001
1.057671e+003,2.189771e+001
1.058636e+003,1.830170e+001
1.059600e+003,1.631138e+001
1.060564e+003,1.676328e+001
1.061528e+003,1.768090e+001
1.062493e+003,1.914589e+001
1.063457e+003,2.061295e+001
1.064421e+003,2.165448e+001
1.065385e+003,2.223687e+001
1.066349e+003,2.209370e+001
1.067314e+003,2.033064e+001
1.068278e+003,1.871013e+001
1.069242e+003,1.880234e+001
1.070206e+003,1.979218e+001
1.071171e+003,2.021869e+001
1.072135e+003,1.949612e+001
1.073099e+003,1.844241e+001
1.074063e+003,1.855551e+001
1.075028e+003,2.005084e+001
1.075992e+003,2.016854e+001
1.076956e+003,1.789908e+001
1.077920e+003,1.606126e+001
1.078885e+003,1.627510e+001
1.079849e+003,1.748362e+001
1.080813e+003,1.749872e+001
1.081777e+003,1.575983e+001
1.082741e+003,1.442506e+001
1.083706e+003,1.499592e+001
1.084670e+003,1.577527e+001
1.085634e+003,1.569750e+001
1.086598e+003,1.513248e+001
1.087563e+003,1.504733e+001
1.088527e+003,1.597893e+001
1.089491e+003,1.743671e+001
1.090455e+003,1.835878e+001
1.091420e+003,1.861021e+001
1.092384e+003,1.894525e+001
1.093348e+003,1.992246e+001
1.094312e+003,1.989893e+001
1.095276e+003,1.683274e+001
1.096241e+003,1.215291e+001
1.097205e+003,1.056426e+001
1.098169e+003,1.393166e+001
1.099133e+003,1.634351e+001
1.100098e+003,1.439268e+001
1.101062e+003,1.202800e+001
1.102026e+003,1.157092e+001
1.102990e+003,1.283652e+001
1.103955e+003,1.486569e+001
1.104919e+003,1.702228e+001
1.105883e+003,1.872145e+001
1.106847e+003,1.856145e+001
1.107812e+003,1.648128e+001
1.108776e+003,1.493306e+001
1.109740e+003,1.405889e+001
1.110704e+003,1.363000e+001
1.111668e+003,1.355126e+001
1.112633e+003,1.386871e+001
1.113597e+003,1.478451e+001
1.114561e+003,1.698572e+001
1.115525e+003,1.800877e+001
1.116490e+003,1.576794e+001
1.117454e+003,1.350484e+001
1.118418e+003,1.381116e+001
1.119382e+003,1.599107e+001
1.120347e+003,1.765553e+001
1.121311e+003,1.728068e+001
1.122275e+003,1.557114e+001
1.123239e+003,1.384722e+001
1.124203e+003,1.230717e+001
1.125168e+003,1.190307e+001
1.126132e+003,1.303723e+001
1.127096e+003,1.452032e+001
1.128060e+003,1.574274e+001
1.129025e+003,1.656748e+001
1.129989e+003,1.624738e+001
1.130953e+003,1.386541e+001
1.131917e+003,1.226630e+001
1.132882e+003,1.286079e+001
1.133846e+003,1.377536e+001
1.134810e+003,1.401046e+001
1.135774e+003,1.358255e+001
1.136739e+003,1.273976e+001
1.137703e+003,1.164075e+001
1.138667e+003,1.074214e+001
1.139631e+003,1.087114e+001
1.140595e+003,1.202144e+001
1.141560e+003,1.391061e+001
1.142524e+003,1.699017e+001
1.143488e+003,1.936430e+001
1.144452e+003,1.889513e+001
1.145417e+003,1.663314e+001
1.146381e+003,1.665742e+001
1.147345e+003,1.999593e+001
1.148309e+003,2.308318e+001
1.149274e+003,2.529508e+001
1.150238e+003,2.687044e+001
1.151202e+003,2.740295e+001
1.152166e+003,2.756989e+001
1.153130e+003,2.876299e+001
1.154095e+003,3.144408e+001
1.155059e+003,3.384859e+001
1.156023e+003,3.318600e+001
1.156987e+003,3.006528e+001
1.157952e+003,2.951340e+001
1.158916e+003,3.232456e+001
1.159880e+003,3.397827e+001
1.160844e+003,3.102987e+001
1.161809e+003,2.540657e+001
1.162773e+003,2.159173e+001
1.163737e+003,1.986484e+001
1.164701e+003,1.883898e+001
1.165666e+003,1.927200e+001
1.166630e+003,1.927560e+001
1.167594e+003,1.752550e+001
1.168558e+003,1.517669e+001
1.169522e+003,1.383292e+001
1.170487e+003,1.396661e+001
1.171451e+003,1.486156e+001
1.172415e+003,1.584119e+001
1.173379e+003,1.670291e+001
1.174344e+003,1.632256e+001
1.175308e+003,1.465871e+001
1.176272e+003,1.333081e+001
1.177236e+003,1.290971e+001
1.178201e+003,1.307790e+001
1.179165e+003,1.365157e+001
1.180129e+003,1.459953e+001
1.181093e+003,1.470623e+001
1.182057e+003,1.314699e+001
1.183022e+003,1.161799e+001
1.183986e+003,1.074612e+001
1.184950e+003,1.020994e+001
1.185914e+003,9.703262e+000
1.186879e+003,9.208359e+000
1.187843e+003,8.866974e+000
1.188807e+003,8.767204e+000
1.189771e+003,8.973167e+000
1.190736e+003,9.954590e+000
1.191700e+003,1.186217e+001
1.192664e+003,1.274406e+001
1.193628e+003,1.196579e+001
1.194593e+003,1.082678e+001
1.195557e+003,9.999260e+000
1.196521e+003,9.519760e+000
1.197485e+003,9.837120e+000
1.198449e+003,1.163450e+001
1.199414e+003,1.229449e+001
1.200378e+003,9.371704e+000
1.201342e+003,6.092026e+000
1.202306e+003,4.170074e+000
1.203271e+003,3.545227e+000
1.204235e+003,3.781540e+000
1.205199e+003,4.573463e+000
1.206163e+003,5.517349e+000
1.207128e+003,5.898987e+000
1.208092e+003,5.682907e+000
1.209056e+003,5.806374e+000
1.210020e+003,6.759506e+000
1.210984e+003,7.064240e+000
1.211949e+003,5.779884e+000
1.212913e+003,3.915886e+000
1.213877e+003,2.817848e+000
1.214841e+003,2.581017e+000
1.215806e+003,2.400337e+000
1.216770e+003,2.104744e+000
1.217734e+003,1.519714e+000
1.218698e+003,-1.249847e-001
1.219663e+003,-1.765739e+000
1.220627e+003,-1.859673e+000
1.221591e+003,-3.364868e-001
1.222555e+003,1.670868e+000
1.223520e+003,3.168777e+000
1.224484e+003,4.022888e+000
1.225448e+003,3.451065e+000
1.226412e+003,2.895889e-001
1.227376e+003,-1.715034e+000
1.228341e+003,-2.011818e+000
1.229305e+003,-1.865128e+000
1.230269e+003,-1.765205e+000
1.231233e+003,-1.764542e+000
1.232198e+003,-2.013138e+000
1.233162e+003,-2.562912e+000
1.234126e+003,-2.581619e+000
1.235090e+003,-9.274368e-001
1.236055e+003,9.482422e-001
1.237019e+003,1.245735e+000
1.237983e+003,4.767075e-001
1.238947e+003,3.193130e-001
1.239911e+003,1.487999e+000
1.240876e+003,2.697357e+000
1.241840e+003,1.772758e+000
1.242804e+003,-1.497330e+000
1.243768e+003,-2.937332e+000
1.244733e+003,-3.461075e-001
1.245697e+003,1.222321e+000
1.246661e+003,7.152176e-001
1.247625e+003,-4.291916e-001
1.248590e+003,-1.392876e+000
1.249554e+003,-1.930214e+000
1.250518e+003,-1.874321e+000
1.251482e+003,-1.159264e+000
1.252447e+003,-9.500885e-002
1.253411e+003,1.403534e+000
1.254375e+003,2.839821e+000
1.255339e+003,2.917564e+000
1.256303e+003,1.674530e+000
1.257268e+003,5.126877e-001
1.258232e+003,1.748734e-001
1.259196e+003,3.101044e-001
1.260160e+003,2.002106e-001
1.261125e+003,-2.587357e-001
1.262089e+003,5.443573e-002
1.263053e+003,2.737183e+000
1.264017e+003,4.174477e+000
1.264982e+003,2.339195e+000
1.265946e+003,-1.859055e-001
1.266910e+003,-8.298798e-001
1.267874e+003,3.513260e-001
1.268839e+003,1.560867e+000
1.269803e+003,1.615685e+000
1.270767e+003,1.081444e+000
1.271731e+003,1.116325e+000
1.272695e+003,1.693153e+000
1.273660e+003,1.484970e+000
1.274624e+003,-5.545807e-002
1.275588e+003,-1.250702e+000
1.276552e+003,-7.416840e-001
1.277517e+003,6.108856e-001
1.278481e+003,1.147141e+000
1.279445e+003,7.301178e-001
1.280409e+003,-9.120178e-002
1.281374e+003,-1.866936e+000
1.282338e+003,-2.978348e+000
1.283302e+003,-2.124626e+000
1.284266e+003,-5.248184e-001
1.285230e+003,6.835785e-001
1.286195e+003,1.131584e+000
1.287159e+003,6.515732e-001
1.288123e+003,-8.836441e-001
1.289087e+003,-2.761307e+000
1.290052e+003,-2.827110e+000
1.291016e+003,-2.328644e-001
1.291980e+003,9.317245e-001
1.292944e+003,-5.740967e-001
1.293909e+003,-1.870560e+000
1.294873e+003,-1.593941e+000
1.295837e+003,-5.331955e-001
1.296801e+003,2.658997e-001
1.297766e+003,6.368561e-001
1.298730e+003,8.293304e-001
1.299694e+003,1.035088e+000
1.300658e+003,8.783035e-001
1.301622e+003,-6.706085e-001
1.302587e+003,-2.549278e+000
1.303551e+003,-3.000595e+000
1.304515e+003,-1.740372e+000
1.305479e+003,4.492340e-001
1.306444e+003,3.181297e+000
1.307408e+003,5.934402e+000
1.308372e+003,6.893150e+000
1.309336e+003,5.538300e+000
1.310301e+003,3.931633e+000
1.311265e+003,1.757172e+000
1.312229e+003,-6.059265e-002
1.313193e+003,-1.409416e+000
1.314157e+003,-2.170906e+000
1.315122e+003,-1.981049e+000
1.316086e+003,-1.055328e+000
1.317050e+003,-2.146759e-001
1.318014e+003,2.604675e-002
1.318979e+003,-4.626465e-002
1.319943e+003,-3.392792e-002
1.320907e+003,1.142044e-001
1.321871e+003,6.368027e-001
1.322836e+003,1.702797e+000
1.323800e+003,2.295959e+000
1.324764e+003,1.392181e+000
1.325728e+003,-4.810333e-002
1.326693e+003,-1.380386e-001
1.327657e+003,1.173843e+000
1.328621e+003,1.531441e+000
1.329585e+003,-4.422760e-001
1.330549e+003,-1.827385e+000
1.331514e+003,-5.665665e-001
1.332478e+003,1.231621e+000
1.333442e+003,1.120338e+000
1.334406e+003,-3.962631e-001
1.335371e+003,-5.231705e-001
1.336335e+003,2.336891e+000
1.337299e+003,5.974739e+000
1.338263e+003,6.029419e+000
1.339228e+003,1.940613e+000
1.340192e+003,-4.396057e-001
1.341156e+003,-2.302933e-001
1.342120e+003,2.341003e-001
1.343084e+003,8.107452e-001
1.344049e+003,1.270813e+000
1.345013e+003,1.335899e+000
1.345977e+003,1.208893e+000
1.346941e+003,1.560402e+000
1.347906e+003,2.674484e+000
1.348870e+003,3.509743e+000
1.349834e+003,2.731102e+000
1.350798e+003,1.287735e+000
1.351763e+003,1.304817e+000
1.352727e+003,2.503738e+000
1.353691e+003,2.977028e+000
1.354655e+003,1.827560e+000
1.355620e+003,4.946899e-001
1.356584e+003,1.178459e+000
1.357548e+003,3.510696e+000
1.358512e+003,3.648872e+000
1.359476e+003,5.365753e-002
1.360441e+003,-2.220901e+000
1.361405e+003,-6.556778e-001
1.362369e+003,1.203644e+000
1.363333e+003,1.528694e+000
1.364298e+003,1.111717e+000
1.365262e+003,1.420288e+000
1.366226e+003,2.661499e+000
1.367190e+003,3.672401e+000
1.368155e+003,3.408836e+000
1.369119e+003,2.257309e+000
1.370083e+003,1.444649e+000
1.371047e+003,1.112579e+000
1.372011e+003,6.484985e-001
1.372976e+003,-2.127304e-001
1.373940e+003,-9.758148e-001
1.374904e+003,-1.729271e+000
1.375868e+003,-2.065155e+000
1.376833e+003,-1.136536e+000
1.377797e+003,8.559265e-001
1.378761e+003,2.286552e+000
1.379725e+003,2.381500e+000
1.380690e+003,2.067619e+000
1.381654e+003,2.304008e+000
1.382618e+003,2.740700e+000
1.383582e+003,2.835403e+000
1.384547e+003,2.604919e+000
1.385511e+003,2.436867e+000
1.386475e+003,2.512032e+000
1.387439e+003,2.687508e+000
1.388403e+003,2.674408e+000
1.389368e+003,2.468765e+000
1.390332e+003,2.842842e+000
1.391296e+003,4.620857e+000
1.392260e+003,5.395119e+000
1.393225e+003,3.561966e+000
1.394189e+003,1.805313e+000
1.395153e+003,2.005203e+000
1.396117e+003,3.144966e+000
1.397082e+003,3.322731e+000
1.398046e+003,2.206581e+000
1.399010e+003,1.217194e+000
1.399974e+003,1.626907e+000
1.400938e+003,3.011436e+000
1.401903e+003,4.302094e+000
1.402867e+003,5.827133e+000
1.403831e+003,6.285530e+000
1.404795e+003,4.222908e+000
1.405760e+003,2.941383e+000
1.406724e+003,4.599365e+000
1.407688e+003,6.715126e+000
1.408652e+003,6.084305e+000
1.409617e+003,3.070724e+000
1.410581e+003,6.626282e-001
1.411545e+003,8.903503e-003
1.412509e+003,3.549042e-001
1.413474e+003,1.524689e+000
1.414438e+003,2.813797e+000
1.415402e+003,3.017891e+000
1.416366e+003,2.340996e+000
1.417330e+003,1.852821e+000
1.418295e+003,1.969101e+000
1.419259e+003,2.406540e+000
1.420223e+003,2.932091e+000
1.421187e+003,3.461906e+000
1.422152e+003,3.629791e+000
1.423116e+003,3.313515e+000
1.424080e+003,3.243164e+000
1.425044e+003,3.982887e+000
1.426009e+003,4.485374e+000
1.426973e+003,4.333397e+000
1.427937e+003,3.683792e+000
1.428901e+003,2.184616e+000
1.429865e+003,3.757935e-001
1.430830e+003,2.325821e-001
1.431794e+003,2.959213e+000
1.432758e+003,6.424210e+000
1.433722e+003,6.326492e+000
1.434687e+003,2.341812e+000
1.435651e+003,2.208710e-001
1.436615e+003,1.306046e+000
1.437579e+003,1.843979e+000
1.438544e+003,7.705078e-001
1.439508e+003,-1.223526e-001
1.440472e+003,8.710861e-001
1.441436e+003,2.819695e+000
1.442401e+003,3.692047e+000
1.443365e+003,3.052238e+000
1.444329e+003,2.225525e+000
1.445293e+003,2.177879e+000
1.446257e+003,2.596901e+000
1.447222e+003,2.886955e+000
1.448186e+003,3.085686e+000
1.449150e+003,3.475525e+000
1.450114e+003,4.142387e+000
1.451079e+003,4.662788e+000
1.452043e+003,4.866234e+000
1.453007e+003,4.850189e+000
1.453971e+003,4.691895e+000
1.454936e+003,4.368668e+000
1.455900e+003,3.760925e+000
1.456864e+003,2.655800e+000
1.457828e+003,2.048378e+000
1.458792e+003,3.089317e+000
1.459757e+003,4.275421e+000
1.460721e+003,4.117737e+000
1.461685e+003,3.229485e+000
1.462649e+003,3.033836e+000
1.463614e+003,3.881454e+000
1.464578e+003,4.907532e+000
1.465542e+003,5.356255e+000
1.466506e+003,5.328812e+000
1.467471e+003,5.145973e+000
1.468435e+003,4.825531e+000
1.469399e+003,4.616959e+000
1.470363e+003,4.825455e+000
1.471328e+003,4.554108e+000
1.472292e+003,2.611465e+000
1.473256e+003,9.653931e-001
1.474220e+003,1.536346e+000
1.475184e+003,3.470482e+000
1.476149e+003,4.981323e+000
1.477113e+003,5.358665e+000
1.478077e+003,4.905083e+000
1.479041e+003,3.915855e+000
1.480006e+003,2.729698e+000
1.480970e+003,2.372940e+000
1.481934e+003,2.916008e+000
1.482898e+003,3.824554e+000
1.483863e+003,5.684288e+000
1.484827e+003,7.012505e+000
1.485791e+003,7.306297e+000
1.486755e+003,7.101959e+000
1.487719e+003,6.847656e+000
1.488684e+003,6.463829e+000
1.489648e+003,5.374893e+000
1.490612e+003,3.483162e+000
1.491576e+003,2.339897e+000
1.492541e+003,3.350441e+000
1.493505e+003,5.596733e+000
1.494469e+003,7.457947e+000
1.495433e+003,8.825096e+000
1.496398e+003,8.984970e+000
1.497362e+003,7.545662e+000
1.498326e+003,6.194801e+000
1.499290e+003,5.887955e+000
1.500255e+003,6.081329e+000
1.501219e+003,5.868179e+000
1.502183e+003,5.399925e+000
1.503147e+003,5.777542e+000
1.504111e+003,7.310417e+000
1.505076e+003,9.385803e+000
1.506040e+003,1.226434e+001
1.507004e+003,1.488207e+001
1.507968e+003,1.594272e+001
1.508933e+003,1.608164e+001
1.509897e+003,1.662293e+001
1.510861e+003,1.788312e+001
1.511825e+003,1.934107e+001
1.512790e+003,2.053140e+001
1.513754e+003,2.166647e+001
1.514718e+003,2.307826e+001
1.515682e+003,2.472881e+001
1.516646e+003,2.749503e+001
1.517611e+003,3.242307e+001
1.518575e+003,3.628055e+001
1.519539e+003,3.768529e+001
1.520503e+003,3.824971e+001
1.521468e+003,3.853299e+001
1.522432e+003,3.856992e+001
1.523396e+003,3.831905e+001
1.524360e+003,3.777637e+001
1.525325e+003,3.693675e+001
1.526289e+003,3.581599e+001
1.527253e+003,3.463907e+001
1.528217e+003,3.391630e+001
1.529182e+003,3.370921e+001
1.530146e+003,3.193401e+001
1.531110e+003,2.704323e+001
1.532074e+003,2.340134e+001
1.533039e+003,2.206354e+001
1.534003e+003,2.079232e+001
1.534967e+003,1.871989e+001
1.535931e+003,1.631664e+001
1.536896e+003,1.398077e+001
1.537860e+003,1.191232e+001
1.538824e+003,1.021287e+001
1.539788e+003,8.928589e+000
1.540752e+003,8.274910e+000
1.541717e+003,8.686157e+000
1.542681e+003,9.880280e+000
1.543645e+003,9.879959e+000
1.544609e+003,8.043839e+000
1.545573e+003,6.784653e+000
1.546538e+003,5.987755e+000
1.547502e+003,5.722763e+000
1.548466e+003,6.354057e+000
1.549430e+003,7.400826e+000
1.550395e+003,8.519386e+000
1.551359e+003,9.520294e+000
1.552323e+003,1.016814e+001
1.553287e+003,1.039130e+001
1.554252e+003,1.029540e+001
1.555216e+003,9.965775e+000
1.556180e+003,9.358200e+000
1.557144e+003,8.217369e+000
1.558109e+003,6.552383e+000
1.559073e+003,5.656128e+000
1.560037e+003,5.982002e+000
1.561001e+003,5.980278e+000
1.561966e+003,4.748146e+000
1.562930e+003,3.503220e+000
1.563894e+003,3.343719e+000
1.564858e+003,3.997581e+000
1.565823e+003,4.885536e+000
1.566787e+003,5.837486e+000
1.567751e+003,6.354774e+000
1.568715e+003,5.979713e+000
1.569679e+003,5.685242e+000
1.570644e+003,7.133644e+000
1.571608e+003,9.421196e+000
1.572572e+003,9.838409e+000
1.573536e+003,8.299606e+000
1.574500e+003,7.241249e+000
1.575465e+003,7.664238e+000
1.576429e+003,8.414459e+000
1.577393e+003,8.316360e+000
1.578357e+003,7.967392e+000
1.579322e+003,8.908272e+000
1.580286e+003,1.109975e+001
1.581250e+003,1.251688e+001
1.582214e+003,1.250102e+001
1.583179e+003,1.172228e+001
1.584143e+003,1.001791e+001
1.585107e+003,8.340591e+000
1.586071e+003,8.169098e+000
1.587036e+003,9.155319e+000
1.588000e+003,1.004782e+001
1.588964e+003,1.053999e+001
1.589928e+003,1.089439e+001
1.590893e+003,1.115185e+001
1.591857e+003,1.151371e+001
1.592821e+003,1.273280e+001
1.593785e+003,1.446526e+001
1.594750e+003,1.423432e+001
1.595714e+003,1.125289e+001
1.596678e+003,9.372955e+000
1.597642e+003,1.088507e+001
1.598606e+003,1.287051e+001
1.599571e+003,1.295896e+001
1.600535e+003,1.216770e+001
1.601499e+003,1.159306e+001
1.602463e+003,1.136405e+001
1.603427e+003,1.151529e+001
1.604392e+003,1.210133e+001
1.605356e+003,1.277200e+001
1.606320e+003,1.312115e+001
1.607284e+003,1.330378e+001
1.608249e+003,1.389604e+001
1.609213e+003,1.492559e+001
1.610177e+003,1.535494e+001
1.611141e+003,1.477200e+001
1.612106e+003,1.419010e+001
1.613070e+003,1.415334e+001
1.614034e+003,1.423241e+001
1.614998e+003,1.382088e+001
1.615963e+003,1.343908e+001
1.616927e+003,1.431422e+001
1.617891e+003,1.636542e+001
1.618855e+003,1.782143e+001
1.619820e+003,1.759184e+001
1.620784e+003,1.631751e+001
1.621748e+003,1.441032e+001
1.622712e+003,1.229873e+001
1.623677e+003,1.271829e+001
1.624641e+003,1.640310e+001
1.625605e+003,1.832244e+001
1.626569e+003,1.612881e+001
1.627533e+003,1.384888e+001
1.628498e+003,1.349905e+001
1.629462e+003,1.396944e+001
1.630426e+003,1.461440e+001
1.631390e+003,1.521886e+001
1.632354e+003,1.570020e+001
1.633319e+003,1.595616e+001
1.634283e+003,1.528328e+001
1.635247e+003,1.279630e+001
1.636211e+003,1.018033e+001
1.637176e+003,1.097424e+001
1.638140e+003,1.491696e+001
1.639104e+003,1.760796e+001
1.640068e+003,1.874091e+001
1.641033e+003,1.923520e+001
1.641997e+003,1.916866e+001
1.642961e+003,1.874583e+001
1.643925e+003,1.799113e+001
1.644890e+003,1.702441e+001
1.645854e+003,1.553497e+001
1.646818e+003,1.398390e+001
1.647782e+003,1.363072e+001
1.648747e+003,1.477617e+001
1.649711e+003,1.611916e+001
1.650675e+003,1.666124e+001
1.651639e+003,1.667567e+001
1.652604e+003,1.649710e+001
1.653568e+003,1.611382e+001
1.654532e+003,1.629392e+001
1.655496e+003,1.742290e+001
1.656460e+003,1.786375e+001
1.657425e+003,1.678432e+001
1.658389e+003,1.544532e+001
1.659353e+003,1.434962e+001
1.660317e+003,1.348421e+001
1.661281e+003,1.284298e+001
1.662246e+003,1.239047e+001
1.663210e+003,1.219307e+001
1.664174e+003,1.226321e+001
1.665138e+003,1.203005e+001
1.666103e+003,1.068680e+001
1.667067e+003,9.174896e+000
1.668031e+003,9.992050e+000
1.668995e+003,1.288165e+001
1.669960e+003,1.355302e+001
1.670924e+003,1.102816e+001
1.671888e+003,9.253754e+000
1.672852e+003,9.829498e+000
1.673817e+003,1.081695e+001
1.674781e+003,1.092042e+001
1.675745e+003,1.079727e+001
1.676709e+003,1.135983e+001
1.677674e+003,1.233373e+001
1.678638e+003,1.270541e+001
1.679602e+003,1.216172e+001
1.680566e+003,1.120891e+001
1.681531e+003,1.007343e+001
1.682495e+003,9.054062e+000
1.683459e+003,8.586990e+000
1.684423e+003,8.609077e+000
1.685387e+003,9.061020e+000
1.686352e+003,1.005965e+001
1.687316e+003,1.067699e+001
1.688280e+003,1.066962e+001
1.689244e+003,1.011200e+001
1.690208e+003,8.480919e+000
1.691173e+003,6.687798e+000
1.692137e+003,5.772659e+000
1.693101e+003,5.634094e+000
1.694065e+003,5.764114e+000
1.695030e+003,6.013939e+000
1.695994e+003,6.058540e+000
1.696958e+003,5.500587e+000
1.697922e+003,4.937569e+000
1.698887e+003,5.304489e+000
1.699851e+003,6.259972e+000
1.700815e+003,6.728699e+000
1.701779e+003,6.592529e+000
1.702744e+003,6.141602e+000
1.703708e+003,5.433044e+000
1.704672e+003,4.811974e+000
1.705636e+003,4.446121e+000
1.706601e+003,4.246719e+000
1.707565e+003,4.233063e+000
1.708529e+003,4.377365e+000
1.709493e+003,4.571320e+000
1.710458e+003,4.855057e+000
1.711422e+003,4.603424e+000
1.712386e+003,2.980606e+000
1.713350e+003,1.513138e+000
1.714314e+003,1.715965e+000
1.715279e+003,2.599182e+000
1.716243e+003,2.248024e+000
1.717207e+003,9.448090e-001
1.718171e+003,9.664841e-001
1.719135e+003,2.949547e+000
1.720100e+003,4.408051e+000
1.721064e+003,3.512802e+000
1.722028e+003,1.711632e+000
1.722992e+003,1.123116e+000
1.723957e+003,1.553391e+000
1.724921e+003,1.516518e+000
1.725885e+003,8.117828e-001
1.726849e+003,3.747787e-001
1.727814e+003,5.686646e-001
1.728778e+003,9.466248e-001
1.729742e+003,1.458145e+000
1.730706e+003,1.905624e+000
1.731671e+003,1.710632e+000
1.732635e+003,1.346390e+000
1.733599e+003,2.493065e+000
1.734563e+003,4.971100e+000
1.735528e+003,5.705482e+000
1.736492e+003,3.064537e+000
1.737456e+003,-2.683182e-001
1.738420e+003,-1.114754e+000
1.739385e+003,-1.556244e-001
1.740349e+003,2.532272e-001
1.741313e+003,-3.533936e-002
1.742277e+003,6.807709e-002
1.743241e+003,1.128464e+000
1.744206e+003,1.757652e+000
1.745170e+003,1.487045e+000
1.746134e+003,1.030800e+000
1.747098e+003,6.677475e-001
1.748063e+003,4.093704e-001
1.749027e+003,3.535995e-001
1.749991e+003,3.723297e-001
1.750955e+003,5.943298e-002
1.751919e+003,-6.534348e-001
1.752884e+003,-1.284088e+000
1.753848e+003,-1.437981e+000
1.754812e+003,-1.122421e+000
1.755776e+003,-1.824875e-001
1.756741e+003,1.377998e+000
1.757705e+003,1.750572e+000
1.758669e+003,6.436920e-002
1.759633e+003,-3.451691e-001
1.760598e+003,2.154228e+000
1.761562e+003,3.997902e+000
1.762526e+003,4.085869e+000
1.763490e+003,3.333321e+000
1.764455e+003,1.693237e+000
1.765419e+003,2.486420e-002
1.766383e+003,-3.004150e-001
1.767347e+003,6.050186e-001
1.768312e+003,1.405785e+000
1.769276e+003,1.464493e+000
1.770240e+003,1.025009e+000
1.771204e+003,1.373367e-001
1.772168e+003,-7.205811e-001
1.773133e+003,-1.915131e-001
1.774097e+003,1.490334e+000
1.775061e+003,1.705070e+000
1.776025e+003,-1.272659e-001
1.776990e+003,-1.318680e+000
1.777954e+003,-7.282562e-001
1.778918e+003,3.137512e-001
1.779882e+003,1.043617e+000
1.780846e+003,1.438919e+000
1.781811e+003,1.686218e+000
1.782775e+003,1.659584e+000
1.783739e+003,6.615295e-001
1.784703e+003,-1.521767e+000
1.785668e+003,-3.106575e+000
1.786632e+003,-3.156303e+000
1.787596e+003,-2.779839e+000
1.788560e+003,-2.552292e+000
1.789525e+003,-2.424545e+000
1.790489e+003,-2.790169e+000
1.791453e+003,-3.232323e+000
1.792417e+003,-1.981659e+000
1.793382e+003,1.052078e+000
1.794346e+003,3.041489e+000
1.795310e+003,2.446175e+000
1.796274e+003,6.795807e-001
1.797239e+003,-7.848587e-001
1.798203e+003,-1.776314e+000
1.799167e+003,-1.883911e+000
1.800131e+003,-1.075996e+000
1.801095e+003,-2.905655e-001
1.802060e+003,1.062691e+000
1.803024e+003,1.648476e+000
1.803988e+003,6.207352e-001
1.804952e+003,-3.855286e-001
1.805917e+003,-7.329102e-001
1.806881e+003,-5.778046e-001
1.807845e+003,4.219742e-001
1.808809e+003,1.580948e+000
1.809773e+003,1.390556e+000
1.810738e+003,-1.986847e-001
1.811702e+003,-1.544708e+000
1.812666e+003,-1.626663e+000
1.813630e+003,-1.091560e+000
1.814595e+003,-7.949829e-001
1.815559e+003,-6.406479e-001
1.816523e+003,-4.379272e-002
1.817487e+003,1.110298e+000
1.818452e+003,1.457100e+000
1.819416e+003,6.735382e-001
1.820380e+003,-1.592255e-002
1.821344e+003,-2.246552e-001
1.822309e+003,-4.490967e-001
1.823273e+003,-1.323364e+000
1.824237e+003,-2.021774e+000
1.825201e+003,-1.521820e+000
1.826166e+003,-2.145233e-001
1.827130e+003,9.611206e-001
1.828094e+003,1.799896e+000
1.829058e+003,2.021957e+000
1.830022e+003,1.329521e+000
1.830987e+003,4.166870e-001
1.831951e+003,-3.342972e-001
1.832915e+003,-8.163910e-001
1.833879e+003,-6.194916e-001
1.834844e+003,-6.307220e-002
1.835808e+003,-2.894974e-001
1.836772e+003,-1.345123e+000
1.837736e+003,-1.930260e+000
1.838700e+003,-1.490829e+000
1.839665e+003,-7.934036e-001
1.840629e+003,-5.189056e-001
1.841593e+003,-3.822098e-001
1.842557e+003,2.751389e-001
1.843522e+003,1.433182e+000
1.844486e+003,1.756638e+000
1.845450e+003,5.877457e-001
1.846414e+003,-2.656555e-002
1.847379e+003,3.656235e-001
1.848343e+003,5.238113e-001
1.849307e+003,1.541138e-002
1.850271e+003,-7.158127e-001
1.851236e+003,-1.575607e+000
1.852200e+003,-2.259026e+000
1.853164e+003,-2.502289e+000
1.854128e+003,-2.306496e+000
1.855093e+003,-1.531799e+000
1.856057e+003,-2.111893e-001
1.857021e+003,7.028122e-001
1.857985e+003,3.010788e-001
1.858949e+003,-5.546799e-001
1.859914e+003,-1.740723e-001
1.860878e+003,1.146034e+000
1.861842e+003,1.542542e+000
1.862806e+003,9.634705e-001
1.863771e+003,6.521149e-001
1.864735e+003,9.245987e-001
1.865699e+003,8.141861e-001
1.866663e+003,-1.991959e-001
1.867627e+003,-1.467125e+000
1.868592e+003,-2.869263e+000
1.869556e+003,-3.951775e+000
1.870520e+003,-3.438004e+000
1.871484e+003,-1.646797e+000
1.872449e+003,-7.335739e-001
1.873413e+003,-9.893875e-001
1.874377e+003,-1.221565e+000
1.875341e+003,-1.376198e+000
1.876306e+003,-1.303055e+000
1.877270e+003,-6.764679e-001
1.878234e+003,-3.562164e-002
1.879198e+003,3.427887e-002
1.880163e+003,-2.352295e-001
1.881127e+003,-4.392014e-001
1.882091e+003,-4.516220e-001
1.883055e+003,-2.024078e-001
1.884020e+003,3.053970e-001
1.884984e+003,8.893509e-001
1.885948e+003,1.401840e+000
1.886912e+003,1.700302e+000
1.887876e+003,1.473991e+000
1.888841e+003,7.650452e-001
1.889805e+003,-6.597900e-002
1.890769e+003,-1.174828e+000
1.891733e+003,-1.512199e+000
1.892698e+003,-7.226181e-001
1.893662e+003,1.202927e-001
1.894626e+003,6.244049e-001
1.895590e+003,1.152359e+000
1.896554e+003,2.453560e+000
1.897519e+003,3.616989e+000
1.898483e+003,3.093933e+000
1.899447e+003,1.394524e+000
1.900411e+003,6.842728e-001
1.901376e+003,1.413826e+000
1.902340e+003,1.582275e+000
1.903304e+003,-1.382828e-001
1.904268e+003,-1.711052e+000
1.905233e+003,-1.851883e+000
1.906197e+003,-1.257294e+000
1.907161e+003,-3.958511e-001
1.908125e+003,5.617599e-001
1.909090e+003,1.416382e+000
1.910054e+003,2.092667e+000
1.911018e+003,2.686127e+000
1.911982e+003,3.178078e+000
1.912947e+003,2.910934e+000
1.913911e+003,1.383415e+000
1.914875e+003,-1.942215e-001
1.915839e+003,1.898041e-001
1.916803e+003,1.914124e+000
1.917768e+003,1.771431e+000
1.918732e+003,-6.847000e-001
1.919696e+003,-1.807976e+000
1.920660e+003,-1.119576e+000
1.921625e+003,-2.037048e-001
1.922589e+003,7.773895e-001
1.923553e+003,1.577011e+000
1.924517e+003,1.994339e+000
1.925481e+003,2.239418e+000
1.926446e+003,2.734627e+000
1.927410e+003,3.107735e+000
1.928374e+003,2.192711e+000
1.929338e+003,9.584045e-002
1.930303e+003,-6.780548e-001
1.931267e+003,1.039986e+000
1.932231e+003,2.585495e+000
1.933195e+003,2.935127e+000
1.934160e+003,2.407280e+000
1.935124e+003,2.771988e-001
1.936088e+003,-1.856880e+000
1.937052e+003,-1.506561e+000
1.938017e+003,2.880859e-001
1.938981e+003,7.663498e-001
1.939945e+003,-2.926941e-001
1.940909e+003,-1.116531e+000
1.941874e+003,-8.797607e-001
1.942838e+003,-6.362915e-003
1.943802e+003,1.211685e+000
1.944766e+003,2.321167e+000
1.945730e+003,2.239227e+000
1.946695e+003,1.083115e+000
1.947659e+003,-1.217728e-001
1.948623e+003,-1.507553e+000
1.949587e+003,-1.335159e+000
1.950552e+003,1.192207e+000
1.951516e+003,2.818954e+000
1.952480e+003,2.153877e+000
1.953444e+003,9.928589e-001
1.954408e+003,2.481537e-001
1.955373e+003,-3.500366e-002
1.956337e+003,5.934525e-001
1.957301e+003,1.819168e+000
1.958265e+003,2.374496e+000
1.959230e+003,2.203262e+000
1.960194e+003,1.640221e+000
1.961158e+003,3.119659e-002
1.962122e+003,-1.056213e+000
1.963087e+003,-9.396133e-001
1.964051e+003,-5.111008e-001
1.965015e+003,-1.009903e-001
1.965979e+003,3.011856e-001
1.966944e+003,7.154388e-001
1.967908e+003,1.077667e+000
1.968872e+003,1.331116e+000
1.969836e+003,1.471481e+000
1.970801e+003,1.424934e+000
1.971765e+003,1.199471e+000
1.972729e+003,1.234177e+000
1.973693e+003,1.973228e+000
1.974657e+003,2.936424e+000
1.975622e+003,3.398567e+000
1.976586e+003,3.489113e+000
1.977550e+003,3.612335e+000
1.978514e+003,3.772209e+000
1.979479e+003,3.849205e+000
1.980443e+003,3.810043e+000
1.981407e+003,3.611244e+000
1.982371e+003,3.253677e+000
1.983335e+003,2.718681e+000
1.984300e+003,1.921356e+000
1.985264e+003,1.108772e+000
1.986228e+003,6.890640e-001
1.987192e+003,6.334076e-001
1.988157e+003,8.203049e-001
1.989121e+003,1.325035e+000
1.990085e+003,1.783310e+000
1.991049e+003,2.250114e+000
1.992014e+003,2.608009e+000
1.992978e+003,2.278587e+000
1.993942e+003,2.563560e+000
1.994906e+003,5.107651e+000
1.995871e+003,7.194740e+000
1.996835e+003,6.318237e+000
1.997799e+003,4.057182e+000
1.998763e+003,2.384346e+000
1.999728e+003,1.540428e+000
