5.003444e+002,5.141425e+001
5.013087e+002,5.110155e+001
5.022729e+002,4.953912e+001
5.032371e+002,4.714761e+001
5.042014e+002,4.477892e+001
5.051656e+002,4.253481e+001
5.061298e+002,4.113489e+001
5.070941e+002,4.136687e+001
5.080583e+002,4.373735e+001
5.090225e+002,4.439813e+001
5.099868e+002,4.229312e+001
5.109510e+002,4.016054e+001
5.119152e+002,3.969469e+001
5.128795e+002,4.110930e+001
5.138437e+002,4.177219e+001
5.148079e+002,3.971333e+001
5.157722e+002,3.775128e+001
5.167364e+002,3.739557e+001
5.177006e+002,3.852936e+001
5.186649e+002,3.947197e+001
5.196291e+002,3.770105e+001
5.205933e+002,3.512369e+001
5.215576e+002,3.370609e+001
5.225218e+002,3.358122e+001
5.234860e+002,3.417764e+001
5.244503e+002,3.460225e+001
5.254145e+002,3.495259e+001
5.263787e+002,3.508650e+001
5.273430e+002,3.504901e+001
5.283072e+002,3.477322e+001
5.292714e+002,3.398575e+001
5.302357e+002,3.192696e+001
5.311999e+002,3.076169e+001
5.321641e+002,3.153308e+001
5.331284e+002,3.276086e+001
5.340926e+002,3.323769e+001
5.350568e+002,3.243867e+001
5.360211e+002,3.121950e+001
5.369853e+002,3.051593e+001
5.379495e+002,2.995522e+001
5.389138e+002,2.912939e+001
5.398780e+002,2.789114e+001
5.408422e+002,2.644469e+001
5.418065e+002,2.522470e+001
5.427707e+002,2.427150e+001
5.437349e+002,2.433594e+001
5.446992e+002,2.600218e+001
5.456634e+002,2.856331e+001
5.466276e+002,2.953258e+001
5.475919e+002,2.640314e+001
5.485561e+002,2.484300e+001
5.495203e+002,2.629601e+001
5.504846e+002,2.893657e+001
5.514488e+002,3.007399e+001
5.524130e+002,2.824535e+001
5.533773e+002,2.617123e+001
5.543415e+002,2.542357e+001
5.553057e+002,2.517999e+001
5.562700e+002,2.448192e+001
5.572342e+002,2.273538e+001
5.581984e+002,2.058653e+001
5.591627e+002,1.959438e+001
5.601269e+002,1.949751e+001
5.610911e+002,1.991191e+001
5.620554e+002,2.065688e+001
5.630196e+002,2.162122e+001
5.639838e+002,2.212717e+001
5.649481e+002,2.215508e+001
5.659123e+002,2.178584e+001
5.668765e+002,2.076996e+001
5.678408e+002,1.947328e+001
5.688050e+002,1.880411e+001
5.697692e+002,1.923460e+001
5.707335e+002,1.972578e+001
5.716977e+002,2.007048e+001
5.726619e+002,2.031511e+001
5.736262e+002,2.072998e+001
5.745904e+002,2.165773e+001
5.755546e+002,2.216740e+001
5.765189e+002,1.998570e+001
5.774831e+002,1.644208e+001
5.784473e+002,1.415173e+001
5.794116e+002,1.492909e+001
5.803758e+002,1.848567e+001
5.813400e+002,2.033345e+001
5.823043e+002,2.022403e+001
5.832685e+002,1.942757e+001
5.842327e+002,1.812756e+001
5.851970e+002,1.649326e+001
5.861612e+002,1.522322e+001
5.871254e+002,1.440756e+001
5.880897e+002,1.387978e+001
5.890539e+002,1.377376e+001
5.900181e+002,1.385368e+001
5.909824e+002,1.384058e+001
5.919466e+002,1.367799e+001
5.929108e+002,1.314847e+001
5.938751e+002,1.168004e+001
5.948393e+002,9.880478e+000
5.958035e+002,8.746063e+000
5.967678e+002,9.004852e+000
5.977320e+002,1.048125e+001
5.986962e+002,1.171767e+001
5.996605e+002,1.269226e+001
6.006247e+002,1.324048e+001
6.015889e+002,1.316850e+001
6.025532e+002,1.252919e+001
6.035174e+002,1.196523e+001
6.044816e+002,1.148111e+001
6.054459e+002,1.111879e+001
6.064101e+002,1.081696e+001
6.073743e+002,1.064537e+001
6.083386e+002,1.076820e+001
6.093028e+002,1.140880e+001
6.102670e+002,1.216371e+001
6.112313e+002,1.310713e+001
6.121955e+002,1.380418e+001
6.131597e+002,1.340659e+001
6.141240e+002,1.137833e+001
6.150882e+002,8.438705e+000
6.160524e+002,8.184372e+000
6.170167e+002,1.016605e+001
6.179809e+002,1.175906e+001
6.189451e+002,1.156009e+001
6.199094e+002,9.825470e+000
6.208736e+002,8.880173e+000
6.218378e+002,1.014752e+001
6.228021e+002,1.076889e+001
6.237663e+002,1.008371e+001
6.247305e+002,8.738327e+000
6.256948e+002,7.711380e+000
6.266590e+002,7.254822e+000
6.276232e+002,7.274323e+000
6.285875e+002,8.035400e+000
6.295517e+002,9.037491e+000
6.305159e+002,9.706314e+000
6.314802e+002,9.713181e+000
6.324444e+002,9.281555e+000
6.334086e+002,9.147064e+000
6.343729e+002,9.259216e+000
6.353371e+002,9.241547e+000
6.363013e+002,8.905838e+000
6.372656e+002,8.349091e+000
6.382298e+002,7.993027e+000
6.391940e+002,7.905701e+000
6.401583e+002,7.915024e+000
6.411225e+002,8.576813e+000
6.420867e+002,9.245834e+000
6.430510e+002,8.922470e+000
6.440152e+002,6.922241e+000
6.449794e+002,5.039505e+000
6.459437e+002,4.148438e+000
6.469079e+002,3.759811e+000
6.478721e+002,3.580582e+000
6.488364e+002,3.504486e+000
6.498006e+002,3.641815e+000
6.507648e+002,4.412292e+000
6.517291e+002,5.437820e+000
6.526933e+002,5.712036e+000
6.536575e+002,4.999039e+000
6.546218e+002,3.869858e+000
6.555860e+002,3.442261e+000
6.565502e+002,4.202988e+000
6.575145e+002,4.649063e+000
6.584787e+002,4.473801e+000
6.594429e+002,4.282196e+000
6.604072e+002,4.784866e+000
6.613714e+002,6.213425e+000
6.623356e+002,6.962753e+000
6.632999e+002,5.628601e+000
6.642641e+002,3.879440e+000
6.652283e+002,2.197021e+000
6.661926e+002,9.666595e-001
6.671568e+002,6.972046e-001
6.681210e+002,2.426102e+000
6.690853e+002,5.087570e+000
6.700495e+002,5.699524e+000
6.710137e+002,4.349686e+000
6.719780e+002,2.946213e+000
6.729422e+002,3.615982e+000
6.739064e+002,6.931442e+000
6.748707e+002,8.657394e+000
6.758349e+002,8.477737e+000
6.767991e+002,7.588379e+000
6.777634e+002,6.224289e+000
6.787276e+002,4.561859e+000
6.796918e+002,3.244949e+000
6.806561e+002,2.467300e+000
6.816203e+002,2.027023e+000
6.825845e+002,2.144699e+000
6.835488e+002,2.486053e+000
6.845130e+002,2.485413e+000
6.854772e+002,1.679581e+000
6.864415e+002,6.816254e-001
6.874057e+002,8.404541e-001
6.883699e+002,1.720490e+000
6.893342e+002,2.455276e+000
6.902984e+002,2.568436e+000
6.912626e+002,2.213730e+000
6.922269e+002,2.289551e+000
6.931911e+002,3.798294e+000
6.941553e+002,4.583405e+000
6.951196e+002,3.665405e+000
6.960838e+002,2.053574e+000
6.970480e+002,1.556641e+000
6.980123e+002,3.151917e+000
6.989765e+002,4.430252e+000
6.999407e+002,4.046097e+000
7.009050e+002,3.224335e+000
7.018692e+002,2.935699e+000
7.028334e+002,3.486481e+000
7.037977e+002,4.372314e+000
7.047619e+002,5.099213e+000
7.057261e+002,5.545792e+000
7.066904e+002,4.982422e+000
7.076546e+002,3.290466e+000
7.086188e+002,1.590042e+000
7.095831e+002,1.773407e+000
7.105473e+002,4.854309e+000
7.115115e+002,6.443344e+000
7.124758e+002,6.020889e+000
7.134400e+002,4.934143e+000
7.144042e+002,3.567627e+000
7.153685e+002,2.057861e+000
7.163327e+002,1.532639e+000
7.172969e+002,4.362503e+000
7.182612e+002,6.588287e+000
7.192254e+002,5.852188e+000
7.201896e+002,3.180756e+000
7.211539e+002,9.391632e-001
7.221181e+002,1.147873e+000
7.230823e+002,2.904663e+000
7.240466e+002,3.888519e+000
7.250108e+002,4.242035e+000
7.259750e+002,3.878571e+000
7.269393e+002,2.512741e+000
7.279035e+002,2.883453e-001
7.288677e+002,-8.922424e-001
7.298320e+002,6.103516e-002
7.307962e+002,1.117874e+000
7.317604e+002,2.247467e+000
7.327247e+002,3.401291e+000
7.336889e+002,4.482224e+000
7.346531e+002,5.376099e+000
7.356174e+002,5.941635e+000
7.365816e+002,6.558716e+000
7.375458e+002,6.870911e+000
7.385101e+002,6.349304e+000
7.394743e+002,5.005646e+000
7.404385e+002,3.472961e+000
7.414028e+002,2.637421e+000
7.423670e+002,2.304810e+000
7.433312e+002,2.145889e+000
7.442955e+002,2.272430e+000
7.452597e+002,2.658112e+000
7.462239e+002,3.262604e+000
7.471882e+002,4.143692e+000
7.481524e+002,4.799881e+000
7.491166e+002,5.096680e+000
7.500809e+002,5.137665e+000
7.510451e+002,4.899719e+000
7.520093e+002,4.434937e+000
7.529736e+002,3.864182e+000
7.539378e+002,3.144684e+000
7.549020e+002,2.734756e+000
7.558663e+002,3.059311e+000
7.568306e+002,3.741501e+000
7.577948e+002,4.178864e+000
7.587590e+002,4.007950e+000
7.597233e+002,3.528183e+000
7.606875e+002,4.065384e+000
7.616517e+002,5.510529e+000
7.626160e+002,6.148178e+000
7.635802e+002,5.320923e+000
7.645444e+002,3.718277e+000
7.655087e+002,2.726532e+000
7.664729e+002,2.478775e+000
7.674371e+002,2.602829e+000
7.684014e+002,3.356140e+000
7.693656e+002,4.113770e+000
7.703298e+002,4.359741e+000
7.712941e+002,4.112198e+000
7.722583e+002,4.099274e+000
7.732225e+002,5.261688e+000
7.741868e+002,6.459671e+000
7.751510e+002,6.590652e+000
7.761152e+002,5.975540e+000
7.770795e+002,5.533508e+000
7.780437e+002,6.070145e+000
7.790079e+002,7.393738e+000
7.799722e+002,8.063416e+000
7.809364e+002,8.130676e+000
7.819006e+002,7.867157e+000
7.828649e+002,7.126770e+000
7.838291e+002,6.201126e+000
7.847933e+002,6.023788e+000
7.857576e+002,7.326416e+000
7.867218e+002,7.892715e+000
7.876860e+002,6.953949e+000
7.886503e+002,5.672424e+000
7.896145e+002,5.012558e+000
7.905787e+002,5.219543e+000
7.915430e+002,5.682037e+000
7.925072e+002,5.624985e+000
7.934714e+002,5.416763e+000
7.944357e+002,5.724487e+000
7.953999e+002,6.526733e+000
7.963641e+002,7.183228e+000
7.973284e+002,6.895798e+000
7.982926e+002,5.549835e+000
7.992568e+002,5.653702e+000
8.002211e+002,7.697876e+000
8.011853e+002,9.530472e+000
8.021495e+002,1.084532e+001
8.031138e+002,1.161340e+001
8.040780e+002,1.126712e+001
8.050422e+002,8.802429e+000
8.060065e+002,6.352615e+000
8.069707e+002,3.871078e+000
8.079349e+002,2.052261e+000
8.088992e+002,1.812149e+000
8.098634e+002,3.389923e+000
8.108276e+002,5.881058e+000
8.117919e+002,8.535233e+000
8.127561e+002,1.069557e+001
8.137203e+002,1.104393e+001
8.146846e+002,9.553314e+000
8.156488e+002,7.497299e+000
8.166130e+002,6.375595e+000
8.175773e+002,6.354019e+000
8.185415e+002,6.107758e+000
8.195057e+002,4.923080e+000
8.204700e+002,4.252380e+000
8.214342e+002,5.180466e+000
8.223984e+002,6.996735e+000
8.233627e+002,7.683289e+000
8.243269e+002,5.937943e+000
8.252911e+002,4.286087e+000
8.262554e+002,4.333954e+000
8.272196e+002,5.099640e+000
8.281838e+002,5.504578e+000
8.291481e+002,5.197250e+000
8.301123e+002,4.804398e+000
8.310765e+002,5.590027e+000
8.320408e+002,7.352264e+000
8.330050e+002,7.961380e+000
8.339692e+002,7.119919e+000
8.349335e+002,5.771210e+000
8.358977e+002,4.850998e+000
8.368619e+002,4.454742e+000
8.378262e+002,4.102661e+000
8.387904e+002,3.397858e+000
8.397546e+002,3.048843e+000
8.407189e+002,2.983643e+000
8.416831e+002,3.477707e+000
8.426473e+002,5.422180e+000
8.436116e+002,9.730270e+000
8.445758e+002,1.336584e+001
8.455400e+002,1.213098e+001
8.465043e+002,8.802444e+000
8.474685e+002,6.298752e+000
8.484327e+002,5.605179e+000
8.493970e+002,6.203415e+000
8.503612e+002,7.198914e+000
8.513254e+002,8.723358e+000
8.522897e+002,9.008804e+000
8.532539e+002,7.005798e+000
8.542181e+002,5.170395e+000
8.551824e+002,5.065231e+000
8.561466e+002,6.615311e+000
8.571108e+002,8.584824e+000
8.580751e+002,1.130505e+001
8.590393e+002,1.319185e+001
8.600035e+002,1.358900e+001
8.609678e+002,1.316843e+001
8.619320e+002,1.253198e+001
8.628962e+002,1.196155e+001
8.638605e+002,1.149808e+001
8.648247e+002,1.106528e+001
8.657889e+002,1.087819e+001
8.667532e+002,1.177905e+001
8.677174e+002,1.386700e+001
8.686816e+002,1.578885e+001
8.696459e+002,1.581789e+001
8.706101e+002,1.355251e+001
8.715743e+002,1.279335e+001
8.725386e+002,1.475862e+001
8.735028e+002,1.653531e+001
8.744670e+002,1.697679e+001
8.754313e+002,1.672635e+001
8.763955e+002,1.716115e+001
8.773597e+002,1.887769e+001
8.783240e+002,2.097034e+001
8.792882e+002,2.346393e+001
8.802524e+002,2.549536e+001
8.812167e+002,2.590018e+001
8.821809e+002,2.473807e+001
8.831451e+002,2.327612e+001
8.841094e+002,2.321571e+001
8.850736e+002,2.452986e+001
8.860378e+002,2.483521e+001
8.870021e+002,2.391078e+001
8.879663e+002,2.278616e+001
8.889305e+002,2.158434e+001
8.898948e+002,2.048657e+001
8.908590e+002,2.071364e+001
8.918232e+002,2.363655e+001
8.927875e+002,2.592122e+001
8.937517e+002,2.651886e+001
8.947159e+002,2.653822e+001
8.956802e+002,2.686659e+001
8.966444e+002,2.764087e+001
8.976086e+002,2.830609e+001
8.985729e+002,2.832431e+001
8.995371e+002,2.804060e+001
9.005013e+002,2.817400e+001
9.014656e+002,2.861224e+001
9.024298e+002,2.839883e+001
9.033940e+002,2.659161e+001
9.043583e+002,2.355060e+001
9.053225e+002,2.270050e+001
9.062867e+002,2.673096e+001
9.072510e+002,2.942693e+001
9.082152e+002,3.006104e+001
9.091794e+002,2.987756e+001
9.101437e+002,3.011839e+001
9.111079e+002,3.097400e+001
9.120721e+002,3.148734e+001
9.130364e+002,3.030258e+001
9.140006e+002,2.914435e+001
9.149648e+002,2.956691e+001
9.159291e+002,3.090559e+001
9.168933e+002,3.141866e+001
9.178575e+002,2.987389e+001
9.188218e+002,2.706693e+001
9.197860e+002,2.602959e+001
9.207502e+002,2.675769e+001
9.217145e+002,2.707587e+001
9.226787e+002,2.627933e+001
9.236429e+002,2.539488e+001
9.246072e+002,2.600124e+001
9.255714e+002,2.850163e+001
9.265356e+002,3.000987e+001
9.274999e+002,2.950726e+001
9.284641e+002,2.847105e+001
9.294283e+002,2.728625e+001
9.303926e+002,2.600970e+001
9.313568e+002,2.436812e+001
9.323210e+002,2.215082e+001
9.332853e+002,2.018390e+001
9.342495e+002,2.012727e+001
9.352137e+002,2.115535e+001
9.361780e+002,2.264931e+001
9.371422e+002,2.447867e+001
9.381064e+002,2.560556e+001
9.390707e+002,2.429425e+001
9.400349e+002,1.978154e+001
9.409991e+002,1.745898e+001
9.419634e+002,1.889268e+001
9.429276e+002,2.013850e+001
9.438918e+002,2.003148e+001
9.448561e+002,1.917352e+001
9.458203e+002,1.858470e+001
9.467845e+002,1.853978e+001
9.477488e+002,1.892238e+001
9.487130e+002,2.061710e+001
9.496772e+002,2.198058e+001
9.506415e+002,2.110602e+001
9.516057e+002,1.834810e+001
9.525699e+002,1.576965e+001
9.535342e+002,1.538994e+001
9.544984e+002,1.683954e+001
9.554626e+002,1.706847e+001
9.564269e+002,1.583089e+001
9.573911e+002,1.528340e+001
9.583553e+002,1.676900e+001
9.593196e+002,1.888756e+001
9.602838e+002,1.911397e+001
9.612480e+002,1.676326e+001
9.622123e+002,1.489975e+001
9.631765e+002,1.496378e+001
9.641407e+002,1.519075e+001
9.651050e+002,1.464067e+001
9.660692e+002,1.355370e+001
9.670334e+002,1.273067e+001
9.679977e+002,1.271974e+001
9.689619e+002,1.313120e+001
9.699261e+002,1.255827e+001
9.708904e+002,1.149443e+001
9.718546e+002,1.197585e+001
9.728188e+002,1.465771e+001
9.737831e+002,1.799919e+001
9.747473e+002,1.999632e+001
9.757115e+002,2.042239e+001
9.766758e+002,2.084831e+001
9.776400e+002,2.204848e+001
9.786042e+002,2.243817e+001
9.795685e+002,2.107031e+001
9.805327e+002,1.880199e+001
9.814969e+002,1.688689e+001
9.824612e+002,1.579840e+001
9.834254e+002,1.477237e+001
9.843896e+002,1.273257e+001
9.853539e+002,1.038634e+001
9.863181e+002,8.250687e+000
9.872823e+002,6.487244e+000
9.882466e+002,5.639557e+000
9.892108e+002,6.301361e+000
9.901750e+002,8.232361e+000
9.911393e+002,8.893875e+000
9.921035e+002,6.246773e+000
9.930677e+002,5.280731e+000
9.940320e+002,7.748047e+000
9.949962e+002,1.090684e+001
9.959604e+002,1.228212e+001
9.969247e+002,1.172502e+001
9.978889e+002,1.065873e+001
9.988531e+002,9.265472e+000
9.998174e+002,7.846405e+000
1.000782e+003,6.412201e+000
1.001746e+003,5.251778e+000
1.002710e+003,4.819504e+000
1.003674e+003,5.238388e+000
1.004639e+003,6.071297e+000
1.005603e+003,6.568207e+000
1.006567e+003,6.663773e+000
1.007531e+003,6.723396e+000
1.008495e+003,6.866562e+000
1.009460e+003,6.781326e+000
1.010424e+003,6.193863e+000
1.011388e+003,5.240433e+000
1.012352e+003,4.371475e+000
1.013317e+003,3.453842e+000
1.014281e+003,2.953041e+000
1.015245e+003,3.349091e+000
1.016209e+003,3.756378e+000
1.017174e+003,3.308189e+000
1.018138e+003,2.192230e+000
1.019102e+003,1.511719e+000
1.020066e+003,2.279121e+000
1.021031e+003,3.822662e+000
1.021995e+003,3.890533e+000
1.022959e+003,2.739883e+000
1.023923e+003,1.799591e+000
1.024887e+003,1.549957e+000
1.025852e+003,1.659859e+000
1.026816e+003,1.693672e+000
1.027780e+003,1.740791e+000
1.028744e+003,1.548141e+000
1.029709e+003,4.249802e-001
1.030673e+003,-1.837311e-001
1.031637e+003,8.820724e-001
1.032601e+003,2.379227e+000
1.033566e+003,2.279411e+000
1.034530e+003,-4.449463e-002
1.035494e+003,-2.394981e+000
1.036458e+003,-1.894798e+000
1.037422e+003,-1.937714e-001
1.038387e+003,-3.999023e-001
1.039351e+003,-2.393997e+000
1.040315e+003,-3.883369e+000
1.041279e+003,-3.055038e+000
1.042244e+003,-4.084473e-001
1.043208e+003,1.497047e+000
1.044172e+003,2.627174e+000
1.045136e+003,2.718697e+000
1.046101e+003,3.853607e-001
1.047065e+003,-1.490662e+000
1.048029e+003,-6.600800e-001
1.048993e+003,2.317673e+000
1.049958e+003,5.032242e+000
1.050922e+003,6.502182e+000
1.051886e+003,7.169785e+000
1.052850e+003,7.379295e+000
1.053814e+003,7.210846e+000
1.054779e+003,6.801300e+000
1.055743e+003,6.126762e+000
1.056707e+003,4.822662e+000
1.057671e+003,2.344551e+000
1.058636e+003,-1.335449e+000
1.059600e+003,-3.117676e+000
1.060564e+003,-1.756447e+000
1.061528e+003,-2.607346e-001
1.062493e+003,1.098923e+000
1.063457e+003,2.218475e+000
1.064421e+003,3.080734e+000
1.065385e+003,3.705742e+000
1.066349e+003,3.873886e+000
1.067314e+003,3.207130e+000
1.068278e+003,2.338692e+000
1.069242e+003,1.422188e+000
1.070206e+003,7.542191e-001
1.071171e+003,1.001381e+000
1.072135e+003,2.266708e+000
1.073099e+003,3.565323e+000
1.074063e+003,3.251938e+000
1.075028e+003,1.161446e+000
1.075992e+003,-3.423843e-001
1.076956e+003,-1.534660e+000
1.077920e+003,-1.988396e+000
1.078885e+003,-6.855316e-001
1.079849e+003,1.250648e+000
1.080813e+003,1.347084e+000
1.081777e+003,-1.174339e+000
1.082741e+003,-2.952736e+000
1.083706e+003,-1.308601e+000
1.084670e+003,5.737839e-001
1.085634e+003,8.959503e-001
1.086598e+003,9.508514e-002
1.087563e+003,-6.448441e-001
1.088527e+003,-6.310883e-001
1.089491e+003,-2.157364e-001
1.090455e+003,-2.408752e-001
1.091420e+003,-8.259964e-001
1.092384e+003,-5.685425e-001
1.093348e+003,1.351967e+000
1.094312e+003,2.532463e+000
1.095276e+003,9.433975e-001
1.096241e+003,-2.354614e+000
1.097205e+003,-4.173798e+000
1.098169e+003,-3.852760e+000
1.099133e+003,-3.060089e+000
1.100098e+003,-1.800659e+000
1.101062e+003,-8.197250e-001
1.102026e+003,-7.491531e-001
1.102990e+003,-1.342300e+000
1.103955e+003,-2.058815e+000
1.104919e+003,-2.570496e+000
1.105883e+003,-2.763130e+000
1.106847e+003,-2.176147e+000
1.107812e+003,-8.345642e-001
1.108776e+003,-5.389252e-001
1.109740e+003,-1.893951e+000
1.110704e+003,-3.195152e+000
1.111668e+003,-2.799477e+000
1.112633e+003,-1.184135e+000
1.113597e+003,-7.683182e-001
1.114561e+003,-2.481018e+000
1.115525e+003,-3.868179e+000
1.116490e+003,-4.187363e+000
1.117454e+003,-3.996994e+000
1.118418e+003,-3.306877e+000
1.119382e+003,-2.373917e+000
1.120347e+003,-1.724960e+000
1.121311e+003,-1.731026e+000
1.122275e+003,-2.128746e+000
1.123239e+003,-2.333725e+000
1.124203e+003,-2.208466e+000
1.125168e+003,-1.185928e+000
1.126132e+003,1.386208e+000
1.127096e+003,3.326836e+000
1.128060e+003,2.205368e+000
1.129025e+003,-1.156464e+000
1.129989e+003,-2.530304e+000
1.130953e+003,-6.300812e-001
1.131917e+003,9.037476e-001
1.132882e+003,1.174644e+000
1.133846e+003,8.330078e-001
1.134810e+003,-1.580200e-001
1.135774e+003,-1.368576e+000
1.136739e+003,-2.099945e+000
1.137703e+003,-1.965195e+000
1.138667e+003,-1.193535e+000
1.139631e+003,8.399963e-002
1.140595e+003,1.685661e+000
1.141560e+003,2.246117e+000
1.142524e+003,1.419128e+000
1.143488e+003,7.535248e-001
1.144452e+003,1.070633e+000
1.145417e+003,2.350609e+000
1.146381e+003,4.818214e+000
1.147345e+003,9.327827e+000
1.148309e+003,1.259773e+001
1.149274e+003,1.328044e+001
1.150238e+003,1.327148e+001
1.151202e+003,1.282483e+001
1.152166e+003,1.264149e+001
1.153130e+003,1.395732e+001
1.154095e+003,1.715969e+001
1.155059e+003,2.061275e+001
1.156023e+003,2.205144e+001
1.156987e+003,2.163036e+001
1.157952e+003,2.115181e+001
1.158916e+003,2.076546e+001
1.159880e+003,2.014443e+001
1.160844e+003,1.923972e+001
1.161809e+003,1.774625e+001
1.162773e+003,1.471912e+001
1.163737e+003,9.490532e+000
1.164701e+003,5.809540e+000
1.165666e+003,6.156067e+000
1.166630e+003,6.740219e+000
1.167594e+003,6.297562e+000
1.168558e+003,5.177269e+000
1.169522e+003,3.862022e+000
1.170487e+003,2.615044e+000
1.171451e+003,1.697205e+000
1.172415e+003,1.456459e+000
1.173379e+003,1.685570e+000
1.174344e+003,1.209396e+000
1.175308e+003,-3.357697e-002
1.176272e+003,-7.049179e-001
1.177236e+003,3.521652e-001
1.178201e+003,1.675392e+000
1.179165e+003,9.021835e-001
1.180129e+003,-2.049637e+000
1.181093e+003,-3.582306e+000
1.182057e+003,-1.358597e+000
1.183022e+003,9.170532e-003
1.183986e+003,-2.109779e+000
1.184950e+003,-5.131104e+000
1.185914e+003,-6.648712e+000
1.186879e+003,-6.374008e+000
1.187843e+003,-5.440094e+000
1.188807e+003,-4.783409e+000
1.189771e+003,-4.206055e+000
1.190736e+003,-2.870972e+000
1.191700e+003,-6.289749e-001
1.192664e+003,5.861893e-001
1.193628e+003,2.445602e-001
1.194593e+003,-5.990219e-001
1.195557e+003,-1.444679e+000
1.196521e+003,-2.221786e+000
1.197485e+003,-2.458656e+000
1.198449e+003,-1.659981e+000
1.199414e+003,-1.642906e+000
1.200378e+003,-4.610367e+000
1.201342e+003,-7.364540e+000
1.202306e+003,-7.322548e+000
1.203271e+003,-5.556091e+000
1.204235e+003,-4.732330e+000
1.205199e+003,-6.078873e+000
1.206163e+003,-8.181511e+000
1.207128e+003,-8.669342e+000
1.208092e+003,-7.432220e+000
1.209056e+003,-6.483269e+000
1.210020e+003,-5.306709e+000
1.210984e+003,-5.284264e+000
1.211949e+003,-7.762428e+000
1.212913e+003,-1.104445e+001
1.213877e+003,-1.291965e+001
1.214841e+003,-1.323988e+001
1.215806e+003,-1.322665e+001
1.216770e+003,-1.321484e+001
1.217734e+003,-1.320642e+001
1.218698e+003,-1.319809e+001
1.219663e+003,-1.323869e+001
1.220627e+003,-1.340734e+001
1.221591e+003,-1.368948e+001
1.222555e+003,-1.397231e+001
1.223520e+003,-1.414247e+001
1.224484e+003,-1.418838e+001
1.225448e+003,-1.415641e+001
1.226412e+003,-1.385490e+001
1.227376e+003,-1.398519e+001
1.228341e+003,-1.528026e+001
1.229305e+003,-1.621222e+001
1.230269e+003,-1.549311e+001
1.231233e+003,-1.395441e+001
1.232198e+003,-1.347392e+001
1.233162e+003,-1.457192e+001
1.234126e+003,-1.543056e+001
1.235090e+003,-1.410448e+001
1.236055e+003,-1.262645e+001
1.237019e+003,-1.368066e+001
1.237983e+003,-1.635969e+001
1.238947e+003,-1.812405e+001
1.239911e+003,-1.788947e+001
1.240876e+003,-1.651489e+001
1.241840e+003,-1.518626e+001
1.242804e+003,-1.387571e+001
1.243768e+003,-1.306296e+001
1.244733e+003,-1.293963e+001
1.245697e+003,-1.312769e+001
1.246661e+003,-1.431576e+001
1.247625e+003,-1.527002e+001
1.248590e+003,-1.464751e+001
1.249554e+003,-1.291100e+001
1.250518e+003,-1.173183e+001
1.251482e+003,-1.190659e+001
1.252447e+003,-1.266007e+001
1.253411e+003,-1.302648e+001
1.254375e+003,-1.326576e+001
1.255339e+003,-1.424146e+001
1.256303e+003,-1.589312e+001
1.257268e+003,-1.681174e+001
1.258232e+003,-1.607226e+001
1.259196e+003,-1.443085e+001
1.260160e+003,-1.331084e+001
1.261125e+003,-1.275770e+001
1.262089e+003,-1.218513e+001
1.263053e+003,-1.125729e+001
1.264017e+003,-1.079601e+001
1.264982e+003,-1.150104e+001
1.265946e+003,-1.233877e+001
1.266910e+003,-1.228995e+001
1.267874e+003,-1.138091e+001
1.268839e+003,-1.024068e+001
1.269803e+003,-9.274025e+000
1.270767e+003,-8.573593e+000
1.271731e+003,-8.282288e+000
1.272695e+003,-8.429535e+000
1.273660e+003,-9.315971e+000
1.274624e+003,-1.142786e+001
1.275588e+003,-1.321807e+001
1.276552e+003,-1.377753e+001
1.277517e+003,-1.341297e+001
1.278481e+003,-1.240290e+001
1.279445e+003,-1.065403e+001
1.280409e+003,-1.010976e+001
1.281374e+003,-1.267348e+001
1.282338e+003,-1.483324e+001
1.283302e+003,-1.447482e+001
1.284266e+003,-1.296467e+001
1.285230e+003,-1.168935e+001
1.286195e+003,-1.100481e+001
1.287159e+003,-1.058863e+001
1.288123e+003,-1.015695e+001
1.289087e+003,-9.858559e+000
1.290052e+003,-1.028757e+001
1.291016e+003,-1.183566e+001
1.291980e+003,-1.286126e+001
1.292944e+003,-1.300281e+001
1.293909e+003,-1.323179e+001
1.294873e+003,-1.418235e+001
1.295837e+003,-1.520683e+001
1.296801e+003,-1.528211e+001
1.297766e+003,-1.434224e+001
1.298730e+003,-1.339108e+001
1.299694e+003,-1.285123e+001
1.300658e+003,-1.277608e+001
1.301622e+003,-1.385780e+001
1.302587e+003,-1.512234e+001
1.303551e+003,-1.452655e+001
1.304515e+003,-1.191985e+001
1.305479e+003,-9.780807e+000
1.306444e+003,-1.027766e+001
1.307408e+003,-1.255434e+001
1.308372e+003,-1.360316e+001
1.309336e+003,-1.298539e+001
1.310301e+003,-1.248540e+001
1.311265e+003,-1.214854e+001
1.312229e+003,-1.193492e+001
1.313193e+003,-1.197194e+001
1.314157e+003,-1.206251e+001
1.315122e+003,-1.183952e+001
1.316086e+003,-1.143155e+001
1.317050e+003,-1.164420e+001
1.318014e+003,-1.307114e+001
1.318979e+003,-1.455929e+001
1.319943e+003,-1.368411e+001
1.320907e+003,-1.081377e+001
1.321871e+003,-9.692917e+000
1.322836e+003,-1.102261e+001
1.323800e+003,-1.234039e+001
1.324764e+003,-1.208460e+001
1.325728e+003,-1.112015e+001
1.326693e+003,-1.099819e+001
1.327657e+003,-1.180289e+001
1.328621e+003,-1.261297e+001
1.329585e+003,-1.361826e+001
1.330549e+003,-1.352914e+001
1.331514e+003,-1.043042e+001
1.332478e+003,-7.258377e+000
1.333442e+003,-7.225471e+000
1.334406e+003,-9.863350e+000
1.335371e+003,-1.253074e+001
1.336335e+003,-1.359772e+001
1.337299e+003,-1.360802e+001
1.338263e+003,-1.360809e+001
1.339228e+003,-1.364339e+001
1.340192e+003,-1.319624e+001
1.341156e+003,-1.169823e+001
1.342120e+003,-1.058708e+001
1.343084e+003,-1.006915e+001
1.344049e+003,-1.009657e+001
1.345013e+003,-1.088918e+001
1.345977e+003,-1.211040e+001
1.346941e+003,-1.310478e+001
1.347906e+003,-1.368584e+001
1.348870e+003,-1.333178e+001
1.349834e+003,-1.093328e+001
1.350798e+003,-7.791306e+000
1.351763e+003,-6.213768e+000
1.352727e+003,-6.069771e+000
1.353691e+003,-6.721107e+000
1.354655e+003,-8.173622e+000
1.355620e+003,-9.490898e+000
1.356584e+003,-9.218079e+000
1.357548e+003,-7.603943e+000
1.358512e+003,-7.199501e+000
1.359476e+003,-8.786858e+000
1.360441e+003,-9.927345e+000
1.361405e+003,-9.615845e+000
1.362369e+003,-9.094879e+000
1.363333e+003,-9.026833e+000
1.364298e+003,-9.098053e+000
1.365262e+003,-8.487137e+000
1.366226e+003,-7.259995e+000
1.367190e+003,-6.733871e+000
1.368155e+003,-8.109581e+000
1.369119e+003,-1.069779e+001
1.370083e+003,-1.234462e+001
1.371047e+003,-1.293831e+001
1.372011e+003,-1.267203e+001
1.372976e+003,-1.061272e+001
1.373940e+003,-9.071060e+000
1.374904e+003,-9.466789e+000
1.375868e+003,-1.042745e+001
1.376833e+003,-1.003716e+001
1.377797e+003,-8.351639e+000
1.378761e+003,-7.117355e+000
1.379725e+003,-7.158806e+000
1.380690e+003,-7.515511e+000
1.381654e+003,-7.079414e+000
1.382618e+003,-6.386635e+000
1.383582e+003,-6.330269e+000
1.384547e+003,-6.845612e+000
1.385511e+003,-7.011948e+000
1.386475e+003,-6.265274e+000
1.387439e+003,-5.399139e+000
1.388403e+003,-5.692429e+000
1.389368e+003,-7.146812e+000
1.390332e+003,-8.583603e+000
1.391296e+003,-1.035764e+001
1.392260e+003,-1.122408e+001
1.393225e+003,-1.050705e+001
1.394189e+003,-9.389374e+000
1.395153e+003,-8.363998e+000
1.396117e+003,-7.454315e+000
1.397082e+003,-6.344460e+000
1.398046e+003,-5.118767e+000
1.399010e+003,-4.674393e+000
1.399974e+003,-5.922752e+000
1.400938e+003,-8.088425e+000
1.401903e+003,-8.465042e+000
1.402867e+003,-6.262024e+000
1.403831e+003,-5.064369e+000
1.404795e+003,-5.723389e+000
1.405760e+003,-6.314476e+000
1.406724e+003,-5.950455e+000
1.407688e+003,-5.509071e+000
1.408652e+003,-6.025284e+000
1.409617e+003,-7.370018e+000
1.410581e+003,-8.840492e+000
1.411545e+003,-1.034257e+001
1.412509e+003,-1.092532e+001
1.413474e+003,-8.883667e+000
1.414438e+003,-5.887650e+000
1.415402e+003,-4.502762e+000
1.416366e+003,-4.636787e+000
1.417330e+003,-5.728264e+000
1.418295e+003,-7.869377e+000
1.419259e+003,-9.730782e+000
1.420223e+003,-9.364594e+000
1.421187e+003,-7.258156e+000
1.422152e+003,-6.504295e+000
1.423116e+003,-7.775261e+000
1.424080e+003,-8.186264e+000
1.425044e+003,-5.785355e+000
1.426009e+003,-3.740623e+000
1.426973e+003,-3.687828e+000
1.427937e+003,-4.531265e+000
1.428901e+003,-4.923065e+000
1.429865e+003,-4.699821e+000
1.430830e+003,-4.611191e+000
1.431794e+003,-5.163460e+000
1.432758e+003,-5.780357e+000
1.433722e+003,-5.159866e+000
1.434687e+003,-3.028549e+000
1.435651e+003,-2.213036e+000
1.436615e+003,-4.528015e+000
1.437579e+003,-5.791435e+000
1.438544e+003,-4.626244e+000
1.439508e+003,-3.296562e+000
1.440472e+003,-3.376686e+000
1.441436e+003,-4.319130e+000
1.442401e+003,-4.948021e+000
1.443365e+003,-4.991997e+000
1.444329e+003,-4.986992e+000
1.445293e+003,-5.379593e+000
1.446257e+003,-5.727814e+000
1.447222e+003,-4.921700e+000
1.448186e+003,-3.276924e+000
1.449150e+003,-2.579956e+000
1.450114e+003,-3.142845e+000
1.451079e+003,-4.056694e+000
1.452043e+003,-5.575577e+000
1.453007e+003,-6.625137e+000
1.453971e+003,-4.834175e+000
1.454936e+003,-8.343506e-001
1.455900e+003,3.641968e-001
1.456864e+003,-3.110367e+000
1.457828e+003,-6.399879e+000
1.458792e+003,-6.279602e+000
1.459757e+003,-5.267784e+000
1.460721e+003,-5.530807e+000
1.461685e+003,-6.454903e+000
1.462649e+003,-6.447960e+000
1.463614e+003,-5.157570e+000
1.464578e+003,-3.825256e+000
1.465542e+003,-3.581718e+000
1.466506e+003,-4.101311e+000
1.467471e+003,-4.487083e+000
1.468435e+003,-4.805328e+000
1.469399e+003,-4.331581e+000
1.470363e+003,-1.865654e+000
1.471328e+003,-4.192047e-001
1.472292e+003,-1.444237e+000
1.473256e+003,-3.021690e+000
1.474220e+003,-3.726730e+000
1.475184e+003,-3.780212e+000
1.476149e+003,-4.054901e+000
1.477113e+003,-4.829109e+000
1.478077e+003,-5.669815e+000
1.479041e+003,-6.139183e+000
1.480006e+003,-6.047325e+000
1.480970e+003,-4.735153e+000
1.481934e+003,-1.548790e+000
1.482898e+003,-2.719421e-001
1.483863e+003,-2.548378e+000
1.484827e+003,-4.226395e+000
1.485791e+003,-3.641685e+000
1.486755e+003,-2.425179e+000
1.487719e+003,-2.171524e+000
1.488684e+003,-2.637856e+000
1.489648e+003,-2.610489e+000
1.490612e+003,-1.699371e+000
1.491576e+003,-8.753891e-001
1.492541e+003,-1.010239e+000
1.493505e+003,-1.676811e+000
1.494469e+003,-2.127434e+000
1.495433e+003,-2.376389e+000
1.496398e+003,-1.917343e+000
1.497362e+003,-3.972778e-001
1.498326e+003,1.168816e+000
1.499290e+003,2.433144e+000
1.500255e+003,3.303185e+000
1.501219e+003,3.337654e+000
1.502183e+003,2.741753e+000
1.503147e+003,2.792839e+000
1.504111e+003,3.849266e+000
1.505076e+003,5.168976e+000
1.506040e+003,6.570877e+000
1.507004e+003,7.792625e+000
1.507968e+003,8.470726e+000
1.508933e+003,8.834885e+000
1.509897e+003,9.135567e+000
1.510861e+003,9.558640e+000
1.511825e+003,1.106561e+001
1.512790e+003,1.462617e+001
1.513754e+003,1.895435e+001
1.514718e+003,2.134371e+001
1.515682e+003,2.177036e+001
1.516646e+003,2.362260e+001
1.517611e+003,2.821447e+001
1.518575e+003,3.182413e+001
1.519539e+003,3.302753e+001
1.520503e+003,3.331376e+001
1.521468e+003,3.310503e+001
1.522432e+003,3.257018e+001
1.523396e+003,3.164349e+001
1.524360e+003,3.050700e+001
1.525325e+003,2.990482e+001
1.526289e+003,3.034605e+001
1.527253e+003,3.087699e+001
1.528217e+003,2.965031e+001
1.529182e+003,2.667084e+001
1.530146e+003,2.449016e+001
1.531110e+003,2.388927e+001
1.532074e+003,2.254330e+001
1.533039e+003,1.984127e+001
1.534003e+003,1.675124e+001
1.534967e+003,1.350810e+001
1.535931e+003,1.042172e+001
1.536896e+003,7.627884e+000
1.537860e+003,5.269150e+000
1.538824e+003,3.590538e+000
1.539788e+003,2.676018e+000
1.540752e+003,2.254715e+000
1.541717e+003,2.035828e+000
1.542681e+003,2.021843e+000
1.543645e+003,2.091988e+000
1.544609e+003,2.336563e+000
1.545573e+003,2.575455e+000
1.546538e+003,2.884201e+000
1.547502e+003,2.939682e+000
1.548466e+003,2.309639e+000
1.549430e+003,1.759094e+000
1.550395e+003,2.107979e+000
1.551359e+003,3.161400e+000
1.552323e+003,4.420738e+000
1.553287e+003,5.643333e+000
1.554252e+003,6.146095e+000
1.555216e+003,5.208015e+000
1.556180e+003,3.434090e+000
1.557144e+003,2.098106e+000
1.558109e+003,1.252441e+000
1.559073e+003,1.211510e+000
1.560037e+003,2.516418e+000
1.561001e+003,3.314140e+000
1.561966e+003,2.640854e+000
1.562930e+003,1.690933e+000
1.563894e+003,1.566528e+000
1.564858e+003,1.979370e+000
1.565823e+003,2.132202e+000
1.566787e+003,1.874001e+000
1.567751e+003,1.608223e+000
1.568715e+003,1.546158e+000
1.569679e+003,1.695389e+000
1.570644e+003,2.306824e+000
1.571608e+003,2.997490e+000
1.572572e+003,2.575966e+000
1.573536e+003,1.008324e+000
1.574500e+003,3.912354e-002
1.575465e+003,4.307404e-001
1.576429e+003,1.235466e+000
1.577393e+003,1.672714e+000
1.578357e+003,1.967743e+000
1.579322e+003,2.702911e+000
1.580286e+003,3.880638e+000
1.581250e+003,4.888252e+000
1.582214e+003,5.618202e+000
1.583179e+003,5.806763e+000
1.584143e+003,4.607819e+000
1.585107e+003,3.299522e+000
1.586071e+003,4.203171e+000
1.587036e+003,6.485161e+000
1.588000e+003,7.047493e+000
1.588964e+003,5.064537e+000
1.589928e+003,3.403107e+000
1.590893e+003,4.223488e+000
1.591857e+003,6.185272e+000
1.592821e+003,7.277298e+000
1.593785e+003,7.688431e+000
1.594750e+003,8.637672e+000
1.595714e+003,1.042840e+001
1.596678e+003,1.156133e+001
1.597642e+003,1.133393e+001
1.598606e+003,1.041199e+001
1.599571e+003,8.718391e+000
1.600535e+003,7.089119e+000
1.601499e+003,6.745300e+000
1.602463e+003,7.567390e+000
1.603427e+003,8.643806e+000
1.604392e+003,9.683151e+000
1.605356e+003,1.030305e+001
1.606320e+003,9.706329e+000
1.607284e+003,8.530853e+000
1.608249e+003,8.891945e+000
1.609213e+003,1.086655e+001
1.610177e+003,1.177190e+001
1.611141e+003,1.053152e+001
1.612106e+003,9.798874e+000
1.613070e+003,1.190701e+001
1.614034e+003,1.400314e+001
1.614998e+003,1.365234e+001
1.615963e+003,1.200906e+001
1.616927e+003,1.088489e+001
1.617891e+003,1.068069e+001
1.618855e+003,1.149133e+001
1.619820e+003,1.355473e+001
1.620784e+003,1.556092e+001
1.621748e+003,1.546619e+001
1.622712e+003,1.372652e+001
1.623677e+003,1.263306e+001
1.624641e+003,1.220395e+001
1.625605e+003,1.254759e+001
1.626569e+003,1.438517e+001
1.627533e+003,1.554756e+001
1.628498e+003,1.469517e+001
1.629462e+003,1.315896e+001
1.630426e+003,1.134435e+001
1.631390e+003,9.907532e+000
1.632354e+003,1.038711e+001
1.633319e+003,1.291024e+001
1.634283e+003,1.526939e+001
1.635247e+003,1.579960e+001
1.636211e+003,1.530907e+001
1.637176e+003,1.517410e+001
1.638140e+003,1.540699e+001
1.639104e+003,1.591128e+001
1.640068e+003,1.685361e+001
1.641033e+003,1.729667e+001
1.641997e+003,1.667796e+001
1.642961e+003,1.603917e+001
1.643925e+003,1.626826e+001
1.644890e+003,1.642947e+001
1.645854e+003,1.498701e+001
1.646818e+003,1.275268e+001
1.647782e+003,1.219378e+001
1.648747e+003,1.394638e+001
1.649711e+003,1.578870e+001
1.650675e+003,1.586339e+001
1.651639e+003,1.502509e+001
1.652604e+003,1.500366e+001
1.653568e+003,1.573041e+001
1.654532e+003,1.613602e+001
1.655496e+003,1.617183e+001
1.656460e+003,1.587997e+001
1.657425e+003,1.532789e+001
1.658389e+003,1.439785e+001
1.659353e+003,1.224469e+001
1.660317e+003,1.027528e+001
1.661281e+003,1.057393e+001
1.662246e+003,1.234628e+001
1.663210e+003,1.289309e+001
1.664174e+003,1.137904e+001
1.665138e+003,9.476448e+000
1.666103e+003,8.390900e+000
1.667067e+003,8.084160e+000
1.668031e+003,8.851410e+000
1.668995e+003,1.057825e+001
1.669960e+003,1.132049e+001
1.670924e+003,1.068786e+001
1.671888e+003,1.022253e+001
1.672852e+003,1.063000e+001
1.673817e+003,1.091103e+001
1.674781e+003,9.732582e+000
1.675745e+003,8.598930e+000
1.676709e+003,1.010448e+001
1.677674e+003,1.310346e+001
1.678638e+003,1.334743e+001
1.679602e+003,9.556343e+000
1.680566e+003,5.846764e+000
1.681531e+003,5.567932e+000
1.682495e+003,7.084457e+000
1.683459e+003,7.702866e+000
1.684423e+003,7.519051e+000
1.685387e+003,7.312553e+000
1.686352e+003,7.169205e+000
1.687316e+003,6.962318e+000
1.688280e+003,6.567307e+000
1.689244e+003,6.252304e+000
1.690208e+003,6.358070e+000
1.691173e+003,6.526154e+000
1.692137e+003,6.509712e+000
1.693101e+003,6.263313e+000
1.694065e+003,5.384132e+000
1.695030e+003,3.690582e+000
1.695994e+003,2.480331e+000
1.696958e+003,2.759033e+000
1.697922e+003,3.732307e+000
1.698887e+003,4.652359e+000
1.699851e+003,5.428215e+000
1.700815e+003,5.732735e+000
1.701779e+003,5.516121e+000
1.702744e+003,4.867836e+000
1.703708e+003,3.760170e+000
1.704672e+003,2.654404e+000
1.705636e+003,1.655434e+000
1.706601e+003,9.630051e-001
1.707565e+003,9.404068e-001
1.708529e+003,1.541031e+000
1.709493e+003,2.898750e+000
1.710458e+003,5.235779e+000
1.711422e+003,6.280106e+000
1.712386e+003,4.036797e+000
1.713350e+003,1.533356e+000
1.714314e+003,1.122223e+000
1.715279e+003,1.971115e+000
1.716243e+003,2.948433e+000
1.717207e+003,3.888702e+000
1.718171e+003,4.892151e+000
1.719135e+003,5.997536e+000
1.720100e+003,5.780914e+000
1.721064e+003,2.860405e+000
1.722028e+003,-6.598282e-001
1.722992e+003,-1.550980e+000
1.723957e+003,-2.950287e-001
1.724921e+003,-1.265259e-001
1.725885e+003,-1.442108e+000
1.726849e+003,-1.779274e+000
1.727814e+003,2.888489e-001
1.728778e+003,2.143799e+000
1.729742e+003,2.526451e+000
1.730706e+003,2.290596e+000
1.731671e+003,1.884995e+000
1.732635e+003,1.585999e+000
1.733599e+003,2.151581e+000
1.734563e+003,3.509041e+000
1.735528e+003,4.367302e+000
1.736492e+003,4.026840e+000
1.737456e+003,2.977005e+000
1.738420e+003,1.680191e+000
1.739385e+003,3.754120e-001
1.740349e+003,1.502151e-001
1.741313e+003,1.372452e+000
1.742277e+003,1.974503e+000
1.743241e+003,1.614761e+000
1.744206e+003,1.293633e+000
1.745170e+003,1.312469e+000
1.746134e+003,1.141808e+000
1.747098e+003,8.413696e-002
1.748063e+003,-1.028885e+000
1.749027e+003,-1.095955e+000
1.749991e+003,-3.414307e-001
1.750955e+003,4.234619e-001
1.751919e+003,8.160019e-001
1.752884e+003,5.786209e-001
1.753848e+003,-5.300064e-001
1.754812e+003,-1.689331e+000
1.755776e+003,-1.044441e+000
1.756741e+003,1.353760e+000
1.757705e+003,2.427193e+000
1.758669e+003,1.553284e+000
1.759633e+003,1.076439e+000
1.760598e+003,1.596611e+000
1.761562e+003,1.927727e+000
1.762526e+003,1.708771e+000
1.763490e+003,1.285477e+000
1.764455e+003,7.873688e-001
1.765419e+003,3.195648e-001
1.766383e+003,-1.793442e-001
1.767347e+003,-5.951385e-001
1.768312e+003,-2.458038e-001
1.769276e+003,1.204903e+000
1.770240e+003,2.337097e+000
1.771204e+003,1.418762e+000
1.772168e+003,-4.756165e-001
1.773133e+003,-7.439880e-001
1.774097e+003,3.888474e-001
1.775061e+003,5.358810e-001
1.776025e+003,-7.390823e-001
1.776990e+003,-1.794006e+000
1.777954e+003,-2.076538e+000
1.778918e+003,-1.895348e+000
1.779882e+003,-1.310120e+000
1.780846e+003,-5.868683e-001
1.781811e+003,4.219055e-003
1.782775e+003,4.748688e-001
1.783739e+003,8.488083e-001
1.784703e+003,1.154800e+000
1.785668e+003,1.244682e+000
1.786632e+003,9.138412e-001
1.787596e+003,4.327927e-001
1.788560e+003,-8.661652e-002
1.789525e+003,-4.618454e-001
1.790489e+003,-6.374054e-001
1.791453e+003,-4.976196e-001
1.792417e+003,7.246704e-001
1.793382e+003,2.959045e+000
1.794346e+003,3.959778e+000
1.795310e+003,2.429070e+000
1.796274e+003,5.737915e-001
1.797239e+003,1.071693e+000
1.798203e+003,3.045967e+000
1.799167e+003,3.449791e+000
1.800131e+003,1.840370e+000
1.801095e+003,1.019356e+000
1.802060e+003,2.066353e+000
1.803024e+003,2.277000e+000
1.803988e+003,2.377243e-001
1.804952e+003,-1.326431e+000
1.805917e+003,-6.988678e-001
1.806881e+003,6.562347e-001
1.807845e+003,1.405342e+000
1.808809e+003,1.588623e+000
1.809773e+003,1.692596e+000
1.810738e+003,1.830360e+000
1.811702e+003,1.762596e+000
1.812666e+003,1.342201e+000
1.813630e+003,7.789078e-001
1.814595e+003,2.630692e-001
1.815559e+003,-5.153656e-002
1.816523e+003,7.850494e-001
1.817487e+003,2.976044e+000
1.818452e+003,4.043190e+000
1.819416e+003,3.592033e+000
1.820380e+003,2.934425e+000
1.821344e+003,2.166542e+000
1.822309e+003,1.550102e+000
1.823273e+003,1.242828e+000
1.824237e+003,1.206322e+000
1.825201e+003,1.595146e+000
1.826166e+003,2.151299e+000
1.827130e+003,2.184792e+000
1.828094e+003,1.578514e+000
1.829058e+003,1.045761e+000
1.830022e+003,1.051331e+000
1.830987e+003,1.032867e+000
1.831951e+003,2.608261e-001
1.832915e+003,-6.245041e-001
1.833879e+003,-5.816879e-001
1.834844e+003,1.416702e-001
1.835808e+003,7.905579e-001
1.836772e+003,1.197823e+000
1.837736e+003,1.076172e+000
1.838700e+003,2.449722e-001
1.839665e+003,-2.577133e-001
1.840629e+003,6.536179e-001
1.841593e+003,2.194221e+000
1.842557e+003,2.568657e+000
1.843522e+003,1.801300e+000
1.844486e+003,2.038208e+000
1.845450e+003,4.403641e+000
1.846414e+003,5.698662e+000
1.847379e+003,5.187660e+000
1.848343e+003,4.473396e+000
1.849307e+003,3.929993e+000
1.850271e+003,3.485741e+000
1.851236e+003,3.083183e+000
1.852200e+003,2.764679e+000
1.853164e+003,2.574799e+000
1.854128e+003,2.449333e+000
1.855093e+003,2.255196e+000
1.856057e+003,2.001022e+000
1.857021e+003,2.001198e+000
1.857985e+003,2.596100e+000
1.858949e+003,3.074295e+000
1.859914e+003,1.670326e+000
1.860878e+003,-1.010979e+000
1.861842e+003,-1.302383e+000
1.862806e+003,8.644714e-001
1.863771e+003,2.512077e+000
1.864735e+003,3.102333e+000
1.865699e+003,3.343307e+000
1.866663e+003,3.561539e+000
1.867627e+003,3.556061e+000
1.868592e+003,2.885071e+000
1.869556e+003,1.957649e+000
1.870520e+003,1.639839e+000
1.871484e+003,1.851479e+000
1.872449e+003,2.119270e+000
1.873413e+003,2.548187e+000
1.874377e+003,2.934715e+000
1.875341e+003,2.922371e+000
1.876306e+003,3.031876e+000
1.877270e+003,3.749199e+000
1.878234e+003,4.504082e+000
1.879198e+003,4.728065e+000
1.880163e+003,4.578064e+000
1.881127e+003,4.306168e+000
1.882091e+003,4.058540e+000
1.883055e+003,4.131073e+000
1.884020e+003,4.581947e+000
1.884984e+003,4.779640e+000
1.885948e+003,4.117744e+000
1.886912e+003,3.338364e+000
1.887876e+003,4.145958e+000
1.888841e+003,6.308479e+000
1.889805e+003,6.704269e+000
1.890769e+003,4.941628e+000
1.891733e+003,3.475189e+000
1.892698e+003,2.362778e+000
1.893662e+003,1.907883e+000
1.894626e+003,2.642815e+000
1.895590e+003,3.548401e+000
1.896554e+003,4.140678e+000
1.897519e+003,4.408165e+000
1.898483e+003,3.987137e+000
1.899447e+003,3.161964e+000
1.900411e+003,3.079735e+000
1.901376e+003,3.986740e+000
1.902340e+003,4.810745e+000
1.903304e+003,5.348991e+000
1.904268e+003,5.379951e+000
1.905233e+003,4.365334e+000
1.906197e+003,3.192787e+000
1.907161e+003,2.646736e+000
1.908125e+003,2.701454e+000
1.909090e+003,3.289413e+000
1.910054e+003,4.261528e+000
1.911018e+003,5.583000e+000
1.911982e+003,7.085930e+000
1.912947e+003,7.544876e+000
1.913911e+003,6.046555e+000
1.914875e+003,4.144417e+000
1.915839e+003,4.347939e+000
1.916803e+003,6.072380e+000
1.917768e+003,6.346725e+000
1.918732e+003,4.837769e+000
1.919696e+003,4.365166e+000
1.920660e+003,5.556412e+000
1.921625e+003,6.115494e+000
1.922589e+003,4.743568e+000
1.923553e+003,3.909637e+000
1.924517e+003,5.611908e+000
1.925481e+003,7.805038e+000
1.926446e+003,8.953224e+000
1.927410e+003,9.199898e+000
1.928374e+003,8.599052e+000
1.929338e+003,7.263489e+000
1.930303e+003,6.462898e+000
1.931267e+003,6.678123e+000
1.932231e+003,7.115860e+000
1.933195e+003,7.720123e+000
1.934160e+003,7.983795e+000
1.935124e+003,7.095657e+000
1.936088e+003,5.990341e+000
1.937052e+003,6.056824e+000
1.938017e+003,6.826363e+000
1.938981e+003,6.942978e+000
1.939945e+003,6.308678e+000
1.940909e+003,5.805466e+000
1.941874e+003,5.855339e+000
1.942838e+003,6.387421e+000
1.943802e+003,7.415497e+000
1.944766e+003,8.552979e+000
1.945730e+003,8.939362e+000
1.946695e+003,8.609955e+000
1.947659e+003,7.948097e+000
1.948623e+003,6.855026e+000
1.949587e+003,6.570099e+000
1.950552e+003,7.595268e+000
1.951516e+003,7.921982e+000
1.952480e+003,6.470039e+000
1.953444e+003,5.050339e+000
1.954408e+003,4.908798e+000
1.955373e+003,5.455055e+000
1.956337e+003,6.116714e+000
1.957301e+003,6.842453e+000
1.958265e+003,7.320862e+000
1.959230e+003,7.546295e+000
1.960194e+003,7.544868e+000
1.961158e+003,7.032806e+000
1.962122e+003,6.593872e+000
1.963087e+003,6.294540e+000
1.964051e+003,6.230469e+000
1.965015e+003,6.659073e+000
1.965979e+003,7.246239e+000
1.966944e+003,7.818474e+000
1.967908e+003,8.134872e+000
1.968872e+003,7.786659e+000
1.969836e+003,6.877197e+000
1.970801e+003,5.827110e+000
1.971765e+003,4.883820e+000
1.972729e+003,4.734467e+000
1.973693e+003,6.191483e+000
1.974657e+003,8.038681e+000
1.975622e+003,8.253159e+000
1.976586e+003,7.468170e+000
1.977550e+003,7.588539e+000
1.978514e+003,8.439232e+000
1.979479e+003,8.558868e+000
1.980443e+003,7.781593e+000
1.981407e+003,7.374962e+000
1.982371e+003,7.841942e+000
1.983335e+003,8.479279e+000
1.984300e+003,8.786705e+000
1.985264e+003,8.658516e+000
1.986228e+003,7.831024e+000
1.987192e+003,6.582581e+000
1.988157e+003,6.392525e+000
1.989121e+003,7.429222e+000
1.990085e+003,8.820465e+000
1.991049e+003,1.143902e+001
1.992014e+003,1.268239e+001
1.992978e+003,1.061997e+001
1.993942e+003,9.311165e+000
1.994906e+003,1.139888e+001
1.995871e+003,1.343453e+001
1.996835e+003,1.241149e+001
1.997799e+003,1.004534e+001
1.998763e+003,8.756989e+000
1.999728e+003,8.583855e+000
