5.003444e+002,3.805109e+001
5.013087e+002,3.860922e+001
5.022729e+002,4.006668e+001
5.032371e+002,4.157117e+001
5.042014e+002,3.932916e+001
5.051656e+002,3.406952e+001
5.061298e+002,2.944028e+001
5.070941e+002,2.886136e+001
5.080583e+002,3.329660e+001
5.090225e+002,3.591229e+001
5.099868e+002,3.650433e+001
5.109510e+002,3.618860e+001
5.119152e+002,3.506332e+001
5.128795e+002,3.306808e+001
5.138437e+002,3.200287e+001
5.148079e+002,3.386298e+001
5.157722e+002,3.559601e+001
5.167364e+002,3.559085e+001
5.177006e+002,3.381430e+001
5.186649e+002,3.171921e+001
5.196291e+002,3.121945e+001
5.205933e+002,3.167807e+001
5.215576e+002,3.229297e+001
5.225218e+002,3.277545e+001
5.234860e+002,3.301019e+001
5.244503e+002,3.299084e+001
5.254145e+002,3.291263e+001
5.263787e+002,3.219946e+001
5.273430e+002,3.008298e+001
5.283072e+002,2.784064e+001
5.292714e+002,2.752914e+001
5.302357e+002,3.080603e+001
5.311999e+002,3.169202e+001
5.321641e+002,2.775967e+001
5.331284e+002,2.327625e+001
5.340926e+002,2.189185e+001
5.350568e+002,2.505560e+001
5.360211e+002,2.833722e+001
5.369853e+002,2.743295e+001
5.379495e+002,2.516989e+001
5.389138e+002,2.367584e+001
5.398780e+002,2.376242e+001
5.408422e+002,2.468463e+001
5.418065e+002,2.434781e+001
5.427707e+002,2.296985e+001
5.437349e+002,2.223694e+001
5.446992e+002,2.286234e+001
5.456634e+002,2.420309e+001
5.466276e+002,2.400458e+001
5.475919e+002,1.952945e+001
5.485561e+002,1.709277e+001
5.495203e+002,1.808340e+001
5.504846e+002,2.071021e+001
5.514488e+002,2.258627e+001
5.524130e+002,2.308072e+001
5.533773e+002,2.247400e+001
5.543415e+002,2.034100e+001
5.553057e+002,1.781165e+001
5.562700e+002,1.590097e+001
5.572342e+002,1.521368e+001
5.581984e+002,1.551144e+001
5.591627e+002,1.690036e+001
5.601269e+002,1.893359e+001
5.610911e+002,2.039359e+001
5.620554e+002,2.058350e+001
5.630196e+002,1.956995e+001
5.639838e+002,1.848615e+001
5.649481e+002,1.727957e+001
5.659123e+002,1.610031e+001
5.668765e+002,1.501285e+001
5.678408e+002,1.418408e+001
5.688050e+002,1.385605e+001
5.697692e+002,1.417142e+001
5.707335e+002,1.442703e+001
5.716977e+002,1.499152e+001
5.726619e+002,1.532190e+001
5.736262e+002,1.440030e+001
5.745904e+002,1.124292e+001
5.755546e+002,8.016052e+000
5.765189e+002,8.157471e+000
5.774831e+002,1.031110e+001
5.784473e+002,1.253860e+001
5.794116e+002,1.358154e+001
5.803758e+002,1.362009e+001
5.813400e+002,1.341748e+001
5.823043e+002,1.293600e+001
5.832685e+002,1.184540e+001
5.842327e+002,9.677338e+000
5.851970e+002,6.806091e+000
5.861612e+002,5.010651e+000
5.871254e+002,4.732941e+000
5.880897e+002,5.288849e+000
5.890539e+002,7.009979e+000
5.900181e+002,9.308289e+000
5.909824e+002,1.154700e+001
5.919466e+002,1.374829e+001
5.929108e+002,1.481290e+001
5.938751e+002,1.337466e+001
5.948393e+002,1.051160e+001
5.958035e+002,7.840179e+000
5.967678e+002,6.557404e+000
5.977320e+002,6.531036e+000
5.986962e+002,6.263489e+000
5.996605e+002,5.573181e+000
6.006247e+002,4.898712e+000
6.015889e+002,4.419830e+000
6.025532e+002,4.154175e+000
6.035174e+002,4.054474e+000
6.044816e+002,4.056519e+000
6.054459e+002,4.407501e+000
6.064101e+002,5.092773e+000
6.073743e+002,6.151184e+000
6.083386e+002,7.904053e+000
6.093028e+002,1.126779e+001
6.102670e+002,1.380804e+001
6.112313e+002,1.357141e+001
6.121955e+002,1.162305e+001
6.131597e+002,9.091492e+000
6.141240e+002,6.781586e+000
6.150882e+002,4.836853e+000
6.160524e+002,4.251709e+000
6.170167e+002,4.853668e+000
6.179809e+002,5.416107e+000
6.189451e+002,5.201691e+000
6.199094e+002,4.302185e+000
6.208736e+002,3.999756e+000
6.218378e+002,5.738953e+000
6.228021e+002,6.718353e+000
6.237663e+002,6.020905e+000
6.247305e+002,4.639465e+000
6.256948e+002,4.336182e+000
6.266590e+002,6.380219e+000
6.276232e+002,7.742950e+000
6.285875e+002,5.961670e+000
6.295517e+002,3.247437e+000
6.305159e+002,2.072449e+000
6.314802e+002,3.665985e+000
6.324444e+002,6.570282e+000
6.334086e+002,6.691284e+000
6.343729e+002,5.036835e+000
6.353371e+002,3.737427e+000
6.363013e+002,3.466766e+000
6.372656e+002,4.031403e+000
6.382298e+002,4.920380e+000
6.391940e+002,7.655304e+000
6.401583e+002,8.351837e+000
6.411225e+002,5.829254e+000
6.420867e+002,2.175079e+000
6.430510e+002,-2.790833e-001
6.440152e+002,-8.540344e-001
6.449794e+002,-1.042786e+000
6.459437e+002,-1.495636e+000
6.469079e+002,-2.055847e+000
6.478721e+002,-2.717163e+000
6.488364e+002,-3.364258e+000
6.498006e+002,-3.657516e+000
6.507648e+002,-2.835938e+000
6.517291e+002,-1.303680e+000
6.526933e+002,1.235962e-001
6.536575e+002,1.293671e+000
6.546218e+002,2.286896e+000
6.555860e+002,3.357635e+000
6.565502e+002,5.223267e+000
6.575145e+002,5.210663e+000
6.584787e+002,1.510956e+000
6.594429e+002,-2.352997e+000
6.604072e+002,-3.150223e+000
6.613714e+002,-8.773804e-002
6.623356e+002,2.324493e+000
6.632999e+002,1.287598e+000
6.642641e+002,-5.588074e-001
6.652283e+002,-2.284729e+000
6.661926e+002,-3.396576e+000
6.671568e+002,-3.548264e+000
6.681210e+002,-2.010406e+000
6.690853e+002,3.619690e-001
6.700495e+002,1.353790e+000
6.710137e+002,1.002930e+000
6.719780e+002,3.869629e-001
6.729422e+002,6.647339e-001
6.739064e+002,2.035431e+000
6.748707e+002,2.762817e+000
6.758349e+002,2.939636e+000
6.767991e+002,2.546814e+000
6.777634e+002,1.168304e+000
6.787276e+002,-8.435364e-001
6.796918e+002,-1.734955e+000
6.806561e+002,2.768250e-001
6.816203e+002,2.024933e+000
6.825845e+002,2.107941e+000
6.835488e+002,1.127594e+000
6.845130e+002,2.186890e-001
6.854772e+002,2.603760e-001
6.864415e+002,8.665161e-001
6.874057e+002,6.380310e-001
6.883699e+002,-1.836853e-001
6.893342e+002,-3.420410e-001
6.902984e+002,1.019714e+000
6.912626e+002,3.521698e+000
6.922269e+002,4.212433e+000
6.931911e+002,1.372131e+000
6.941553e+002,-5.327606e-001
6.951196e+002,-1.151489e+000
6.960838e+002,-9.264832e-001
6.970480e+002,-3.600616e-001
6.980123e+002,6.676636e-001
6.989765e+002,1.705627e+000
6.999407e+002,2.825577e+000
7.009050e+002,3.669434e+000
7.018692e+002,3.860077e+000
7.028334e+002,3.296921e+000
7.037977e+002,2.243011e+000
7.047619e+002,6.714783e-001
7.057261e+002,-6.884918e-001
7.066904e+002,-1.370392e-001
7.076546e+002,2.586884e+000
7.086188e+002,5.931778e+000
7.095831e+002,7.436539e+000
7.105473e+002,6.488800e+000
7.115115e+002,5.034119e+000
7.124758e+002,2.549332e+000
7.134400e+002,8.726501e-002
7.144042e+002,-2.002930e+000
7.153685e+002,-3.588669e+000
7.163327e+002,-3.875229e+000
7.172969e+002,-6.590271e-001
7.182612e+002,2.339523e+000
7.192254e+002,3.558548e+000
7.201896e+002,3.242676e+000
7.211539e+002,2.174591e+000
7.221181e+002,9.129333e-001
7.230823e+002,-2.801666e-001
7.240466e+002,-6.906281e-001
7.250108e+002,-3.689728e-001
7.259750e+002,9.008789e-002
7.269393e+002,1.755981e-001
7.279035e+002,-1.569214e-001
7.288677e+002,-2.328491e-002
7.298320e+002,2.075043e+000
7.307962e+002,3.337585e+000
7.317604e+002,3.135513e+000
7.327247e+002,2.210663e+000
7.336889e+002,1.340027e+000
7.346531e+002,3.530426e-001
7.356174e+002,-2.340240e-001
7.365816e+002,1.175323e+000
7.375458e+002,2.622513e+000
7.385101e+002,2.027557e+000
7.394743e+002,-7.723541e-001
7.404385e+002,-3.757813e+000
7.414028e+002,-3.759979e+000
7.423670e+002,-1.576538e+000
7.433312e+002,-1.384277e-001
7.442955e+002,5.425110e-001
7.452597e+002,1.229324e+000
7.462239e+002,2.835999e+000
7.471882e+002,5.733627e+000
7.481524e+002,7.544388e+000
7.491166e+002,7.623505e+000
7.500809e+002,7.157532e+000
7.510451e+002,6.454422e+000
7.520093e+002,5.571381e+000
7.529736e+002,4.568634e+000
7.539378e+002,3.734268e+000
7.549020e+002,2.727615e+000
7.558663e+002,6.119690e-001
7.568306e+002,-1.607285e+000
7.577948e+002,-2.361023e+000
7.587590e+002,-8.415680e-001
7.597233e+002,1.861481e+000
7.606875e+002,2.668640e+000
7.616517e+002,1.928467e+000
7.626160e+002,1.432144e+000
7.635802e+002,1.690689e+000
7.645444e+002,2.416534e+000
7.655087e+002,3.026688e+000
7.664729e+002,3.616058e+000
7.674371e+002,3.696381e+000
7.684014e+002,2.491272e+000
7.693656e+002,1.501282e+000
7.703298e+002,2.191574e+000
7.712941e+002,4.503937e+000
7.722583e+002,6.188263e+000
7.732225e+002,5.042221e+000
7.741868e+002,3.042862e+000
7.751510e+002,1.146469e+000
7.761152e+002,-2.260132e-001
7.770795e+002,-4.049072e-001
7.780437e+002,1.207474e+000
7.790079e+002,4.239075e+000
7.799722e+002,5.685287e+000
7.809364e+002,5.453064e+000
7.819006e+002,5.318054e+000
7.828649e+002,6.606094e+000
7.838291e+002,8.679993e+000
7.847933e+002,8.953278e+000
7.857576e+002,5.407501e+000
7.867218e+002,2.907715e+000
7.876860e+002,3.066635e+000
7.886503e+002,4.178055e+000
7.896145e+002,4.667847e+000
7.905787e+002,4.169327e+000
7.915430e+002,3.992035e+000
7.925072e+002,6.268326e+000
7.934714e+002,8.909882e+000
7.944357e+002,9.705658e+000
7.953999e+002,8.705231e+000
7.963641e+002,6.995712e+000
7.973284e+002,5.695984e+000
7.982926e+002,4.821930e+000
7.992568e+002,4.341629e+000
8.002211e+002,3.858536e+000
8.011853e+002,3.603088e+000
8.021495e+002,4.464188e+000
8.031138e+002,6.107727e+000
8.040780e+002,6.433075e+000
8.050422e+002,3.170395e+000
8.060065e+002,1.370117e+000
8.069707e+002,3.429642e+000
8.079349e+002,6.859924e+000
8.088992e+002,9.520584e+000
8.098634e+002,1.062137e+001
8.108276e+002,1.074820e+001
8.117919e+002,1.021336e+001
8.127561e+002,9.083344e+000
8.137203e+002,7.858826e+000
8.146846e+002,6.775055e+000
8.156488e+002,6.250046e+000
8.166130e+002,6.852814e+000
8.175773e+002,8.985291e+000
8.185415e+002,9.487320e+000
8.195057e+002,6.819443e+000
8.204700e+002,4.463928e+000
8.214342e+002,3.573303e+000
8.223984e+002,3.895508e+000
8.233627e+002,4.712646e+000
8.243269e+002,6.157837e+000
8.252911e+002,7.459122e+000
8.262554e+002,8.372681e+000
8.272196e+002,8.833740e+000
8.281838e+002,8.352066e+000
8.291481e+002,6.990479e+000
8.301123e+002,5.859497e+000
8.310765e+002,7.328247e+000
8.320408e+002,1.095985e+001
8.330050e+002,1.210159e+001
8.339692e+002,1.016678e+001
8.349335e+002,6.939560e+000
8.358977e+002,3.867981e+000
8.368619e+002,8.527222e-001
8.378262e+002,-6.830292e-001
8.387904e+002,-1.720734e-001
8.397546e+002,9.788666e-001
8.407189e+002,3.118271e+000
8.416831e+002,5.544266e+000
8.426473e+002,7.067261e+000
8.436116e+002,7.006058e+000
8.445758e+002,6.702377e+000
8.455400e+002,7.740692e+000
8.465043e+002,8.998871e+000
8.474685e+002,9.309311e+000
8.484327e+002,8.511078e+000
8.493970e+002,7.284286e+000
8.503612e+002,6.565201e+000
8.513254e+002,6.345505e+000
8.522897e+002,6.470306e+000
8.532539e+002,6.772766e+000
8.542181e+002,7.371811e+000
8.551824e+002,8.776413e+000
8.561466e+002,1.098093e+001
8.571108e+002,1.273021e+001
8.580751e+002,1.308380e+001
8.590393e+002,1.305164e+001
8.600035e+002,1.255827e+001
8.609678e+002,1.232863e+001
8.619320e+002,1.339944e+001
8.628962e+002,1.604962e+001
8.638605e+002,1.895671e+001
8.648247e+002,2.020013e+001
8.657889e+002,2.009296e+001
8.667532e+002,1.911906e+001
8.677174e+002,1.734399e+001
8.686816e+002,1.536029e+001
8.696459e+002,1.377446e+001
8.706101e+002,1.259825e+001
8.715743e+002,1.248984e+001
8.725386e+002,1.377570e+001
8.735028e+002,1.560176e+001
8.744670e+002,1.814694e+001
8.754313e+002,2.080859e+001
8.763955e+002,2.259947e+001
8.773597e+002,2.309335e+001
8.783240e+002,2.334140e+001
8.792882e+002,2.448695e+001
8.802524e+002,2.542024e+001
8.812167e+002,2.467279e+001
8.821809e+002,2.234552e+001
8.831451e+002,2.016576e+001
8.841094e+002,2.050580e+001
8.850736e+002,2.331390e+001
8.860378e+002,2.422981e+001
8.870021e+002,2.261694e+001
8.879663e+002,2.128775e+001
8.889305e+002,2.215721e+001
8.898948e+002,2.464165e+001
8.908590e+002,2.585330e+001
8.918232e+002,2.451151e+001
8.927875e+002,2.397859e+001
8.937517e+002,2.570645e+001
8.947159e+002,2.790164e+001
8.956802e+002,2.882878e+001
8.966444e+002,2.814731e+001
8.976086e+002,2.709903e+001
8.985729e+002,2.691011e+001
8.995371e+002,2.752724e+001
9.005013e+002,2.903113e+001
9.014656e+002,3.116434e+001
9.024298e+002,3.241936e+001
9.033940e+002,3.140585e+001
9.043583e+002,2.846216e+001
9.053225e+002,2.724684e+001
9.062867e+002,2.999252e+001
9.072510e+002,3.140659e+001
9.082152e+002,3.007454e+001
9.091794e+002,2.855019e+001
9.101437e+002,2.975272e+001
9.111079e+002,3.415796e+001
9.120721e+002,3.820961e+001
9.130364e+002,4.031735e+001
9.140006e+002,4.059247e+001
9.149648e+002,3.796571e+001
9.159291e+002,3.382080e+001
9.168933e+002,3.060635e+001
9.178575e+002,2.995857e+001
9.188218e+002,3.099870e+001
9.197860e+002,3.095358e+001
9.207502e+002,2.970724e+001
9.217145e+002,2.918819e+001
9.226787e+002,3.050208e+001
9.236429e+002,3.233868e+001
9.246072e+002,3.260616e+001
9.255714e+002,3.079004e+001
9.265356e+002,2.955087e+001
9.274999e+002,3.014578e+001
9.284641e+002,3.035979e+001
9.294283e+002,2.906195e+001
9.303926e+002,2.702628e+001
9.313568e+002,2.569240e+001
9.323210e+002,2.581165e+001
9.332853e+002,2.654785e+001
9.342495e+002,2.661629e+001
9.352137e+002,2.634793e+001
9.361780e+002,2.650452e+001
9.371422e+002,2.734119e+001
9.381064e+002,2.820461e+001
9.390707e+002,2.801129e+001
9.400349e+002,2.637897e+001
9.409991e+002,2.522527e+001
9.419634e+002,2.473062e+001
9.429276e+002,2.433215e+001
9.438918e+002,2.387477e+001
9.448561e+002,2.348245e+001
9.458203e+002,2.331226e+001
9.467845e+002,2.339957e+001
9.477488e+002,2.399574e+001
9.487130e+002,2.611349e+001
9.496772e+002,2.816522e+001
9.506415e+002,2.883278e+001
9.516057e+002,2.808167e+001
9.525699e+002,2.643085e+001
9.535342e+002,2.431630e+001
9.544984e+002,2.192932e+001
9.554626e+002,2.178070e+001
9.564269e+002,2.445309e+001
9.573911e+002,2.692360e+001
9.583553e+002,2.842496e+001
9.593196e+002,2.916510e+001
9.602838e+002,2.942201e+001
9.612480e+002,2.910229e+001
9.622123e+002,2.850659e+001
9.631765e+002,2.694026e+001
9.641407e+002,2.599034e+001
9.651050e+002,2.727472e+001
9.660692e+002,2.957822e+001
9.670334e+002,3.035478e+001
9.679977e+002,2.807584e+001
9.689619e+002,2.436887e+001
9.699261e+002,2.168831e+001
9.708904e+002,2.003122e+001
9.718546e+002,2.074908e+001
9.728188e+002,2.450316e+001
9.737831e+002,2.894447e+001
9.747473e+002,3.072287e+001
9.757115e+002,2.910977e+001
9.766758e+002,2.908226e+001
9.776400e+002,3.286127e+001
9.786042e+002,3.576697e+001
9.795685e+002,3.645866e+001
9.805327e+002,3.553830e+001
9.814969e+002,3.387482e+001
9.824612e+002,3.184334e+001
9.834254e+002,2.971373e+001
9.843896e+002,2.716275e+001
9.853539e+002,2.475742e+001
9.863181e+002,2.337993e+001
9.872823e+002,2.282913e+001
9.882466e+002,2.221439e+001
9.892108e+002,2.089659e+001
9.901750e+002,1.929001e+001
9.911393e+002,1.906735e+001
9.921035e+002,2.132103e+001
9.930677e+002,2.239326e+001
9.940320e+002,2.164963e+001
9.949962e+002,2.034790e+001
9.959604e+002,1.920216e+001
9.969247e+002,1.838870e+001
9.978889e+002,1.896173e+001
9.988531e+002,2.231248e+001
9.998174e+002,2.572833e+001
1.000782e+003,2.774161e+001
1.001746e+003,2.889952e+001
1.002710e+003,3.022758e+001
1.003674e+003,3.204837e+001
1.004639e+003,3.341705e+001
1.005603e+003,3.248753e+001
1.006567e+003,2.893591e+001
1.007531e+003,2.739648e+001
1.008495e+003,2.870845e+001
1.009460e+003,3.026645e+001
1.010424e+003,3.085727e+001
1.011388e+003,3.054201e+001
1.012352e+003,2.928212e+001
1.013317e+003,2.639288e+001
1.014281e+003,2.372745e+001
1.015245e+003,2.126112e+001
1.016209e+003,1.951462e+001
1.017174e+003,1.960193e+001
1.018138e+003,2.098088e+001
1.019102e+003,2.158466e+001
1.020066e+003,1.963492e+001
1.021031e+003,1.628014e+001
1.021995e+003,1.459317e+001
1.022959e+003,1.411067e+001
1.023923e+003,1.358121e+001
1.024887e+003,1.242502e+001
1.025852e+003,1.127455e+001
1.026816e+003,1.150890e+001
1.027780e+003,1.382375e+001
1.028744e+003,1.472513e+001
1.029709e+003,1.250171e+001
1.030673e+003,1.049109e+001
1.031637e+003,9.706146e+000
1.032601e+003,9.625839e+000
1.033566e+003,9.572159e+000
1.034530e+003,9.326920e+000
1.035494e+003,8.879593e+000
1.036458e+003,7.705582e+000
1.037422e+003,6.563232e+000
1.038387e+003,7.203690e+000
1.039351e+003,9.382751e+000
1.040315e+003,1.092769e+001
1.041279e+003,1.012079e+001
1.042244e+003,7.663727e+000
1.043208e+003,6.799774e+000
1.044172e+003,8.647980e+000
1.045136e+003,9.999619e+000
1.046101e+003,1.120937e+001
1.047065e+003,1.167973e+001
1.048029e+003,1.040622e+001
1.048993e+003,7.907196e+000
1.049958e+003,6.197891e+000
1.050922e+003,6.499222e+000
1.051886e+003,7.352127e+000
1.052850e+003,7.277878e+000
1.053814e+003,6.731537e+000
1.054779e+003,6.003128e+000
1.055743e+003,5.283661e+000
1.056707e+003,5.166763e+000
1.057671e+003,6.435394e+000
1.058636e+003,9.074692e+000
1.059600e+003,1.098094e+001
1.060564e+003,1.274522e+001
1.061528e+003,1.334590e+001
1.062493e+003,1.153262e+001
1.063457e+003,8.929306e+000
1.064421e+003,7.592514e+000
1.065385e+003,7.774948e+000
1.066349e+003,7.514206e+000
1.067314e+003,4.611313e+000
1.068278e+003,2.526535e+000
1.069242e+003,4.805389e+000
1.070206e+003,9.165451e+000
1.071171e+003,1.180382e+001
1.072135e+003,1.113487e+001
1.073099e+003,8.729202e+000
1.074063e+003,7.263535e+000
1.075028e+003,6.833664e+000
1.075992e+003,7.443451e+000
1.076956e+003,9.960419e+000
1.077920e+003,1.169296e+001
1.078885e+003,1.145682e+001
1.079849e+003,1.006563e+001
1.080813e+003,8.727676e+000
1.081777e+003,7.508377e+000
1.082741e+003,6.988129e+000
1.083706e+003,8.455582e+000
1.084670e+003,9.577621e+000
1.085634e+003,8.480408e+000
1.086598e+003,6.119186e+000
1.087563e+003,4.638550e+000
1.088527e+003,5.234879e+000
1.089491e+003,6.912033e+000
1.090455e+003,7.554657e+000
1.091420e+003,6.916031e+000
1.092384e+003,5.957535e+000
1.093348e+003,4.023575e+000
1.094312e+003,2.732834e+000
1.095276e+003,4.010803e+000
1.096241e+003,6.784836e+000
1.097205e+003,7.102341e+000
1.098169e+003,3.120026e+000
1.099133e+003,4.433136e-001
1.100098e+003,2.329193e+000
1.101062e+003,5.107224e+000
1.102026e+003,6.940933e+000
1.102990e+003,7.687637e+000
1.103955e+003,7.696960e+000
1.104919e+003,7.180542e+000
1.105883e+003,6.378601e+000
1.106847e+003,5.748596e+000
1.107812e+003,5.326828e+000
1.108776e+003,6.006134e+000
1.109740e+003,8.507889e+000
1.110704e+003,1.070294e+001
1.111668e+003,1.073920e+001
1.112633e+003,9.284668e+000
1.113597e+003,9.116241e+000
1.114561e+003,1.141040e+001
1.115525e+003,1.250110e+001
1.116490e+003,9.817154e+000
1.117454e+003,7.060074e+000
1.118418e+003,6.781113e+000
1.119382e+003,8.678802e+000
1.120347e+003,1.134201e+001
1.121311e+003,1.378825e+001
1.122275e+003,1.524196e+001
1.123239e+003,1.387231e+001
1.124203e+003,1.021019e+001
1.125168e+003,8.917511e+000
1.126132e+003,1.108443e+001
1.127096e+003,1.378387e+001
1.128060e+003,1.457433e+001
1.129025e+003,1.388788e+001
1.129989e+003,1.406013e+001
1.130953e+003,1.560049e+001
1.131917e+003,1.705571e+001
1.132882e+003,1.860255e+001
1.133846e+003,1.954964e+001
1.134810e+003,1.870413e+001
1.135774e+003,1.700711e+001
1.136739e+003,1.676836e+001
1.137703e+003,1.923430e+001
1.138667e+003,2.247974e+001
1.139631e+003,2.267838e+001
1.140595e+003,2.040454e+001
1.141560e+003,2.118645e+001
1.142524e+003,2.612933e+001
1.143488e+003,3.143851e+001
1.144452e+003,3.390883e+001
1.145417e+003,3.462418e+001
1.146381e+003,3.777844e+001
1.147345e+003,4.441951e+001
1.148309e+003,5.087991e+001
1.149274e+003,5.565967e+001
1.150238e+003,6.076974e+001
1.151202e+003,6.752734e+001
1.152166e+003,7.547574e+001
1.153130e+003,8.397931e+001
1.154095e+003,9.244847e+001
1.155059e+003,9.948410e+001
1.156023e+003,1.032231e+002
1.156987e+003,1.037634e+002
1.157952e+003,1.031766e+002
1.158916e+003,1.017571e+002
1.159880e+003,9.920172e+001
1.160844e+003,9.480569e+001
1.161809e+003,8.884665e+001
1.162773e+003,8.220889e+001
1.163737e+003,7.471815e+001
1.164701e+003,6.743356e+001
1.165666e+003,6.059735e+001
1.166630e+003,5.425255e+001
1.167594e+003,4.837326e+001
1.168558e+003,4.297540e+001
1.169522e+003,3.779401e+001
1.170487e+003,3.294951e+001
1.171451e+003,2.960739e+001
1.172415e+003,2.932318e+001
1.173379e+003,3.127046e+001
1.174344e+003,3.091052e+001
1.175308e+003,2.814819e+001
1.176272e+003,2.617311e+001
1.177236e+003,2.663411e+001
1.178201e+003,2.798492e+001
1.179165e+003,2.818643e+001
1.180129e+003,2.713762e+001
1.181093e+003,2.586444e+001
1.182057e+003,2.469550e+001
1.183022e+003,2.323933e+001
1.183986e+003,2.093860e+001
1.184950e+003,1.862209e+001
1.185914e+003,1.708005e+001
1.186879e+003,1.641562e+001
1.187843e+003,1.625470e+001
1.188807e+003,1.625414e+001
1.189771e+003,1.644865e+001
1.190736e+003,1.718329e+001
1.191700e+003,1.851762e+001
1.192664e+003,1.959824e+001
1.193628e+003,1.989514e+001
1.194593e+003,2.067908e+001
1.195557e+003,2.403429e+001
1.196521e+003,2.863879e+001
1.197485e+003,2.941107e+001
1.198449e+003,2.441588e+001
1.199414e+003,1.939709e+001
1.200378e+003,1.667531e+001
1.201342e+003,1.505127e+001
1.202306e+003,1.390042e+001
1.203271e+003,1.320416e+001
1.204235e+003,1.363832e+001
1.205199e+003,1.533652e+001
1.206163e+003,1.665703e+001
1.207128e+003,1.453734e+001
1.208092e+003,8.700546e+000
1.209056e+003,6.669418e+000
1.210020e+003,1.037730e+001
1.210984e+003,1.331033e+001
1.211949e+003,1.356738e+001
1.212913e+003,1.204573e+001
1.213877e+003,9.604797e+000
1.214841e+003,6.405457e+000
1.215806e+003,3.231216e+000
1.216770e+003,-2.847595e-001
1.217734e+003,-2.623901e+000
1.218698e+003,-2.192368e+000
1.219663e+003,-6.764526e-001
1.220627e+003,1.007233e-001
1.221591e+003,-3.196259e-001
1.222555e+003,-1.747726e+000
1.223520e+003,-4.049469e+000
1.224484e+003,-6.765869e+000
1.225448e+003,-7.932083e+000
1.226412e+003,-6.673340e+000
1.227376e+003,-5.758377e+000
1.228341e+003,-5.188126e+000
1.229305e+003,-5.023422e+000
1.230269e+003,-5.643356e+000
1.231233e+003,-6.613312e+000
1.232198e+003,-6.859634e+000
1.233162e+003,-5.998474e+000
1.234126e+003,-5.407181e+000
1.235090e+003,-6.568619e+000
1.236055e+003,-8.179779e+000
1.237019e+003,-9.010925e+000
1.237983e+003,-9.111404e+000
1.238947e+003,-8.341507e+000
1.239911e+003,-6.616928e+000
1.240876e+003,-5.116486e+000
1.241840e+003,-5.901627e+000
1.242804e+003,-9.185303e+000
1.243768e+003,-1.069655e+001
1.244733e+003,-8.964294e+000
1.245697e+003,-7.250549e+000
1.246661e+003,-5.438812e+000
1.247625e+003,-4.245239e+000
1.248590e+003,-4.455017e+000
1.249554e+003,-5.594559e+000
1.250518e+003,-6.442657e+000
1.251482e+003,-6.519531e+000
1.252447e+003,-6.226044e+000
1.253411e+003,-5.941574e+000
1.254375e+003,-5.475113e+000
1.255339e+003,-4.164017e+000
1.256303e+003,-2.031082e+000
1.257268e+003,-9.337463e-001
1.258232e+003,-2.462570e+000
1.259196e+003,-5.181473e+000
1.260160e+003,-5.928604e+000
1.261125e+003,-4.296280e+000
1.262089e+003,-2.514923e+000
1.263053e+003,3.524933e-001
1.264017e+003,1.563614e+000
1.264982e+003,-1.010193e+000
1.265946e+003,-4.320816e+000
1.266910e+003,-5.689575e+000
1.267874e+003,-4.890274e+000
1.268839e+003,-2.692886e+000
1.269803e+003,4.570465e-001
1.270767e+003,3.051773e+000
1.271731e+003,1.482971e+000
1.272695e+003,-3.966278e+000
1.273660e+003,-6.190598e+000
1.274624e+003,-4.092758e+000
1.275588e+003,-1.735413e+000
1.276552e+003,-1.049637e+000
1.277517e+003,-1.428772e+000
1.278481e+003,-2.137985e+000
1.279445e+003,-3.257034e+000
1.280409e+003,-3.497025e+000
1.281374e+003,-1.280624e+000
1.282338e+003,3.433685e-001
1.283302e+003,-7.931213e-001
1.284266e+003,-2.984192e+000
1.285230e+003,-4.213531e+000
1.286195e+003,-4.289154e+000
1.287159e+003,-4.528000e+000
1.288123e+003,-5.968719e+000
1.289087e+003,-7.839432e+000
1.290052e+003,-7.929260e+000
1.291016e+003,-5.581543e+000
1.291980e+003,-4.062454e+000
1.292944e+003,-3.511871e+000
1.293909e+003,-3.701782e+000
1.294873e+003,-4.796570e+000
1.295837e+003,-6.266983e+000
1.296801e+003,-7.667007e+000
1.297766e+003,-8.849854e+000
1.298730e+003,-9.221680e+000
1.299694e+003,-8.207230e+000
1.300658e+003,-6.907028e+000
1.301622e+003,-6.608139e+000
1.302587e+003,-6.734207e+000
1.303551e+003,-6.300797e+000
1.304515e+003,-5.162979e+000
1.305479e+003,-4.139862e+000
1.306444e+003,-3.947418e+000
1.307408e+003,-4.450531e+000
1.308372e+003,-5.098389e+000
1.309336e+003,-6.042999e+000
1.310301e+003,-6.678253e+000
1.311265e+003,-7.237946e+000
1.312229e+003,-7.042496e+000
1.313193e+003,-5.050934e+000
1.314157e+003,-2.802643e+000
1.315122e+003,-1.782074e+000
1.316086e+003,-2.250366e+000
1.317050e+003,-3.934921e+000
1.318014e+003,-6.732513e+000
1.318979e+003,-9.532990e+000
1.319943e+003,-1.024199e+001
1.320907e+003,-9.038696e+000
1.321871e+003,-8.477325e+000
1.322836e+003,-9.211502e+000
1.323800e+003,-9.096405e+000
1.324764e+003,-5.813049e+000
1.325728e+003,-1.532928e+000
1.326693e+003,-3.693542e-001
1.327657e+003,-2.548080e+000
1.328621e+003,-4.346588e+000
1.329585e+003,-4.512665e+000
1.330549e+003,-3.997650e+000
1.331514e+003,-3.070496e+000
1.332478e+003,-2.436401e+000
1.333442e+003,-2.961578e+000
1.334406e+003,-4.315384e+000
1.335371e+003,-5.356766e+000
1.336335e+003,-5.403229e+000
1.337299e+003,-4.883118e+000
1.338263e+003,-4.622559e+000
1.339228e+003,-4.615509e+000
1.340192e+003,-4.899094e+000
1.341156e+003,-6.054413e+000
1.342120e+003,-6.644928e+000
1.343084e+003,-6.439987e+000
1.344049e+003,-5.816315e+000
1.345013e+003,-4.627991e+000
1.345977e+003,-3.162445e+000
1.346941e+003,-2.402054e+000
1.347906e+003,-2.750580e+000
1.348870e+003,-3.098251e+000
1.349834e+003,-2.219040e+000
1.350798e+003,-9.246063e-001
1.351763e+003,-7.496490e-001
1.352727e+003,-1.487915e+000
1.353691e+003,-2.042664e+000
1.354655e+003,-1.976044e+000
1.355620e+003,-1.698105e+000
1.356584e+003,-1.465988e+000
1.357548e+003,-1.319870e+000
1.358512e+003,-2.147736e+000
1.359476e+003,-4.804718e+000
1.360441e+003,-6.650085e+000
1.361405e+003,-6.571594e+000
1.362369e+003,-5.922089e+000
1.363333e+003,-4.643860e+000
1.364298e+003,-3.535995e+000
1.365262e+003,-4.136307e+000
1.366226e+003,-6.328064e+000
1.367190e+003,-7.734940e+000
1.368155e+003,-6.201538e+000
1.369119e+003,-2.820984e+000
1.370083e+003,-1.004532e+000
1.371047e+003,-1.020020e+000
1.372011e+003,-1.505600e+000
1.372976e+003,-3.154556e+000
1.373940e+003,-4.576401e+000
1.374904e+003,-5.164322e+000
1.375868e+003,-5.217560e+000
1.376833e+003,-5.301071e+000
1.377797e+003,-5.375687e+000
1.378761e+003,-4.409531e+000
1.379725e+003,-1.475998e+000
1.380690e+003,1.130234e+000
1.381654e+003,1.828613e-001
1.382618e+003,-2.109055e+000
1.383582e+003,-2.509827e+000
1.384547e+003,-1.101089e+000
1.385511e+003,-1.573334e-001
1.386475e+003,-9.514160e-001
1.387439e+003,-2.448654e+000
1.388403e+003,-3.141785e+000
1.389368e+003,-3.042404e+000
1.390332e+003,-2.479233e+000
1.391296e+003,-1.021439e+000
1.392260e+003,1.643524e-001
1.393225e+003,6.954651e-001
1.394189e+003,9.985809e-001
1.395153e+003,1.433487e+000
1.396117e+003,1.753723e+000
1.397082e+003,1.587738e+000
1.398046e+003,8.552399e-001
1.399010e+003,-4.603271e-001
1.399974e+003,-2.485001e+000
1.400938e+003,-4.756744e+000
1.401903e+003,-5.395309e+000
1.402867e+003,-3.653641e+000
1.403831e+003,-2.036758e+000
1.404795e+003,-9.606323e-001
1.405760e+003,2.886963e-001
1.406724e+003,2.600525e+000
1.407688e+003,4.397919e+000
1.408652e+003,3.384140e+000
1.409617e+003,1.767731e-001
1.410581e+003,-1.788834e+000
1.411545e+003,-1.009521e+000
1.412509e+003,4.335022e-001
1.413474e+003,1.997223e-001
1.414438e+003,-5.732422e-001
1.415402e+003,8.534088e-001
1.416366e+003,4.055069e+000
1.417330e+003,5.534866e+000
1.418295e+003,3.670334e+000
1.419259e+003,6.665649e-001
1.420223e+003,-1.378052e+000
1.421187e+003,-2.509705e+000
1.422152e+003,-2.315216e+000
1.423116e+003,-9.506226e-003
1.424080e+003,1.436462e+000
1.425044e+003,-1.964722e-001
1.426009e+003,-1.542450e+000
1.426973e+003,-8.883209e-001
1.427937e+003,6.206512e-001
1.428901e+003,1.677917e+000
1.429865e+003,2.136963e+000
1.430830e+003,2.598740e+000
1.431794e+003,3.404694e+000
1.432758e+003,4.113068e+000
1.433722e+003,3.954910e+000
1.434687e+003,3.003555e+000
1.435651e+003,2.378510e+000
1.436615e+003,1.860504e+000
1.437579e+003,1.243240e+000
1.438544e+003,-5.352020e-001
1.439508e+003,-1.249557e+000
1.440472e+003,2.111786e+000
1.441436e+003,7.223709e+000
1.442401e+003,9.139481e+000
1.443365e+003,6.904800e+000
1.444329e+003,4.500351e+000
1.445293e+003,4.990891e+000
1.446257e+003,6.745285e+000
1.447222e+003,6.390472e+000
1.448186e+003,4.399017e+000
1.449150e+003,3.613541e+000
1.450114e+003,4.614914e+000
1.451079e+003,5.268036e+000
1.452043e+003,4.104172e+000
1.453007e+003,2.406586e+000
1.453971e+003,1.995300e+000
1.454936e+003,2.658829e+000
1.455900e+003,2.908569e+000
1.456864e+003,2.377762e+000
1.457828e+003,1.833420e+000
1.458792e+003,1.581100e+000
1.459757e+003,1.481171e+000
1.460721e+003,1.760941e+000
1.461685e+003,2.022018e+000
1.462649e+003,1.223938e+000
1.463614e+003,-7.114716e-001
1.464578e+003,-2.243668e+000
1.465542e+003,-2.020798e+000
1.466506e+003,-5.356140e-001
1.467471e+003,1.096970e+000
1.468435e+003,3.237701e+000
1.469399e+003,4.368439e+000
1.470363e+003,3.478760e+000
1.471328e+003,2.581879e+000
1.472292e+003,2.079178e+000
1.473256e+003,1.551239e+000
1.474220e+003,4.831696e-001
1.475184e+003,-5.520782e-001
1.476149e+003,-2.985535e-001
1.477113e+003,1.337448e+000
1.478077e+003,2.572662e+000
1.479041e+003,1.686218e+000
1.480006e+003,-9.239197e-002
1.480970e+003,1.302582e+000
1.481934e+003,7.258286e+000
1.482898e+003,9.857773e+000
1.483863e+003,6.624222e+000
1.484827e+003,3.859100e+000
1.485791e+003,3.352524e+000
1.486755e+003,4.050018e+000
1.487719e+003,5.418915e+000
1.488684e+003,6.938995e+000
1.489648e+003,7.499008e+000
1.490612e+003,6.855896e+000
1.491576e+003,6.702362e+000
1.492541e+003,8.496506e+000
1.493505e+003,1.139961e+001
1.494469e+003,1.386430e+001
1.495433e+003,1.578120e+001
1.496398e+003,1.691515e+001
1.497362e+003,1.710286e+001
1.498326e+003,1.753160e+001
1.499290e+003,1.885815e+001
1.500255e+003,2.069846e+001
1.501219e+003,2.230858e+001
1.502183e+003,2.383131e+001
1.503147e+003,2.653015e+001
1.504111e+003,3.093275e+001
1.505076e+003,3.521182e+001
1.506040e+003,3.834721e+001
1.507004e+003,4.087288e+001
1.507968e+003,4.270372e+001
1.508933e+003,4.457277e+001
1.509897e+003,4.813470e+001
1.510861e+003,5.379691e+001
1.511825e+003,6.041902e+001
1.512790e+003,6.728934e+001
1.513754e+003,7.410391e+001
1.514718e+003,8.027357e+001
1.515682e+003,8.570526e+001
1.516646e+003,9.183640e+001
1.517611e+003,9.940932e+001
1.518575e+003,1.064926e+002
1.519539e+003,1.126622e+002
1.520503e+003,1.182207e+002
1.521468e+003,1.235189e+002
1.522432e+003,1.280903e+002
1.523396e+003,1.314656e+002
1.524360e+003,1.334367e+002
1.525325e+003,1.339655e+002
1.526289e+003,1.330505e+002
1.527253e+003,1.306591e+002
1.528217e+003,1.265327e+002
1.529182e+003,1.207403e+002
1.530146e+003,1.152638e+002
1.531110e+003,1.111932e+002
1.532074e+003,1.051117e+002
1.533039e+003,9.546942e+001
1.534003e+003,8.503456e+001
1.534967e+003,7.451984e+001
1.535931e+003,6.467639e+001
1.536896e+003,5.633527e+001
1.537860e+003,4.933438e+001
1.538824e+003,4.270146e+001
1.539788e+003,3.588129e+001
1.540752e+003,2.920334e+001
1.541717e+003,2.303561e+001
1.542681e+003,1.766412e+001
1.543645e+003,1.436948e+001
1.544609e+003,1.409555e+001
1.545573e+003,1.396510e+001
1.546538e+003,1.415346e+001
1.547502e+003,1.393056e+001
1.548466e+003,1.267390e+001
1.549430e+003,1.145683e+001
1.550395e+003,1.151408e+001
1.551359e+003,1.242975e+001
1.552323e+003,1.273033e+001
1.553287e+003,1.197406e+001
1.554252e+003,1.147810e+001
1.555216e+003,1.252449e+001
1.556180e+003,1.420499e+001
1.557144e+003,1.441794e+001
1.558109e+003,1.313445e+001
1.559073e+003,1.147491e+001
1.560037e+003,8.766129e+000
1.561001e+003,6.809097e+000
1.561966e+003,6.808762e+000
1.562930e+003,7.519440e+000
1.563894e+003,7.677002e+000
1.564858e+003,7.507156e+000
1.565823e+003,7.985321e+000
1.566787e+003,9.213623e+000
1.567751e+003,9.778046e+000
1.568715e+003,8.664169e+000
1.569679e+003,7.392975e+000
1.570644e+003,8.143860e+000
1.571608e+003,1.003986e+001
1.572572e+003,1.062601e+001
1.573536e+003,9.876877e+000
1.574500e+003,9.319687e+000
1.575465e+003,9.288071e+000
1.576429e+003,9.753769e+000
1.577393e+003,1.125995e+001
1.578357e+003,1.293636e+001
1.579322e+003,1.279680e+001
1.580286e+003,1.092749e+001
1.581250e+003,9.787933e+000
1.582214e+003,1.024571e+001
1.583179e+003,1.110085e+001
1.584143e+003,1.169347e+001
1.585107e+003,1.188751e+001
1.586071e+003,1.146461e+001
1.587036e+003,1.077190e+001
1.588000e+003,1.038390e+001
1.588964e+003,1.030330e+001
1.589928e+003,1.110464e+001
1.590893e+003,1.423331e+001
1.591857e+003,1.746793e+001
1.592821e+003,1.645766e+001
1.593785e+003,1.225081e+001
1.594750e+003,1.141325e+001
1.595714e+003,1.538080e+001
1.596678e+003,1.806468e+001
1.597642e+003,1.609814e+001
1.598606e+003,1.352716e+001
1.599571e+003,1.386528e+001
1.600535e+003,1.545926e+001
1.601499e+003,1.630203e+001
1.602463e+003,1.624268e+001
1.603427e+003,1.571695e+001
1.604392e+003,1.482640e+001
1.605356e+003,1.418396e+001
1.606320e+003,1.455814e+001
1.607284e+003,1.561848e+001
1.608249e+003,1.654401e+001
1.609213e+003,1.734509e+001
1.610177e+003,1.749701e+001
1.611141e+003,1.672679e+001
1.612106e+003,1.577719e+001
1.613070e+003,1.458519e+001
1.614034e+003,1.371912e+001
1.614998e+003,1.386206e+001
1.615963e+003,1.452701e+001
1.616927e+003,1.477867e+001
1.617891e+003,1.451578e+001
1.618855e+003,1.444243e+001
1.619820e+003,1.496884e+001
1.620784e+003,1.556546e+001
1.621748e+003,1.566022e+001
1.622712e+003,1.546016e+001
1.623677e+003,1.529704e+001
1.624641e+003,1.518576e+001
1.625605e+003,1.507730e+001
1.626569e+003,1.437050e+001
1.627533e+003,1.412173e+001
1.628498e+003,1.545392e+001
1.629462e+003,1.713953e+001
1.630426e+003,1.821318e+001
1.631390e+003,1.873015e+001
1.632354e+003,1.925842e+001
1.633319e+003,1.980702e+001
1.634283e+003,1.906320e+001
1.635247e+003,1.561362e+001
1.636211e+003,1.162445e+001
1.637176e+003,1.159518e+001
1.638140e+003,1.522992e+001
1.639104e+003,1.709265e+001
1.640068e+003,1.655569e+001
1.641033e+003,1.588832e+001
1.641997e+003,1.554886e+001
1.642961e+003,1.542747e+001
1.643925e+003,1.557095e+001
1.644890e+003,1.577682e+001
1.645854e+003,1.573172e+001
1.646818e+003,1.555933e+001
1.647782e+003,1.563695e+001
1.648747e+003,1.607304e+001
1.649711e+003,1.674052e+001
1.650675e+003,1.766553e+001
1.651639e+003,1.868701e+001
1.652604e+003,1.951665e+001
1.653568e+003,2.006981e+001
1.654532e+003,1.925435e+001
1.655496e+003,1.639832e+001
1.656460e+003,1.441135e+001
1.657425e+003,1.467230e+001
1.658389e+003,1.534795e+001
1.659353e+003,1.568817e+001
1.660317e+003,1.570218e+001
1.661281e+003,1.505299e+001
1.662246e+003,1.409035e+001
1.663210e+003,1.397382e+001
1.664174e+003,1.507867e+001
1.665138e+003,1.622990e+001
1.666103e+003,1.651239e+001
1.667067e+003,1.594231e+001
1.668031e+003,1.398929e+001
1.668995e+003,1.091209e+001
1.669960e+003,1.058536e+001
1.670924e+003,1.433765e+001
1.671888e+003,1.639253e+001
1.672852e+003,1.364162e+001
1.673817e+003,1.058424e+001
1.674781e+003,9.986526e+000
1.675745e+003,1.062524e+001
1.676709e+003,1.167693e+001
1.677674e+003,1.272891e+001
1.678638e+003,1.288879e+001
1.679602e+003,1.188957e+001
1.680566e+003,1.071457e+001
1.681531e+003,1.027293e+001
1.682495e+003,1.003755e+001
1.683459e+003,8.529755e+000
1.684423e+003,6.104538e+000
1.685387e+003,5.780212e+000
1.686352e+003,8.195023e+000
1.687316e+003,9.899612e+000
1.688280e+003,9.561920e+000
1.689244e+003,8.705963e+000
1.690208e+003,8.074249e+000
1.691173e+003,7.723740e+000
1.692137e+003,8.142334e+000
1.693101e+003,9.015335e+000
1.694065e+003,8.945877e+000
1.695030e+003,7.464874e+000
1.695994e+003,6.133347e+000
1.696958e+003,6.006134e+000
1.697922e+003,6.517654e+000
1.698887e+003,7.194885e+000
1.699851e+003,7.918121e+000
1.700815e+003,8.205917e+000
1.701779e+003,7.974716e+000
1.702744e+003,7.465164e+000
1.703708e+003,6.735687e+000
1.704672e+003,6.304077e+000
1.705636e+003,6.687088e+000
1.706601e+003,7.149445e+000
1.707565e+003,6.565216e+000
1.708529e+003,5.366135e+000
1.709493e+003,4.821655e+000
1.710458e+003,5.173004e+000
1.711422e+003,5.091782e+000
1.712386e+003,3.489639e+000
1.713350e+003,2.074936e+000
1.714314e+003,2.251709e+000
1.715279e+003,3.297806e+000
1.716243e+003,4.488632e+000
1.717207e+003,5.524582e+000
1.718171e+003,5.184998e+000
1.719135e+003,3.159500e+000
1.720100e+003,1.720718e+000
1.721064e+003,2.557007e+000
1.722028e+003,4.060669e+000
1.722992e+003,3.967590e+000
1.723957e+003,2.675186e+000
1.724921e+003,1.952698e+000
1.725885e+003,1.742538e+000
1.726849e+003,1.324982e+000
1.727814e+003,2.453766e-001
1.728778e+003,-2.395172e-001
1.729742e+003,4.755096e-001
1.730706e+003,1.895020e+000
1.731671e+003,4.282303e+000
1.732635e+003,6.534561e+000
1.733599e+003,6.448822e+000
1.734563e+003,4.090637e+000
1.735528e+003,1.582520e+000
1.736492e+003,2.288818e-003
1.737456e+003,-4.581909e-001
1.738420e+003,6.255188e-001
1.739385e+003,2.508820e+000
1.740349e+003,2.665176e+000
1.741313e+003,7.318115e-001
1.742277e+003,-7.231598e-001
1.743241e+003,-1.509384e+000
1.744206e+003,-1.999329e+000
1.745170e+003,-2.337921e+000
1.746134e+003,-2.373123e+000
1.747098e+003,-1.927612e+000
1.748063e+003,-1.220047e+000
1.749027e+003,-2.635193e-001
1.749991e+003,7.046967e-001
1.750955e+003,1.237411e+000
1.751919e+003,1.155945e+000
1.752884e+003,4.728699e-001
1.753848e+003,-8.210602e-001
1.754812e+003,-2.210434e+000
1.755776e+003,-2.546280e+000
1.756741e+003,-1.780182e+000
1.757705e+003,-9.511871e-001
1.758669e+003,9.277344e-002
1.759633e+003,5.028381e-001
1.760598e+003,-5.307922e-001
1.761562e+003,-1.312332e+000
1.762526e+003,-1.080475e+000
1.763490e+003,-5.238647e-001
1.764455e+003,1.808624e-001
1.765419e+003,7.463989e-001
1.766383e+003,5.794830e-001
1.767347e+003,-2.466888e-001
1.768312e+003,-1.065948e+000
1.769276e+003,-1.609375e+000
1.770240e+003,-1.267639e+000
1.771204e+003,1.488739e+000
1.772168e+003,4.992233e+000
1.773133e+003,4.529572e+000
1.774097e+003,6.185150e-001
1.775061e+003,-1.222549e+000
1.776025e+003,-2.568817e-001
1.776990e+003,4.348450e-001
1.777954e+003,-1.925049e-001
1.778918e+003,-9.407349e-001
1.779882e+003,-1.145660e+000
1.780846e+003,-1.000610e+000
1.781811e+003,-5.283051e-001
1.782775e+003,1.557617e-001
1.783739e+003,6.320038e-001
1.784703e+003,8.840179e-001
1.785668e+003,8.155518e-001
1.786632e+003,-5.445862e-002
1.787596e+003,-8.978577e-001
1.788560e+003,-1.026749e+000
1.789525e+003,-5.762329e-001
1.790489e+003,6.049652e-001
1.791453e+003,1.972656e+000
1.792417e+003,1.887024e+000
1.793382e+003,1.779175e-001
1.794346e+003,-1.287201e+000
1.795310e+003,-1.525955e+000
1.796274e+003,-1.321381e+000
1.797239e+003,-1.488861e+000
1.798203e+003,-1.809769e+000
1.799167e+003,-1.922623e+000
1.800131e+003,-1.951889e+000
1.801095e+003,-2.275253e+000
1.802060e+003,-3.326538e+000
1.803024e+003,-3.589722e+000
1.803988e+003,-2.296463e+000
1.804952e+003,-1.088333e+000
1.805917e+003,-8.537292e-001
1.806881e+003,-9.871216e-001
1.807845e+003,-9.087677e-001
1.808809e+003,-5.755463e-001
1.809773e+003,2.474976e-002
1.810738e+003,7.469330e-001
1.811702e+003,1.000656e+000
1.812666e+003,4.278870e-001
1.813630e+003,-2.863464e-001
1.814595e+003,-2.198029e-001
1.815559e+003,4.506836e-001
1.816523e+003,1.272141e+000
1.817487e+003,2.351639e+000
1.818452e+003,2.481750e+000
1.819416e+003,1.209656e+000
1.820380e+003,4.090729e-001
1.821344e+003,5.819092e-001
1.822309e+003,1.162079e+000
1.823273e+003,2.578232e+000
1.824237e+003,3.763901e+000
1.825201e+003,3.040146e+000
1.826166e+003,1.180740e+000
1.827130e+003,5.052795e-001
1.828094e+003,1.349380e+000
1.829058e+003,1.953873e+000
1.830022e+003,1.395508e+000
1.830987e+003,7.216949e-001
1.831951e+003,9.371185e-001
1.832915e+003,1.466187e+000
1.833879e+003,1.342590e+000
1.834844e+003,8.063049e-001
1.835808e+003,7.423859e-001
1.836772e+003,1.261368e+000
1.837736e+003,1.932343e+000
1.838700e+003,2.553925e+000
1.839665e+003,2.424591e+000
1.840629e+003,7.246246e-001
1.841593e+003,-1.476639e+000
1.842557e+003,-1.903931e+000
1.843522e+003,-5.907440e-001
1.844486e+003,2.538605e-001
1.845450e+003,4.097900e-001
1.846414e+003,7.423859e-001
1.847379e+003,1.158661e+000
1.848343e+003,1.571182e+000
1.849307e+003,2.513519e+000
1.850271e+003,2.969940e+000
1.851236e+003,1.783188e+000
1.852200e+003,2.183533e-002
1.853164e+003,-9.433899e-001
1.854128e+003,-1.147690e+000
1.855093e+003,-1.473755e+000
1.856057e+003,-2.083847e+000
1.857021e+003,-1.788452e+000
1.857985e+003,5.350800e-001
1.858949e+003,3.384109e+000
1.859914e+003,3.950806e+000
1.860878e+003,2.737411e+000
1.861842e+003,2.622040e+000
1.862806e+003,3.627136e+000
1.863771e+003,3.738556e+000
1.864735e+003,2.273849e+000
1.865699e+003,1.386734e+000
1.866663e+003,2.366943e+000
1.867627e+003,3.694244e+000
1.868592e+003,3.986389e+000
1.869556e+003,3.590271e+000
1.870520e+003,3.351028e+000
1.871484e+003,3.202057e+000
1.872449e+003,2.631760e+000
1.873413e+003,1.527771e+000
1.874377e+003,1.277161e+000
1.875341e+003,2.816055e+000
1.876306e+003,4.148926e+000
1.877270e+003,3.955978e+000
1.878234e+003,3.228683e+000
1.879198e+003,2.900406e+000
1.880163e+003,2.915329e+000
1.881127e+003,3.163773e+000
1.882091e+003,3.467758e+000
1.883055e+003,3.259995e+000
1.884020e+003,2.376602e+000
1.884984e+003,1.669281e+000
1.885948e+003,1.939865e+000
1.886912e+003,2.551468e+000
1.887876e+003,2.062790e+000
1.888841e+003,6.811981e-001
1.889805e+003,1.113708e+000
1.890769e+003,3.873901e+000
1.891733e+003,5.671570e+000
1.892698e+003,5.968216e+000
1.893662e+003,5.672043e+000
1.894626e+003,4.961349e+000
1.895590e+003,3.967270e+000
1.896554e+003,1.801208e+000
1.897519e+003,1.786804e-001
1.898483e+003,2.013901e+000
1.899447e+003,6.058121e+000
1.900411e+003,8.165115e+000
1.901376e+003,7.647186e+000
1.902340e+003,6.121490e+000
1.903304e+003,3.202988e+000
1.904268e+003,9.467926e-001
1.905233e+003,1.229523e+000
1.906197e+003,2.251068e+000
1.907161e+003,1.851059e+000
1.908125e+003,1.008347e+000
1.909090e+003,2.132614e+000
1.910054e+003,4.673141e+000
1.911018e+003,5.570648e+000
1.911982e+003,4.007355e+000
1.912947e+003,1.998260e+000
1.913911e+003,9.883881e-001
1.914875e+003,1.340073e+000
1.915839e+003,3.872879e+000
1.916803e+003,7.731094e+000
1.917768e+003,8.584885e+000
1.918732e+003,5.833588e+000
1.919696e+003,4.610504e+000
1.920660e+003,5.931747e+000
1.921625e+003,6.178665e+000
1.922589e+003,3.594330e+000
1.923553e+003,1.279541e+000
1.924517e+003,9.533081e-001
1.925481e+003,1.563782e+000
1.926446e+003,2.427322e+000
1.927410e+003,3.475677e+000
1.928374e+003,4.747986e+000
1.929338e+003,6.125931e+000
1.930303e+003,6.956390e+000
1.931267e+003,7.089890e+000
1.932231e+003,7.086029e+000
1.933195e+003,7.167068e+000
1.934160e+003,7.030075e+000
1.935124e+003,6.160858e+000
1.936088e+003,5.134354e+000
1.937052e+003,4.707245e+000
1.938017e+003,4.832352e+000
1.938981e+003,5.344406e+000
1.939945e+003,6.008942e+000
1.940909e+003,6.252975e+000
1.941874e+003,5.821548e+000
1.942838e+003,5.039902e+000
1.943802e+003,4.230927e+000
1.944766e+003,3.889893e+000
1.945730e+003,5.127365e+000
1.946695e+003,7.536392e+000
1.947659e+003,7.912689e+000
1.948623e+003,5.943832e+000
1.949587e+003,5.514496e+000
1.950552e+003,7.700577e+000
1.951516e+003,8.719498e+000
1.952480e+003,6.477356e+000
1.953444e+003,4.625259e+000
1.954408e+003,6.318512e+000
1.955373e+003,9.077621e+000
1.956337e+003,9.362625e+000
1.957301e+003,7.971375e+000
1.958265e+003,7.447067e+000
1.959230e+003,7.981216e+000
1.960194e+003,8.312195e+000
1.961158e+003,8.223724e+000
1.962122e+003,7.682190e+000
1.963087e+003,6.171066e+000
1.964051e+003,4.872086e+000
1.965015e+003,4.380951e+000
1.965979e+003,4.662338e+000
1.966944e+003,6.090576e+000
1.967908e+003,7.846573e+000
1.968872e+003,8.781494e+000
1.969836e+003,8.689728e+000
1.970801e+003,7.594543e+000
1.971765e+003,5.639084e+000
1.972729e+003,4.268860e+000
1.973693e+003,4.827774e+000
1.974657e+003,6.216614e+000
1.975622e+003,6.897415e+000
1.976586e+003,7.013657e+000
1.977550e+003,6.776779e+000
1.978514e+003,6.427414e+000
1.979479e+003,7.373260e+000
1.980443e+003,9.667358e+000
1.981407e+003,1.091254e+001
1.982371e+003,1.021230e+001
1.983335e+003,9.168549e+000
1.984300e+003,8.900177e+000
1.985264e+003,9.025711e+000
1.986228e+003,9.062256e+000
1.987192e+003,8.997681e+000
1.988157e+003,8.767563e+000
1.989121e+003,8.351395e+000
1.990085e+003,8.025528e+000
1.991049e+003,7.381256e+000
1.992014e+003,7.778488e+000
1.992978e+003,1.121153e+001
1.993942e+003,1.308308e+001
1.994906e+003,1.001068e+001
1.995871e+003,6.714844e+000
1.996835e+003,7.232315e+000
1.997799e+003,9.435120e+000
1.998763e+003,9.977768e+000
1.999728e+003,8.968613e+000
