5.003444e+002,3.340015e+001
5.013087e+002,3.317822e+001
5.022729e+002,3.061407e+001
5.032371e+002,2.714221e+001
5.042014e+002,2.637463e+001
5.051656e+002,2.797363e+001
5.061298e+002,3.010175e+001
5.070941e+002,3.109088e+001
5.080583e+002,3.064502e+001
5.090225e+002,2.933502e+001
5.099868e+002,2.534949e+001
5.109510e+002,2.254150e+001
5.119152e+002,2.408002e+001
5.128795e+002,3.049164e+001
5.138437e+002,3.438965e+001
5.148079e+002,3.125909e+001
5.157722e+002,2.715997e+001
5.167364e+002,2.424701e+001
5.177006e+002,2.276544e+001
5.186649e+002,2.131244e+001
5.196291e+002,1.765979e+001
5.205933e+002,1.429669e+001
5.215576e+002,1.407080e+001
5.225218e+002,1.673291e+001
5.234860e+002,2.028497e+001
5.244503e+002,2.152808e+001
5.254145e+002,2.004059e+001
5.263787e+002,1.895892e+001
5.273430e+002,1.777698e+001
5.283072e+002,1.731805e+001
5.292714e+002,1.924530e+001
5.302357e+002,2.602301e+001
5.311999e+002,2.821735e+001
5.321641e+002,2.203467e+001
5.331284e+002,1.457452e+001
5.340926e+002,1.145245e+001
5.350568e+002,1.475610e+001
5.360211e+002,1.898962e+001
5.369853e+002,2.089594e+001
5.379495e+002,2.096149e+001
5.389138e+002,1.785211e+001
5.398780e+002,1.169135e+001
5.408422e+002,4.989868e+000
5.418065e+002,6.158203e+000
5.427707e+002,1.391107e+001
5.437349e+002,1.948132e+001
5.446992e+002,2.017871e+001
5.456634e+002,1.731976e+001
5.466276e+002,1.571722e+001
5.475919e+002,1.769489e+001
5.485561e+002,1.832477e+001
5.495203e+002,1.626678e+001
5.504846e+002,1.286627e+001
5.514488e+002,1.019238e+001
5.524130e+002,9.327942e+000
5.533773e+002,9.024109e+000
5.543415e+002,8.607361e+000
5.553057e+002,8.238525e+000
5.562700e+002,8.029053e+000
5.572342e+002,8.000305e+000
5.581984e+002,8.031128e+000
5.591627e+002,8.164612e+000
5.601269e+002,8.542480e+000
5.610911e+002,9.229553e+000
5.620554e+002,1.024133e+001
5.630196e+002,1.122229e+001
5.639838e+002,1.005890e+001
5.649481e+002,4.372803e+000
5.659123e+002,4.626465e-002
5.668765e+002,-1.553345e+000
5.678408e+002,-6.408691e-001
5.688050e+002,1.891968e+000
5.697692e+002,7.736572e+000
5.707335e+002,1.135944e+001
5.716977e+002,1.011212e+001
5.726619e+002,6.413208e+000
5.736262e+002,3.430603e+000
5.745904e+002,3.367065e+000
5.755546e+002,4.867981e+000
5.765189e+002,4.816345e+000
5.774831e+002,3.982666e+000
5.784473e+002,4.837891e+000
5.794116e+002,9.169434e+000
5.803758e+002,1.653918e+001
5.813400e+002,1.750946e+001
5.823043e+002,9.672363e+000
5.832685e+002,2.549255e+000
5.842327e+002,-1.300659e-001
5.851970e+002,1.274292e+000
5.861612e+002,2.931946e+000
5.871254e+002,4.331421e+000
5.880897e+002,5.553406e+000
5.890539e+002,6.602600e+000
5.900181e+002,7.282715e+000
5.909824e+002,7.395508e+000
5.919466e+002,6.901733e+000
5.929108e+002,5.883179e+000
5.938751e+002,4.168823e+000
5.948393e+002,2.190674e+000
5.958035e+002,6.221924e-001
5.967678e+002,3.540039e-003
5.977320e+002,4.010010e-001
5.986962e+002,1.593933e+000
5.996605e+002,3.243103e+000
6.006247e+002,4.386780e+000
6.015889e+002,4.689392e+000
6.025532e+002,4.200256e+000
6.035174e+002,3.110901e+000
6.044816e+002,2.427368e-001
6.054459e+002,-1.814514e+000
6.064101e+002,-2.350830e+000
6.073743e+002,-1.909485e+000
6.083386e+002,-1.468201e+000
6.093028e+002,-1.484436e+000
6.102670e+002,-1.429077e+000
6.112313e+002,-1.127075e+000
6.121955e+002,-5.690308e-001
6.131597e+002,3.228149e-001
6.141240e+002,1.580444e+000
6.150882e+002,3.023560e+000
6.160524e+002,4.498413e+000
6.170167e+002,6.155884e+000
6.179809e+002,6.709717e+000
6.189451e+002,4.940125e+000
6.199094e+002,1.121399e+000
6.208736e+002,-1.304993e+000
6.218378e+002,-1.351318e-001
6.228021e+002,7.399902e-001
6.237663e+002,7.890625e-001
6.247305e+002,5.151978e-001
6.256948e+002,7.876587e-001
6.266590e+002,2.135986e+000
6.276232e+002,2.638489e+000
6.285875e+002,1.085815e+000
6.295517e+002,-1.136658e+000
6.305159e+002,-2.761597e+000
6.314802e+002,-3.187073e+000
6.324444e+002,-2.982971e+000
6.334086e+002,-3.358032e+000
6.343729e+002,-3.782104e+000
6.353371e+002,-3.243896e+000
6.363013e+002,-1.360962e+000
6.372656e+002,1.388062e+000
6.382298e+002,3.659424e+000
6.391940e+002,6.899292e+000
6.401583e+002,6.960327e+000
6.411225e+002,1.523621e+000
6.420867e+002,-5.197876e+000
6.430510e+002,-8.208191e+000
6.440152e+002,-5.561157e+000
6.449794e+002,-2.670654e+000
6.459437e+002,-2.602600e+000
6.469079e+002,-3.322327e+000
6.478721e+002,-2.856995e+000
6.488364e+002,-6.277466e-001
6.498006e+002,1.871521e+000
6.507648e+002,1.338196e+000
6.517291e+002,-1.215820e+000
6.526933e+002,-3.294556e+000
6.536575e+002,-4.495728e+000
6.546218e+002,-4.665100e+000
6.555860e+002,-3.299988e+000
6.565502e+002,1.537109e+000
6.575145e+002,3.276978e+000
6.584787e+002,-7.160645e-001
6.594429e+002,-5.228149e+000
6.604072e+002,-5.519409e+000
6.613714e+002,-4.316406e-001
6.623356e+002,3.566711e+000
6.632999e+002,2.233276e+000
6.642641e+002,-3.981934e-001
6.652283e+002,-2.555054e+000
6.661926e+002,-3.616943e+000
6.671568e+002,-3.748901e+000
6.681210e+002,-3.169739e+000
6.690853e+002,-2.131836e+000
6.700495e+002,-8.267822e-001
6.710137e+002,7.044678e-001
6.719780e+002,1.916260e+000
6.729422e+002,2.135681e+000
6.739064e+002,9.802856e-001
6.748707e+002,2.860718e-001
6.758349e+002,8.911133e-002
6.767991e+002,2.380371e-003
6.777634e+002,3.381348e-001
6.787276e+002,1.212585e+000
6.796918e+002,1.988403e+000
6.806561e+002,1.996460e+000
6.816203e+002,1.598694e+000
6.825845e+002,7.413940e-001
6.835488e+002,-3.462524e-001
6.845130e+002,-1.232178e+000
6.854772e+002,-1.484680e+000
6.864415e+002,-1.365967e+000
6.874057e+002,-2.432983e+000
6.883699e+002,-4.496094e+000
6.893342e+002,-5.984375e+000
6.902984e+002,-5.845337e+000
6.912626e+002,-4.319275e+000
6.922269e+002,-3.818970e+000
6.931911e+002,-5.732239e+000
6.941553e+002,-5.701294e+000
6.951196e+002,-2.200806e+000
6.960838e+002,2.433899e+000
6.970480e+002,4.612549e+000
6.980123e+002,2.880371e+000
6.989765e+002,9.024658e-001
6.999407e+002,-2.170410e-001
7.009050e+002,-7.114258e-001
7.018692e+002,-5.573730e-001
7.028334e+002,1.000366e-001
7.037977e+002,7.767334e-001
7.047619e+002,1.002014e+000
7.057261e+002,1.006775e+000
7.066904e+002,4.468384e-001
7.076546e+002,-7.546997e-001
7.086188e+002,-1.809265e+000
7.095831e+002,-1.321228e+000
7.105473e+002,1.666870e+000
7.115115e+002,2.331055e+000
7.124758e+002,-9.860229e-001
7.134400e+002,-4.691345e+000
7.144042e+002,-6.452454e+000
7.153685e+002,-6.066101e+000
7.163327e+002,-5.476990e+000
7.172969e+002,-5.649475e+000
7.182612e+002,-5.587646e+000
7.192254e+002,-4.894409e+000
7.201896e+002,-3.819458e+000
7.211539e+002,-2.629150e+000
7.221181e+002,-1.362488e+000
7.230823e+002,-6.521606e-001
7.240466e+002,-2.654541e+000
7.250108e+002,-6.372864e+000
7.259750e+002,-8.942688e+000
7.269393e+002,-8.985901e+000
7.279035e+002,-7.075745e+000
7.288677e+002,-5.029419e+000
7.298320e+002,-5.946045e-001
7.307962e+002,2.532776e+000
7.317604e+002,3.524292e+000
7.327247e+002,3.401672e+000
7.336889e+002,3.134216e+000
7.346531e+002,2.264832e+000
7.356174e+002,1.340454e+000
7.365816e+002,2.305786e+000
7.375458e+002,3.448303e+000
7.385101e+002,2.795410e+000
7.394743e+002,2.315063e-001
7.404385e+002,-2.179321e+000
7.414028e+002,-1.086060e+000
7.423670e+002,2.038025e+000
7.433312e+002,3.387207e+000
7.442955e+002,3.189148e+000
7.452597e+002,2.504211e+000
7.462239e+002,2.107422e+000
7.471882e+002,1.715332e+000
7.481524e+002,2.211243e+000
7.491166e+002,4.395569e+000
7.500809e+002,5.395142e+000
7.510451e+002,3.482483e+000
7.520093e+002,-6.057739e-001
7.529736e+002,-4.216553e+000
7.539378e+002,-5.961426e+000
7.549020e+002,-6.054321e+000
7.558663e+002,-4.124573e+000
7.568306e+002,-1.257324e+000
7.577948e+002,1.105164e+000
7.587590e+002,1.963318e+000
7.597233e+002,1.442688e+000
7.606875e+002,3.775024e-001
7.616517e+002,-9.005737e-001
7.626160e+002,-1.997498e+000
7.635802e+002,-2.821472e+000
7.645444e+002,-3.237671e+000
7.655087e+002,-2.987427e+000
7.664729e+002,-1.780273e+000
7.674371e+002,-7.617188e-001
7.684014e+002,-7.348633e-002
7.693656e+002,4.318848e-001
7.703298e+002,9.542236e-001
7.712941e+002,1.536743e+000
7.722583e+002,1.913879e+000
7.732225e+002,1.325989e+000
7.741868e+002,9.885254e-001
7.751510e+002,2.532715e+000
7.761152e+002,5.197083e+000
7.770795e+002,6.902710e+000
7.780437e+002,5.740601e+000
7.790079e+002,2.120422e+000
7.799722e+002,5.055542e-001
7.809364e+002,8.103638e-001
7.819006e+002,1.651367e+000
7.828649e+002,3.200989e+000
7.838291e+002,5.291748e+000
7.847933e+002,6.790283e+000
7.857576e+002,7.226501e+000
7.867218e+002,6.504028e+000
7.876860e+002,4.525940e+000
7.886503e+002,2.342468e+000
7.896145e+002,7.561646e-001
7.905787e+002,-2.709961e-002
7.915430e+002,-4.896851e-001
7.925072e+002,-1.544739e+000
7.934714e+002,-2.908020e+000
7.944357e+002,-4.217468e+000
7.953999e+002,-4.968323e+000
7.963641e+002,-4.040710e+000
7.973284e+002,-1.107788e-001
7.982926e+002,7.193665e+000
7.992568e+002,9.591553e+000
8.002211e+002,3.929504e+000
8.011853e+002,-1.457703e+000
8.021495e+002,-2.505249e+000
8.031138e+002,2.036743e-001
8.040780e+002,2.971863e+000
8.050422e+002,5.037842e+000
8.060065e+002,6.065186e+000
8.069707e+002,5.138062e+000
8.079349e+002,3.356262e+000
8.088992e+002,1.885071e+000
8.098634e+002,1.300720e+000
8.108276e+002,1.344604e+000
8.117919e+002,1.497253e+000
8.127561e+002,1.144165e+000
8.137203e+002,3.710938e-001
8.146846e+002,-4.437256e-001
8.156488e+002,-1.468872e+000
8.166130e+002,-3.336121e+000
8.175773e+002,-6.589783e+000
8.185415e+002,-7.979309e+000
8.195057e+002,-7.832153e+000
8.204700e+002,-6.573120e+000
8.214342e+002,-3.465393e+000
8.223984e+002,6.724854e-001
8.233627e+002,3.804565e+000
8.243269e+002,5.239136e+000
8.252911e+002,5.784424e+000
8.262554e+002,5.136108e+000
8.272196e+002,4.460938e+000
8.281838e+002,5.314209e+000
8.291481e+002,7.997253e+000
8.301123e+002,1.105621e+001
8.310765e+002,1.188068e+001
8.320408e+002,1.042828e+001
8.330050e+002,8.983337e+000
8.339692e+002,7.796753e+000
8.349335e+002,6.505554e+000
8.358977e+002,4.647461e+000
8.368619e+002,2.210327e+000
8.378262e+002,8.660889e-001
8.387904e+002,4.981689e-001
8.397546e+002,8.254395e-001
8.407189e+002,2.164001e+000
8.416831e+002,4.150269e+000
8.426473e+002,6.386963e+000
8.436116e+002,8.903076e+000
8.445758e+002,1.100793e+001
8.455400e+002,1.130762e+001
8.465043e+002,1.039874e+001
8.474685e+002,9.232727e+000
8.484327e+002,8.429932e+000
8.493970e+002,8.178955e+000
8.503612e+002,8.347229e+000
8.513254e+002,8.844177e+000
8.522897e+002,9.214050e+000
8.532539e+002,9.464539e+000
8.542181e+002,9.142151e+000
8.551824e+002,7.651306e+000
8.561466e+002,5.674683e+000
8.571108e+002,6.043884e+000
8.580751e+002,1.038037e+001
8.590393e+002,1.400366e+001
8.600035e+002,1.600214e+001
8.609678e+002,1.689117e+001
8.619320e+002,1.713251e+001
8.628962e+002,1.690784e+001
8.638605e+002,1.618298e+001
8.648247e+002,1.421790e+001
8.657889e+002,1.198438e+001
8.667532e+002,1.227966e+001
8.677174e+002,1.545490e+001
8.686816e+002,1.904321e+001
8.696459e+002,2.024280e+001
8.706101e+002,1.886285e+001
8.715743e+002,1.790784e+001
8.725386e+002,1.769928e+001
8.735028e+002,1.753967e+001
8.744670e+002,1.640289e+001
8.754313e+002,1.486694e+001
8.763955e+002,1.451123e+001
8.773597e+002,1.635602e+001
8.783240e+002,1.842206e+001
8.792882e+002,1.916498e+001
8.802524e+002,1.921088e+001
8.812167e+002,1.901392e+001
8.821809e+002,1.876288e+001
8.831451e+002,1.846222e+001
8.841094e+002,1.812909e+001
8.850736e+002,1.810925e+001
8.860378e+002,1.954596e+001
8.870021e+002,2.267108e+001
8.879663e+002,2.544818e+001
8.889305e+002,2.659070e+001
8.898948e+002,2.620721e+001
8.908590e+002,2.535712e+001
8.918232e+002,2.386694e+001
8.927875e+002,2.294702e+001
8.937517e+002,2.275140e+001
8.947159e+002,2.323004e+001
8.956802e+002,2.440454e+001
8.966444e+002,2.593103e+001
8.976086e+002,2.698474e+001
8.985729e+002,2.693005e+001
8.995371e+002,2.646149e+001
9.005013e+002,2.630597e+001
9.014656e+002,2.662323e+001
9.024298e+002,2.728815e+001
9.033940e+002,2.800018e+001
9.043583e+002,2.849475e+001
9.053225e+002,2.892725e+001
9.062867e+002,2.971606e+001
9.072510e+002,2.925232e+001
9.082152e+002,2.663831e+001
9.091794e+002,2.413110e+001
9.101437e+002,2.396405e+001
9.111079e+002,2.646704e+001
9.120721e+002,2.968701e+001
9.130364e+002,3.442865e+001
9.140006e+002,3.708081e+001
9.149648e+002,3.440814e+001
9.159291e+002,2.848810e+001
9.168933e+002,2.306482e+001
9.178575e+002,2.062671e+001
9.188218e+002,2.050739e+001
9.197860e+002,2.168201e+001
9.207502e+002,2.408838e+001
9.217145e+002,2.478900e+001
9.226787e+002,2.255328e+001
9.236429e+002,1.985767e+001
9.246072e+002,1.994836e+001
9.255714e+002,2.318530e+001
9.265356e+002,2.588501e+001
9.274999e+002,2.677014e+001
9.284641e+002,2.743622e+001
9.294283e+002,2.979620e+001
9.303926e+002,3.229443e+001
9.313568e+002,3.137970e+001
9.323210e+002,2.493329e+001
9.332853e+002,1.736255e+001
9.342495e+002,1.673413e+001
9.352137e+002,1.955524e+001
9.361780e+002,2.132330e+001
9.371422e+002,2.129016e+001
9.381064e+002,2.057727e+001
9.390707e+002,2.024957e+001
9.400349e+002,1.989618e+001
9.409991e+002,2.013855e+001
9.419634e+002,2.061963e+001
9.429276e+002,2.184711e+001
9.438918e+002,2.549786e+001
9.448561e+002,2.963873e+001
9.458203e+002,3.057672e+001
9.467845e+002,2.676361e+001
9.477488e+002,2.307434e+001
9.487130e+002,2.336346e+001
9.496772e+002,2.499457e+001
9.506415e+002,2.610492e+001
9.516057e+002,2.651190e+001
9.525699e+002,2.704742e+001
9.535342e+002,2.851373e+001
9.544984e+002,3.052814e+001
9.554626e+002,3.077649e+001
9.564269e+002,2.937732e+001
9.573911e+002,2.868835e+001
9.583553e+002,2.972937e+001
9.593196e+002,3.142957e+001
9.602838e+002,3.202808e+001
9.612480e+002,3.110632e+001
9.622123e+002,3.000055e+001
9.631765e+002,2.916919e+001
9.641407e+002,2.843378e+001
9.651050e+002,2.735486e+001
9.660692e+002,2.609717e+001
9.670334e+002,2.542957e+001
9.679977e+002,2.606152e+001
9.689619e+002,2.739307e+001
9.699261e+002,2.673956e+001
9.708904e+002,2.475977e+001
9.718546e+002,2.464136e+001
9.728188e+002,2.720123e+001
9.737831e+002,3.059875e+001
9.747473e+002,3.265948e+001
9.757115e+002,3.336084e+001
9.766758e+002,3.347101e+001
9.776400e+002,3.346326e+001
9.786042e+002,3.289471e+001
9.795685e+002,3.088995e+001
9.805327e+002,2.808875e+001
9.814969e+002,2.541821e+001
9.824612e+002,2.341663e+001
9.834254e+002,2.247119e+001
9.843896e+002,2.288397e+001
9.853539e+002,2.405688e+001
9.863181e+002,2.569415e+001
9.872823e+002,2.743866e+001
9.882466e+002,2.901263e+001
9.892108e+002,3.053857e+001
9.901750e+002,3.248981e+001
9.911393e+002,3.449457e+001
9.921035e+002,3.465387e+001
9.930677e+002,3.595215e+001
9.940320e+002,4.078448e+001
9.949962e+002,4.579846e+001
9.959604e+002,4.698529e+001
9.969247e+002,4.439294e+001
9.978889e+002,4.368262e+001
9.988531e+002,4.808984e+001
9.998174e+002,5.330243e+001
1.000782e+003,5.768671e+001
1.001746e+003,6.133746e+001
1.002710e+003,6.451624e+001
1.003674e+003,6.722919e+001
1.004639e+003,6.904315e+001
1.005603e+003,6.911469e+001
1.006567e+003,6.709314e+001
1.007531e+003,6.558856e+001
1.008495e+003,6.483582e+001
1.009460e+003,6.422284e+001
1.010424e+003,6.335059e+001
1.011388e+003,6.246423e+001
1.012352e+003,6.249915e+001
1.013317e+003,6.478790e+001
1.014281e+003,6.483197e+001
1.015245e+003,5.966528e+001
1.016209e+003,5.332037e+001
1.017174e+003,4.887885e+001
1.018138e+003,4.648102e+001
1.019102e+003,4.431195e+001
1.020066e+003,4.105078e+001
1.021031e+003,3.703302e+001
1.021995e+003,3.170990e+001
1.022959e+003,2.514026e+001
1.023923e+003,2.029083e+001
1.024887e+003,1.823114e+001
1.025852e+003,1.796814e+001
1.026816e+003,1.864825e+001
1.027780e+003,2.124683e+001
1.028744e+003,2.153204e+001
1.029709e+003,1.628748e+001
1.030673e+003,1.194940e+001
1.031637e+003,1.073389e+001
1.032601e+003,1.121008e+001
1.033566e+003,1.139630e+001
1.034530e+003,1.069745e+001
1.035494e+003,1.004901e+001
1.036458e+003,1.053339e+001
1.037422e+003,1.138245e+001
1.038387e+003,1.113672e+001
1.039351e+003,9.842285e+000
1.040315e+003,9.126526e+000
1.041279e+003,1.051550e+001
1.042244e+003,1.349915e+001
1.043208e+003,1.470142e+001
1.044172e+003,1.208441e+001
1.045136e+003,1.034436e+001
1.046101e+003,1.085883e+001
1.047065e+003,1.134137e+001
1.048029e+003,9.423340e+000
1.048993e+003,5.873779e+000
1.049958e+003,4.324036e+000
1.050922e+003,7.275635e+000
1.051886e+003,1.128186e+001
1.052850e+003,1.275928e+001
1.053814e+003,1.294360e+001
1.054779e+003,1.324670e+001
1.055743e+003,1.397522e+001
1.056707e+003,1.473828e+001
1.057671e+003,1.507886e+001
1.058636e+003,1.491675e+001
1.059600e+003,1.493744e+001
1.060564e+003,1.688666e+001
1.061528e+003,1.746216e+001
1.062493e+003,1.451520e+001
1.063457e+003,1.037085e+001
1.064421e+003,7.803284e+000
1.065385e+003,7.275574e+000
1.066349e+003,7.387878e+000
1.067314e+003,7.739624e+000
1.068278e+003,8.247864e+000
1.069242e+003,9.120056e+000
1.070206e+003,1.019965e+001
1.071171e+003,1.090137e+001
1.072135e+003,1.091565e+001
1.073099e+003,1.081024e+001
1.074063e+003,1.194653e+001
1.075028e+003,1.472186e+001
1.075992e+003,1.505872e+001
1.076956e+003,1.146942e+001
1.077920e+003,7.810120e+000
1.078885e+003,5.486877e+000
1.079849e+003,4.506104e+000
1.080813e+003,4.815491e+000
1.081777e+003,6.648132e+000
1.082741e+003,8.774658e+000
1.083706e+003,9.994324e+000
1.084670e+003,1.108209e+001
1.085634e+003,1.320581e+001
1.086598e+003,1.540625e+001
1.087563e+003,1.572144e+001
1.088527e+003,1.334674e+001
1.089491e+003,9.923828e+000
1.090455e+003,8.086182e+000
1.091420e+003,7.747314e+000
1.092384e+003,7.697083e+000
1.093348e+003,8.204041e+000
1.094312e+003,7.970642e+000
1.095276e+003,5.572632e+000
1.096241e+003,2.321045e+000
1.097205e+003,1.821289e+000
1.098169e+003,5.084045e+000
1.099133e+003,8.528503e+000
1.100098e+003,1.244141e+001
1.101062e+003,1.498486e+001
1.102026e+003,1.390753e+001
1.102990e+003,1.058344e+001
1.103955e+003,7.943787e+000
1.104919e+003,7.711487e+000
1.105883e+003,9.204590e+000
1.106847e+003,1.155817e+001
1.107812e+003,1.466711e+001
1.108776e+003,1.602802e+001
1.109740e+003,1.467230e+001
1.110704e+003,1.338129e+001
1.111668e+003,1.498724e+001
1.112633e+003,1.887964e+001
1.113597e+003,2.103723e+001
1.114561e+003,1.954211e+001
1.115525e+003,1.922095e+001
1.116490e+003,2.457440e+001
1.117454e+003,2.857916e+001
1.118418e+003,2.472321e+001
1.119382e+003,1.606573e+001
1.120347e+003,1.061182e+001
1.121311e+003,1.295746e+001
1.122275e+003,1.931305e+001
1.123239e+003,2.359827e+001
1.124203e+003,2.622693e+001
1.125168e+003,2.723346e+001
1.126132e+003,2.587488e+001
1.127096e+003,2.511499e+001
1.128060e+003,2.760406e+001
1.129025e+003,3.241254e+001
1.129989e+003,3.552661e+001
1.130953e+003,3.543854e+001
1.131917e+003,3.613770e+001
1.132882e+003,3.908289e+001
1.133846e+003,4.292859e+001
1.134810e+003,4.721722e+001
1.135774e+003,5.173657e+001
1.136739e+003,5.628607e+001
1.137703e+003,6.072192e+001
1.138667e+003,6.502374e+001
1.139631e+003,6.904211e+001
1.140595e+003,7.289795e+001
1.141560e+003,7.804517e+001
1.142524e+003,8.479230e+001
1.143488e+003,9.310602e+001
1.144452e+003,1.031213e+002
1.145417e+003,1.145477e+002
1.146381e+003,1.260280e+002
1.147345e+003,1.363188e+002
1.148309e+003,1.497322e+002
1.149274e+003,1.715336e+002
1.150238e+003,1.925751e+002
1.151202e+003,2.080534e+002
1.152166e+003,2.196194e+002
1.153130e+003,2.312919e+002
1.154095e+003,2.444541e+002
1.155059e+003,2.557347e+002
1.156023e+003,2.611715e+002
1.156987e+003,2.606993e+002
1.157952e+003,2.556974e+002
1.158916e+003,2.464144e+002
1.159880e+003,2.356727e+002
1.160844e+003,2.240790e+002
1.161809e+003,2.109648e+002
1.162773e+003,1.956625e+002
1.163737e+003,1.776384e+002
1.164701e+003,1.600664e+002
1.165666e+003,1.419594e+002
1.166630e+003,1.269748e+002
1.167594e+003,1.174573e+002
1.168558e+003,1.114217e+002
1.169522e+003,1.060956e+002
1.170487e+003,1.007253e+002
1.171451e+003,9.744543e+001
1.172415e+003,9.917395e+001
1.173379e+003,1.041328e+002
1.174344e+003,1.025709e+002
1.175308e+003,9.424512e+001
1.176272e+003,8.801611e+001
1.177236e+003,8.844135e+001
1.178201e+003,9.128485e+001
1.179165e+003,9.089551e+001
1.180129e+003,8.696692e+001
1.181093e+003,8.240637e+001
1.182057e+003,7.682166e+001
1.183022e+003,7.261694e+001
1.183986e+003,7.072339e+001
1.184950e+003,7.043060e+001
1.185914e+003,7.147913e+001
1.186879e+003,7.359772e+001
1.187843e+003,7.643488e+001
1.188807e+003,7.963098e+001
1.189771e+003,8.257410e+001
1.190736e+003,8.382782e+001
1.191700e+003,8.322815e+001
1.192664e+003,8.187146e+001
1.193628e+003,8.014832e+001
1.194593e+003,7.778339e+001
1.195557e+003,7.347717e+001
1.196521e+003,6.816693e+001
1.197485e+003,6.600171e+001
1.198449e+003,6.914496e+001
1.199414e+003,7.073907e+001
1.200378e+003,6.656885e+001
1.201342e+003,6.092957e+001
1.202306e+003,5.514020e+001
1.203271e+003,5.001202e+001
1.204235e+003,4.690771e+001
1.205199e+003,4.636310e+001
1.206163e+003,4.678473e+001
1.207128e+003,4.540668e+001
1.208092e+003,4.216418e+001
1.209056e+003,3.870990e+001
1.210020e+003,3.428125e+001
1.210984e+003,3.115680e+001
1.211949e+003,3.179877e+001
1.212913e+003,3.280096e+001
1.213877e+003,2.930225e+001
1.214841e+003,2.123859e+001
1.215806e+003,1.373712e+001
1.216770e+003,8.141541e+000
1.217734e+003,4.513306e+000
1.218698e+003,2.806885e+000
1.219663e+003,2.336304e+000
1.220627e+003,2.781372e+000
1.221591e+003,3.756592e+000
1.222555e+003,4.374329e+000
1.223520e+003,3.865784e+000
1.224484e+003,2.582886e+000
1.225448e+003,1.493896e+000
1.226412e+003,5.252686e-001
1.227376e+003,-2.301636e-001
1.228341e+003,-9.166260e-001
1.229305e+003,-1.496155e+000
1.230269e+003,-2.258728e+000
1.231233e+003,-2.858887e+000
1.232198e+003,-2.244812e+000
1.233162e+003,8.868408e-002
1.234126e+003,2.614441e+000
1.235090e+003,4.651978e+000
1.236055e+003,5.332336e+000
1.237019e+003,2.716431e+000
1.237983e+003,-1.872559e+000
1.238947e+003,-4.569153e+000
1.239911e+003,-3.602356e+000
1.240876e+003,-8.300781e-001
1.241840e+003,9.151001e-001
1.242804e+003,1.623291e+000
1.243768e+003,1.914063e+000
1.244733e+003,2.045349e+000
1.245697e+003,1.330750e+000
1.246661e+003,-2.305481e+000
1.247625e+003,-5.676697e+000
1.248590e+003,-6.024658e+000
1.249554e+003,-3.529846e+000
1.250518e+003,2.574463e-001
1.251482e+003,4.616699e+000
1.252447e+003,8.164124e+000
1.253411e+003,9.117432e+000
1.254375e+003,8.632751e+000
1.255339e+003,8.646545e+000
1.256303e+003,9.439331e+000
1.257268e+003,1.123010e+001
1.258232e+003,1.425488e+001
1.259196e+003,1.731830e+001
1.260160e+003,1.807281e+001
1.261125e+003,1.612262e+001
1.262089e+003,1.640125e+001
1.263053e+003,2.103918e+001
1.264017e+003,2.527313e+001
1.264982e+003,2.947620e+001
1.265946e+003,3.199115e+001
1.266910e+003,3.052142e+001
1.267874e+003,2.579596e+001
1.268839e+003,2.084625e+001
1.269803e+003,1.770880e+001
1.270767e+003,1.551660e+001
1.271731e+003,1.244037e+001
1.272695e+003,8.793030e+000
1.273660e+003,7.338196e+000
1.274624e+003,8.725403e+000
1.275588e+003,9.191956e+000
1.276552e+003,6.150208e+000
1.277517e+003,1.725769e+000
1.278481e+003,-7.664185e-001
1.279445e+003,-1.272888e+000
1.280409e+003,2.360229e-001
1.281374e+003,6.074951e+000
1.282338e+003,1.093109e+001
1.283302e+003,1.178674e+001
1.284266e+003,1.034949e+001
1.285230e+003,8.043274e+000
1.286195e+003,5.498657e+000
1.287159e+003,3.292786e+000
1.288123e+003,2.058777e+000
1.289087e+003,1.617615e+000
1.290052e+003,6.480103e-001
1.291016e+003,-1.880981e+000
1.291980e+003,-1.917175e+000
1.292944e+003,3.181274e+000
1.293909e+003,6.515442e+000
1.294873e+003,4.745056e+000
1.295837e+003,6.474609e-001
1.296801e+003,-2.349060e+000
1.297766e+003,-3.704224e+000
1.298730e+003,-4.297119e+000
1.299694e+003,-4.683044e+000
1.300658e+003,-4.801270e+000
1.301622e+003,-4.127319e+000
1.302587e+003,-3.027466e+000
1.303551e+003,-2.409973e+000
1.304515e+003,-2.231934e+000
1.305479e+003,-1.352844e+000
1.306444e+003,1.217773e+000
1.307408e+003,4.511475e+000
1.308372e+003,5.485657e+000
1.309336e+003,2.986267e+000
1.310301e+003,1.639221e+000
1.311265e+003,3.585632e+000
1.312229e+003,4.725342e+000
1.313193e+003,3.005615e+000
1.314157e+003,3.048096e-001
1.315122e+003,-1.592529e+000
1.316086e+003,-2.412598e+000
1.317050e+003,-2.491211e+000
1.318014e+003,-1.814941e+000
1.318979e+003,-9.714355e-001
1.319943e+003,-1.487061e+000
1.320907e+003,-2.981628e+000
1.321871e+003,-3.372375e+000
1.322836e+003,-2.786926e+000
1.323800e+003,-2.049316e+000
1.324764e+003,-1.359802e+000
1.325728e+003,-7.672119e-001
1.326693e+003,-7.819824e-001
1.327657e+003,-1.630066e+000
1.328621e+003,-1.613892e+000
1.329585e+003,1.310669e+000
1.330549e+003,4.480530e+000
1.331514e+003,6.200745e+000
1.332478e+003,6.297058e+000
1.333442e+003,4.367615e+000
1.334406e+003,1.098511e+000
1.335371e+003,-2.338501e+000
1.336335e+003,-5.175598e+000
1.337299e+003,-6.813293e+000
1.338263e+003,-6.081238e+000
1.339228e+003,-2.581177e+000
1.340192e+003,-3.054199e-001
1.341156e+003,-6.168823e-001
1.342120e+003,-8.630371e-002
1.343084e+003,2.647156e+000
1.344049e+003,4.966003e+000
1.345013e+003,4.641174e+000
1.345977e+003,2.507141e+000
1.346941e+003,9.484253e-001
1.347906e+003,7.932739e-001
1.348870e+003,1.113708e+000
1.349834e+003,9.380493e-001
1.350798e+003,4.927979e-001
1.351763e+003,9.789429e-001
1.352727e+003,2.172485e+000
1.353691e+003,1.969971e+000
1.354655e+003,-7.362671e-001
1.355620e+003,-3.687683e+000
1.356584e+003,-4.026794e+000
1.357548e+003,-1.925293e+000
1.358512e+003,2.356567e-001
1.359476e+003,2.595093e+000
1.360441e+003,3.185974e+000
1.361405e+003,-2.459717e-002
1.362369e+003,-3.024658e+000
1.363333e+003,-3.509399e+000
1.364298e+003,-2.679199e+000
1.365262e+003,-2.504150e+000
1.366226e+003,-3.355408e+000
1.367190e+003,-3.919739e+000
1.368155e+003,-3.006897e+000
1.369119e+003,-1.235779e+000
1.370083e+003,-5.520630e-001
1.371047e+003,-1.258484e+000
1.372011e+003,-8.756104e-001
1.372976e+003,1.598206e+000
1.373940e+003,3.015869e+000
1.374904e+003,1.757019e+000
1.375868e+003,-5.677490e-001
1.376833e+003,-2.458069e+000
1.377797e+003,-3.681641e+000
1.378761e+003,-3.706604e+000
1.379725e+003,-1.918335e+000
1.380690e+003,2.293091e-001
1.381654e+003,1.851318e+000
1.382618e+003,2.716431e+000
1.383582e+003,1.556702e+000
1.384547e+003,-1.195679e+000
1.385511e+003,-2.301208e+000
1.386475e+003,7.092285e-002
1.387439e+003,3.531189e+000
1.388403e+003,4.357605e+000
1.389368e+003,2.521667e+000
1.390332e+003,1.416687e+000
1.391296e+003,1.957581e+000
1.392260e+003,2.040466e+000
1.393225e+003,6.093750e-001
1.394189e+003,-9.046631e-001
1.395153e+003,-1.708374e+000
1.396117e+003,-2.020203e+000
1.397082e+003,-2.318604e+000
1.398046e+003,-2.606201e+000
1.399010e+003,-2.453003e+000
1.399974e+003,-1.676208e+000
1.400938e+003,-7.282104e-001
1.401903e+003,1.671143e-001
1.402867e+003,2.035217e+000
1.403831e+003,3.658752e+000
1.404795e+003,4.437561e+000
1.405760e+003,4.888855e+000
1.406724e+003,4.277039e+000
1.407688e+003,2.851440e+000
1.408652e+003,1.353760e+000
1.409617e+003,3.444824e-001
1.410581e+003,2.886353e-001
1.411545e+003,1.415161e+000
1.412509e+003,3.207275e+000
1.413474e+003,5.412415e+000
1.414438e+003,7.162842e+000
1.415402e+003,7.941772e+000
1.416366e+003,7.994812e+000
1.417330e+003,6.811279e+000
1.418295e+003,3.791016e+000
1.419259e+003,1.021790e+000
1.420223e+003,1.195984e+000
1.421187e+003,3.546875e+000
1.422152e+003,4.304810e+000
1.423116e+003,2.727295e+000
1.424080e+003,3.165100e+000
1.425044e+003,9.530762e+000
1.426009e+003,1.442493e+001
1.426973e+003,1.343231e+001
1.427937e+003,1.002179e+001
1.428901e+003,8.416138e+000
1.429865e+003,9.233704e+000
1.430830e+003,1.056213e+001
1.431794e+003,1.095630e+001
1.432758e+003,1.079950e+001
1.433722e+003,1.129028e+001
1.434687e+003,1.297345e+001
1.435651e+003,1.540430e+001
1.436615e+003,1.866278e+001
1.437579e+003,2.002435e+001
1.438544e+003,1.841608e+001
1.439508e+003,1.602429e+001
1.440472e+003,1.407416e+001
1.441436e+003,1.296283e+001
1.442401e+003,1.332703e+001
1.443365e+003,1.492615e+001
1.444329e+003,1.531921e+001
1.445293e+003,1.241199e+001
1.446257e+003,8.576660e+000
1.447222e+003,8.453247e+000
1.448186e+003,1.128943e+001
1.449150e+003,1.352582e+001
1.450114e+003,1.493085e+001
1.451079e+003,1.497180e+001
1.452043e+003,1.239551e+001
1.453007e+003,9.476990e+000
1.453971e+003,9.419006e+000
1.454936e+003,1.172028e+001
1.455900e+003,1.351013e+001
1.456864e+003,1.441571e+001
1.457828e+003,1.469415e+001
1.458792e+003,1.313977e+001
1.459757e+003,1.176642e+001
1.460721e+003,1.292706e+001
1.461685e+003,1.536493e+001
1.462649e+003,1.669269e+001
1.463614e+003,1.638391e+001
1.464578e+003,1.494543e+001
1.465542e+003,1.234485e+001
1.466506e+003,9.347351e+000
1.467471e+003,8.948181e+000
1.468435e+003,1.224817e+001
1.469399e+003,1.476746e+001
1.470363e+003,1.499249e+001
1.471328e+003,1.531989e+001
1.472292e+003,1.634186e+001
1.473256e+003,1.685046e+001
1.474220e+003,1.620715e+001
1.475184e+003,1.513782e+001
1.476149e+003,1.463177e+001
1.477113e+003,1.476715e+001
1.478077e+003,1.482056e+001
1.479041e+003,1.436615e+001
1.480006e+003,1.402856e+001
1.480970e+003,1.520404e+001
1.481934e+003,1.819165e+001
1.482898e+003,1.965564e+001
1.483863e+003,1.734503e+001
1.484827e+003,1.665594e+001
1.485791e+003,2.066602e+001
1.486755e+003,2.606879e+001
1.487719e+003,3.017902e+001
1.488684e+003,3.257819e+001
1.489648e+003,3.326465e+001
1.490612e+003,3.248975e+001
1.491576e+003,3.168250e+001
1.492541e+003,3.160541e+001
1.493505e+003,3.240228e+001
1.494469e+003,3.451068e+001
1.495433e+003,3.748383e+001
1.496398e+003,4.188422e+001
1.497362e+003,4.925562e+001
1.498326e+003,5.538757e+001
1.499290e+003,5.619989e+001
1.500255e+003,5.574457e+001
1.501219e+003,5.936981e+001
1.502183e+003,6.662177e+001
1.503147e+003,7.461584e+001
1.504111e+003,8.270996e+001
1.505076e+003,9.156012e+001
1.506040e+003,1.013812e+002
1.507004e+003,1.125775e+002
1.507968e+003,1.258190e+002
1.508933e+003,1.404808e+002
1.509897e+003,1.551798e+002
1.510861e+003,1.702563e+002
1.511825e+003,1.872914e+002
1.512790e+003,2.069859e+002
1.513754e+003,2.287009e+002
1.514718e+003,2.529146e+002
1.515682e+003,2.792452e+002
1.516646e+003,3.012802e+002
1.517611e+003,3.179803e+002
1.518575e+003,3.328540e+002
1.519539e+003,3.491757e+002
1.520503e+003,3.624091e+002
1.521468e+003,3.694586e+002
1.522432e+003,3.718091e+002
1.523396e+003,3.714224e+002
1.524360e+003,3.688113e+002
1.525325e+003,3.641839e+002
1.526289e+003,3.577925e+002
1.527253e+003,3.483777e+002
1.528217e+003,3.331276e+002
1.529182e+003,3.122681e+002
1.530146e+003,2.915714e+002
1.531110e+003,2.726564e+002
1.532074e+003,2.500293e+002
1.533039e+003,2.195344e+002
1.534003e+003,1.885252e+002
1.534967e+003,1.595405e+002
1.535931e+003,1.336832e+002
1.536896e+003,1.112821e+002
1.537860e+003,9.274597e+001
1.538824e+003,7.924536e+001
1.539788e+003,7.093048e+001
1.540752e+003,6.462482e+001
1.541717e+003,5.632269e+001
1.542681e+003,4.700702e+001
1.543645e+003,4.174573e+001
1.544609e+003,4.307660e+001
1.545573e+003,4.319452e+001
1.546538e+003,4.116974e+001
1.547502e+003,3.808844e+001
1.548466e+003,3.320892e+001
1.549430e+003,2.935681e+001
1.550395e+003,3.014185e+001
1.551359e+003,3.388916e+001
1.552323e+003,3.618201e+001
1.553287e+003,3.540784e+001
1.554252e+003,3.144550e+001
1.555216e+003,2.330853e+001
1.556180e+003,1.410474e+001
1.557144e+003,1.184076e+001
1.558109e+003,1.696857e+001
1.559073e+003,1.994159e+001
1.560037e+003,1.931750e+001
1.561001e+003,1.789545e+001
1.561966e+003,1.685687e+001
1.562930e+003,1.622754e+001
1.563894e+003,1.527032e+001
1.564858e+003,1.442340e+001
1.565823e+003,1.572131e+001
1.566787e+003,1.926050e+001
1.567751e+003,2.087933e+001
1.568715e+003,1.780182e+001
1.569679e+003,1.367365e+001
1.570644e+003,1.260321e+001
1.571608e+003,1.382959e+001
1.572572e+003,1.624432e+001
1.573536e+003,2.012756e+001
1.574500e+003,2.263721e+001
1.575465e+003,2.250018e+001
1.576429e+003,2.094714e+001
1.577393e+003,1.752905e+001
1.578357e+003,1.373828e+001
1.579322e+003,1.325067e+001
1.580286e+003,1.617041e+001
1.581250e+003,1.903662e+001
1.582214e+003,2.099359e+001
1.583179e+003,2.192200e+001
1.584143e+003,2.116656e+001
1.585107e+003,1.939044e+001
1.586071e+003,1.778180e+001
1.587036e+003,1.675824e+001
1.588000e+003,1.622693e+001
1.588964e+003,1.585779e+001
1.589928e+003,1.627747e+001
1.590893e+003,1.863434e+001
1.591857e+003,2.144556e+001
1.592821e+003,2.229932e+001
1.593785e+003,2.159668e+001
1.594750e+003,2.120953e+001
1.595714e+003,2.116302e+001
1.596678e+003,2.155896e+001
1.597642e+003,2.269000e+001
1.598606e+003,2.401599e+001
1.599571e+003,2.545239e+001
1.600535e+003,2.685168e+001
1.601499e+003,2.787097e+001
1.602463e+003,2.842944e+001
1.603427e+003,2.862042e+001
1.604392e+003,2.845081e+001
1.605356e+003,2.844702e+001
1.606320e+003,2.968079e+001
1.607284e+003,3.136102e+001
1.608249e+003,3.104077e+001
1.609213e+003,2.866754e+001
1.610177e+003,2.571881e+001
1.611141e+003,2.184387e+001
1.612106e+003,1.891925e+001
1.613070e+003,1.843756e+001
1.614034e+003,1.866412e+001
1.614998e+003,1.800916e+001
1.615963e+003,1.738165e+001
1.616927e+003,1.913599e+001
1.617891e+003,2.295923e+001
1.618855e+003,2.466858e+001
1.619820e+003,2.138831e+001
1.620784e+003,1.575964e+001
1.621748e+003,1.183228e+001
1.622712e+003,9.936157e+000
1.623677e+003,8.765442e+000
1.624641e+003,8.094421e+000
1.625605e+003,9.959778e+000
1.626569e+003,1.640326e+001
1.627533e+003,2.082263e+001
1.628498e+003,1.892126e+001
1.629462e+003,1.561102e+001
1.630426e+003,1.452661e+001
1.631390e+003,1.532227e+001
1.632354e+003,1.695459e+001
1.633319e+003,1.892871e+001
1.634283e+003,2.035547e+001
1.635247e+003,2.055963e+001
1.636211e+003,1.966602e+001
1.637176e+003,1.788690e+001
1.638140e+003,1.545422e+001
1.639104e+003,1.300885e+001
1.640068e+003,9.858826e+000
1.641033e+003,8.776306e+000
1.641997e+003,1.176318e+001
1.642961e+003,1.550916e+001
1.643925e+003,1.960028e+001
1.644890e+003,2.256549e+001
1.645854e+003,2.164496e+001
1.646818e+003,1.844885e+001
1.647782e+003,1.786414e+001
1.648747e+003,2.111725e+001
1.649711e+003,2.356055e+001
1.650675e+003,2.115814e+001
1.651639e+003,1.670404e+001
1.652604e+003,1.592395e+001
1.653568e+003,1.842767e+001
1.654532e+003,1.881378e+001
1.655496e+003,1.621002e+001
1.656460e+003,1.361774e+001
1.657425e+003,1.109521e+001
1.658389e+003,1.019196e+001
1.659353e+003,1.280658e+001
1.660317e+003,1.644269e+001
1.661281e+003,1.909967e+001
1.662246e+003,2.017059e+001
1.663210e+003,1.863794e+001
1.664174e+003,1.443835e+001
1.665138e+003,1.043774e+001
1.666103e+003,8.816895e+000
1.667067e+003,8.808838e+000
1.668031e+003,9.496887e+000
1.668995e+003,1.086829e+001
1.669960e+003,1.128387e+001
1.670924e+003,1.030206e+001
1.671888e+003,1.025281e+001
1.672852e+003,1.245074e+001
1.673817e+003,1.447321e+001
1.674781e+003,1.494415e+001
1.675745e+003,1.429358e+001
1.676709e+003,1.225781e+001
1.677674e+003,9.523315e+000
1.678638e+003,8.236389e+000
1.679602e+003,9.056946e+000
1.680566e+003,9.523254e+000
1.681531e+003,7.412659e+000
1.682495e+003,4.746155e+000
1.683459e+003,5.004395e+000
1.684423e+003,7.433044e+000
1.685387e+003,8.385559e+000
1.686352e+003,7.452209e+000
1.687316e+003,6.832214e+000
1.688280e+003,7.222839e+000
1.689244e+003,8.063965e+000
1.690208e+003,9.281738e+000
1.691173e+003,1.029785e+001
1.692137e+003,1.054913e+001
1.693101e+003,1.043658e+001
1.694065e+003,1.042572e+001
1.695030e+003,1.029761e+001
1.695994e+003,1.006885e+001
1.696958e+003,1.032520e+001
1.697922e+003,1.018384e+001
1.698887e+003,7.841187e+000
1.699851e+003,4.393555e+000
1.700815e+003,3.259338e+000
1.701779e+003,4.493469e+000
1.702744e+003,4.517395e+000
1.703708e+003,2.022156e+000
1.704672e+003,6.571655e-001
1.705636e+003,3.489319e+000
1.706601e+003,7.435059e+000
1.707565e+003,8.879395e+000
1.708529e+003,8.375122e+000
1.709493e+003,6.363647e+000
1.710458e+003,2.662231e+000
1.711422e+003,-9.191895e-001
1.712386e+003,-4.772278e+000
1.713350e+003,-6.324402e+000
1.714314e+003,-2.191589e+000
1.715279e+003,4.161438e+000
1.716243e+003,7.082764e+000
1.717207e+003,6.877563e+000
1.718171e+003,7.655762e+000
1.719135e+003,1.063196e+001
1.720100e+003,1.184717e+001
1.721064e+003,7.882813e+000
1.722028e+003,2.614136e+000
1.722992e+003,2.547119e+000
1.723957e+003,6.719971e+000
1.724921e+003,7.055786e+000
1.725885e+003,2.216492e+000
1.726849e+003,-1.615540e+000
1.727814e+003,-3.141907e+000
1.728778e+003,-2.631042e+000
1.729742e+003,1.876709e+000
1.730706e+003,6.245544e+000
1.731671e+003,5.177124e+000
1.732635e+003,5.732422e-001
1.733599e+003,-2.306213e+000
1.734563e+003,-2.273682e+000
1.735528e+003,-1.672546e+000
1.736492e+003,-1.911621e+000
1.737456e+003,-2.003845e+000
1.738420e+003,-6.645508e-001
1.739385e+003,1.273193e+000
1.740349e+003,1.791504e+000
1.741313e+003,8.913574e-001
1.742277e+003,-5.255127e-002
1.743241e+003,-1.228149e+000
1.744206e+003,-1.561279e+000
1.745170e+003,-4.341431e-001
1.746134e+003,6.175537e-001
1.747098e+003,4.071045e-001
1.748063e+003,-1.423950e-001
1.749027e+003,4.952393e-001
1.749991e+003,1.855957e+000
1.750955e+003,2.118530e+000
1.751919e+003,7.082520e-001
1.752884e+003,-1.322327e+000
1.753848e+003,-3.127747e+000
1.754812e+003,-4.380554e+000
1.755776e+003,-4.005005e+000
1.756741e+003,-1.754456e+000
1.757705e+003,-9.197998e-002
1.758669e+003,5.358276e-001
1.759633e+003,1.005127e+000
1.760598e+003,1.563171e+000
1.761562e+003,1.121521e+000
1.762526e+003,-1.623840e+000
1.763490e+003,-3.770996e+000
1.764455e+003,-2.441711e+000
1.765419e+003,5.229492e-001
1.766383e+003,1.816040e+000
1.767347e+003,1.076904e+000
1.768312e+003,3.767700e-001
1.769276e+003,6.005859e-001
1.770240e+003,4.385986e-001
1.771204e+003,-1.150757e+000
1.772168e+003,-3.296631e+000
1.773133e+003,-5.334778e+000
1.774097e+003,-7.081970e+000
1.775061e+003,-5.903809e+000
1.776025e+003,-1.342163e+000
1.776990e+003,1.681824e+000
1.777954e+003,1.328430e+000
1.778918e+003,8.576050e-001
1.779882e+003,3.190002e+000
1.780846e+003,5.543213e+000
1.781811e+003,3.642944e+000
1.782775e+003,-8.923340e-001
1.783739e+003,-2.607361e+000
1.784703e+003,-3.369751e-001
1.785668e+003,1.393188e+000
1.786632e+003,-2.163696e-001
1.787596e+003,-2.569763e+000
1.788560e+003,-3.635437e+000
1.789525e+003,-3.428589e+000
1.790489e+003,-1.946960e+000
1.791453e+003,7.568359e-002
1.792417e+003,1.410217e+000
1.793382e+003,1.703247e+000
1.794346e+003,1.508179e-001
1.795310e+003,-3.896057e+000
1.796274e+003,-8.114136e+000
1.797239e+003,-9.784058e+000
1.798203e+003,-8.688049e+000
1.799167e+003,-5.101624e+000
1.800131e+003,1.078552e+000
1.801095e+003,3.830322e+000
1.802060e+003,1.702271e+000
1.803024e+003,2.520752e-001
1.803988e+003,-3.571777e-001
1.804952e+003,-2.700195e-001
1.805917e+003,9.836426e-001
1.806881e+003,2.418335e+000
1.807845e+003,3.958008e+000
1.808809e+003,4.827515e+000
1.809773e+003,2.732117e+000
1.810738e+003,-1.928650e+000
1.811702e+003,-4.925110e+000
1.812666e+003,-3.677429e+000
1.813630e+003,-3.082886e-001
1.814595e+003,2.740173e+000
1.815559e+003,4.894958e+000
1.816523e+003,3.643555e+000
1.817487e+003,-1.357361e+000
1.818452e+003,-4.765686e+000
1.819416e+003,-5.729614e+000
1.820380e+003,-5.875366e+000
1.821344e+003,-6.567078e+000
1.822309e+003,-5.948181e+000
1.823273e+003,-2.558594e-001
1.824237e+003,5.667664e+000
1.825201e+003,5.984131e+000
1.826166e+003,2.183716e+000
1.827130e+003,-1.431335e+000
1.828094e+003,-4.160339e+000
1.829058e+003,-5.609558e+000
1.830022e+003,-4.797119e+000
1.830987e+003,-3.689392e+000
1.831951e+003,-4.264160e+000
1.832915e+003,-5.266052e+000
1.833879e+003,-5.106201e+000
1.834844e+003,-3.780762e+000
1.835808e+003,-6.810303e-001
1.836772e+003,3.833496e+000
1.837736e+003,5.464233e+000
1.838700e+003,2.021851e+000
1.839665e+003,-1.223145e+000
1.840629e+003,1.130188e+000
1.841593e+003,5.807129e+000
1.842557e+003,5.237976e+000
1.843522e+003,-4.919434e-001
1.844486e+003,-3.285889e+000
1.845450e+003,-6.994019e-001
1.846414e+003,1.104126e+000
1.847379e+003,1.683167e+000
1.848343e+003,8.482666e-001
1.849307e+003,-2.947510e+000
1.850271e+003,-6.198792e+000
1.851236e+003,-5.432983e+000
1.852200e+003,-2.828674e+000
1.853164e+003,-2.067322e+000
1.854128e+003,-3.383423e+000
1.855093e+003,-4.239258e+000
1.856057e+003,-3.529236e+000
1.857021e+003,-3.571533e+000
1.857985e+003,-6.769409e+000
1.858949e+003,-1.078149e+001
1.859914e+003,-1.123285e+001
1.860878e+003,-8.616760e+000
1.861842e+003,-5.910706e+000
1.862806e+003,-3.229797e+000
1.863771e+003,-2.561035e+000
1.864735e+003,-5.013184e+000
1.865699e+003,-6.529907e+000
1.866663e+003,-4.405884e+000
1.867627e+003,-2.000793e+000
1.868592e+003,-3.385193e+000
1.869556e+003,-6.430847e+000
1.870520e+003,-6.241272e+000
1.871484e+003,-3.352295e+000
1.872449e+003,-7.596436e-001
1.873413e+003,2.762939e+000
1.874377e+003,4.442810e+000
1.875341e+003,-3.747559e-002
1.876306e+003,-3.837341e+000
1.877270e+003,-2.198853e+000
1.878234e+003,6.065063e-001
1.879198e+003,1.004639e-001
1.880163e+003,-2.187927e+000
1.881127e+003,-2.865906e+000
1.882091e+003,-1.622009e+000
1.883055e+003,-9.155273e-002
1.884020e+003,9.157104e-001
1.884984e+003,1.495178e+000
1.885948e+003,1.782349e+000
1.886912e+003,1.379456e+000
1.887876e+003,-8.879395e-001
1.888841e+003,-4.609070e+000
1.889805e+003,-4.786743e+000
1.890769e+003,-6.590576e-001
1.891733e+003,3.073669e+000
1.892698e+003,6.287354e+000
1.893662e+003,7.554626e+000
1.894626e+003,5.443542e+000
1.895590e+003,2.730347e+000
1.896554e+003,1.576843e+000
1.897519e+003,1.086853e+000
1.898483e+003,-8.793335e-001
1.899447e+003,-3.678162e+000
1.900411e+003,-3.409424e+000
1.901376e+003,9.257202e-001
1.902340e+003,4.072266e+000
1.903304e+003,3.636047e+000
1.904268e+003,2.073364e+000
1.905233e+003,-8.630371e-002
1.906197e+003,-1.460205e+000
1.907161e+003,5.322266e-001
1.908125e+003,3.924255e+000
1.909090e+003,4.207092e+000
1.910054e+003,1.706665e+000
1.911018e+003,9.948120e-001
1.911982e+003,3.465088e+000
1.912947e+003,5.218201e+000
1.913911e+003,3.280273e+000
1.914875e+003,4.983521e-001
1.915839e+003,1.338379e+000
1.916803e+003,4.614258e+000
1.917768e+003,5.704346e+000
1.918732e+003,4.579041e+000
1.919696e+003,3.030579e+000
1.920660e+003,7.207642e-001
1.921625e+003,-2.435303e-001
1.922589e+003,1.144409e+000
1.923553e+003,2.527710e+000
1.924517e+003,2.559814e+000
1.925481e+003,2.251526e+000
1.926446e+003,2.535278e+000
1.927410e+003,3.142761e+000
1.928374e+003,3.374390e+000
1.929338e+003,3.002441e+000
1.930303e+003,2.434631e+000
1.931267e+003,1.925598e+000
1.932231e+003,2.561340e+000
1.933195e+003,5.771667e+000
1.934160e+003,8.382935e+000
1.935124e+003,7.958252e+000
1.936088e+003,5.527466e+000
1.937052e+003,1.551941e+000
1.938017e+003,-2.380981e+000
1.938981e+003,-3.470215e+000
1.939945e+003,-1.762573e+000
1.940909e+003,4.543457e-001
1.941874e+003,1.955627e+000
1.942838e+003,2.945007e+000
1.943802e+003,3.963562e+000
1.944766e+003,4.854492e+000
1.945730e+003,4.425842e+000
1.946695e+003,2.635681e+000
1.947659e+003,1.209473e+000
1.948623e+003,5.889893e-002
1.949587e+003,-7.512817e-001
1.950552e+003,-8.317871e-001
1.951516e+003,-1.469543e+000
1.952480e+003,-3.902344e+000
1.953444e+003,-5.245117e+000
1.954408e+003,-2.709412e+000
1.955373e+003,7.966919e-001
1.956337e+003,1.131287e+000
1.957301e+003,-2.473145e-001
1.958265e+003,9.185791e-001
1.959230e+003,5.241150e+000
1.960194e+003,8.008362e+000
1.961158e+003,7.085510e+000
1.962122e+003,5.594360e+000
1.963087e+003,3.890198e+000
1.964051e+003,2.546875e+000
1.965015e+003,2.643005e+000
1.965979e+003,3.284363e+000
1.966944e+003,2.619690e+000
1.967908e+003,1.531006e+000
1.968872e+003,2.783142e+000
1.969836e+003,6.024597e+000
1.970801e+003,7.592529e+000
1.971765e+003,6.086548e+000
1.972729e+003,4.412842e+000
1.973693e+003,5.089966e+000
1.974657e+003,6.616882e+000
1.975622e+003,6.453064e+000
1.976586e+003,5.217957e+000
1.977550e+003,5.187256e+000
1.978514e+003,6.252747e+000
1.979479e+003,6.532288e+000
1.980443e+003,5.759644e+000
1.981407e+003,5.992126e+000
1.982371e+003,8.210144e+000
1.983335e+003,1.036530e+001
1.984300e+003,1.072485e+001
1.985264e+003,9.729309e+000
1.986228e+003,8.075745e+000
1.987192e+003,6.147034e+000
1.988157e+003,6.195190e+000
1.989121e+003,9.238831e+000
1.990085e+003,9.663147e+000
1.991049e+003,6.078186e+000
1.992014e+003,3.110413e+000
1.992978e+003,3.147583e-001
1.993942e+003,-8.331299e-001
1.994906e+003,1.928833e+000
1.995871e+003,4.723450e+000
1.996835e+003,3.975647e+000
1.997799e+003,2.137756e+000
1.998763e+003,3.145203e+000
1.999728e+003,6.270020e+000
