5.003444e+002,3.929114e+001
5.013087e+002,4.237567e+001
5.022729e+002,4.128253e+001
5.032371e+002,3.749231e+001
5.042014e+002,3.543732e+001
5.051656e+002,3.492334e+001
5.061298e+002,3.463922e+001
5.070941e+002,3.325769e+001
5.080583e+002,3.019690e+001
5.090225e+002,2.841125e+001
5.099868e+002,2.853595e+001
5.109510e+002,2.879651e+001
5.119152e+002,2.800385e+001
5.128795e+002,2.601935e+001
5.138437e+002,2.516498e+001
5.148079e+002,2.814777e+001
5.157722e+002,3.084027e+001
5.167364e+002,3.090143e+001
5.177006e+002,2.832343e+001
5.186649e+002,2.536920e+001
5.196291e+002,2.546014e+001
5.205933e+002,2.695227e+001
5.215576e+002,2.765363e+001
5.225218e+002,2.702948e+001
5.234860e+002,2.523407e+001
5.244503e+002,2.280933e+001
5.254145e+002,1.982159e+001
5.263787e+002,1.844751e+001
5.273430e+002,1.970410e+001
5.283072e+002,2.188019e+001
5.292714e+002,2.227618e+001
5.302357e+002,1.888190e+001
5.311999e+002,1.711407e+001
5.321641e+002,2.002875e+001
5.331284e+002,2.350598e+001
5.340926e+002,2.352411e+001
5.350568e+002,1.818024e+001
5.360211e+002,1.275122e+001
5.369853e+002,1.304401e+001
5.379495e+002,1.564673e+001
5.389138e+002,1.811609e+001
5.398780e+002,1.928687e+001
5.408422e+002,1.945068e+001
5.418065e+002,1.952924e+001
5.427707e+002,1.946399e+001
5.437349e+002,1.835413e+001
5.446992e+002,1.533044e+001
5.456634e+002,1.138654e+001
5.466276e+002,1.019928e+001
5.475919e+002,1.594727e+001
5.485561e+002,1.968134e+001
5.495203e+002,1.996704e+001
5.504846e+002,1.816779e+001
5.514488e+002,1.621942e+001
5.524130e+002,1.459943e+001
5.533773e+002,1.384802e+001
5.543415e+002,1.471448e+001
5.553057e+002,1.609637e+001
5.562700e+002,1.690631e+001
5.572342e+002,1.642847e+001
5.581984e+002,1.485907e+001
5.591627e+002,1.236926e+001
5.601269e+002,9.618958e+000
5.610911e+002,7.610779e+000
5.620554e+002,6.748718e+000
5.630196e+002,6.895203e+000
5.639838e+002,8.060486e+000
5.649481e+002,1.203149e+001
5.659123e+002,1.448273e+001
5.668765e+002,1.455310e+001
5.678408e+002,1.302374e+001
5.688050e+002,1.152496e+001
5.697692e+002,9.649719e+000
5.707335e+002,7.921936e+000
5.716977e+002,6.738403e+000
5.726619e+002,5.959412e+000
5.736262e+002,5.315002e+000
5.745904e+002,4.604065e+000
5.755546e+002,4.401855e+000
5.765189e+002,5.609314e+000
5.774831e+002,7.332947e+000
5.784473e+002,8.400696e+000
5.794116e+002,8.149658e+000
5.803758e+002,6.917542e+000
5.813400e+002,6.211060e+000
5.823043e+002,5.896973e+000
5.832685e+002,5.029480e+000
5.842327e+002,2.848022e+000
5.851970e+002,-2.624512e-002
5.861612e+002,-8.524170e-001
5.871254e+002,2.797424e+000
5.880897e+002,5.928162e+000
5.890539e+002,7.185791e+000
5.900181e+002,7.185303e+000
5.909824e+002,7.297363e+000
5.919466e+002,8.683350e+000
5.929108e+002,1.000372e+001
5.938751e+002,9.789368e+000
5.948393e+002,8.601501e+000
5.958035e+002,7.260803e+000
5.967678e+002,6.418701e+000
5.977320e+002,6.147095e+000
5.986962e+002,6.097290e+000
5.996605e+002,5.936646e+000
6.006247e+002,5.492554e+000
6.015889e+002,4.162109e+000
6.025532e+002,2.158936e+000
6.035174e+002,2.000183e+000
6.044816e+002,6.619324e+000
6.054459e+002,1.012531e+001
6.064101e+002,1.189532e+001
6.073743e+002,1.190509e+001
6.083386e+002,9.996338e+000
6.093028e+002,4.998840e+000
6.102670e+002,4.648438e-001
6.112313e+002,-1.142517e+000
6.121955e+002,-7.838135e-001
6.131597e+002,6.413574e-001
6.141240e+002,2.450195e+000
6.150882e+002,4.191406e+000
6.160524e+002,3.280090e+000
6.170167e+002,3.642578e-001
6.179809e+002,-8.504028e-001
6.189451e+002,1.938538e+000
6.199094e+002,7.753357e+000
6.208736e+002,1.020520e+001
6.218378e+002,5.713074e+000
6.228021e+002,2.395325e+000
6.237663e+002,1.076416e+000
6.247305e+002,1.415222e+000
6.256948e+002,2.964539e+000
6.266590e+002,6.243774e+000
6.276232e+002,8.272278e+000
6.285875e+002,6.965027e+000
6.295517e+002,4.448669e+000
6.305159e+002,2.843506e+000
6.314802e+002,3.199890e+000
6.324444e+002,4.495972e+000
6.334086e+002,4.504333e+000
6.343729e+002,3.772888e+000
6.353371e+002,2.603516e+000
6.363013e+002,8.515625e-001
6.372656e+002,-1.205872e+000
6.382298e+002,-2.296753e+000
6.391940e+002,-1.841431e+000
6.401583e+002,-1.223145e+000
6.411225e+002,1.210815e+000
6.420867e+002,3.646667e+000
6.430510e+002,2.909363e+000
6.440152e+002,-3.608398e+000
6.449794e+002,-8.311157e+000
6.459437e+002,-5.561401e+000
6.469079e+002,-9.633789e-001
6.478721e+002,1.243896e+000
6.488364e+002,-3.063965e-001
6.498006e+002,-3.389465e+000
6.507648e+002,-4.673279e+000
6.517291e+002,-4.532654e+000
6.526933e+002,-3.040894e+000
6.536575e+002,-1.001587e-001
6.546218e+002,2.915527e+000
6.555860e+002,3.247192e+000
6.565502e+002,-1.474060e+000
6.575145e+002,-3.872498e+000
6.584787e+002,-2.027649e+000
6.594429e+002,3.374634e-001
6.604072e+002,-1.887817e-001
6.613714e+002,-4.435547e+000
6.623356e+002,-7.550781e+000
6.632999e+002,-6.231079e+000
6.642641e+002,-4.482483e+000
6.652283e+002,-4.377808e+000
6.661926e+002,-5.725464e+000
6.671568e+002,-6.634644e+000
6.681210e+002,-4.640808e+000
6.690853e+002,-1.199219e+000
6.700495e+002,-7.598877e-002
6.710137e+002,-1.190063e+000
6.719780e+002,-2.574280e+000
6.729422e+002,-2.141663e+000
6.739064e+002,3.980103e-001
6.748707e+002,2.388062e+000
6.758349e+002,4.246460e+000
6.767991e+002,5.164124e+000
6.777634e+002,4.714539e+000
6.787276e+002,3.282104e+000
6.796918e+002,2.202332e+000
6.806561e+002,2.057251e+000
6.816203e+002,1.586731e+000
6.825845e+002,7.366943e-002
6.835488e+002,-2.022949e+000
6.845130e+002,-4.209229e+000
6.854772e+002,-6.236145e+000
6.864415e+002,-6.928589e+000
6.874057e+002,-2.943298e+000
6.883699e+002,3.572083e+000
6.893342e+002,7.578613e+000
6.902984e+002,6.168274e+000
6.912626e+002,3.660889e-001
6.922269e+002,-3.379333e+000
6.931911e+002,-3.553528e+000
6.941553e+002,-2.707825e+000
6.951196e+002,-9.088745e-001
6.960838e+002,1.235413e+000
6.970480e+002,3.225220e+000
6.980123e+002,5.552673e+000
6.989765e+002,6.479248e+000
6.999407e+002,4.479431e+000
7.009050e+002,1.668213e+000
7.018692e+002,-2.002563e-001
7.028334e+002,-6.339722e-001
7.037977e+002,-8.417969e-001
7.047619e+002,-3.182495e+000
7.057261e+002,-6.075500e+000
7.066904e+002,-6.319397e+000
7.076546e+002,-3.423828e+000
7.086188e+002,5.769653e-001
7.095831e+002,2.398376e+000
7.105473e+002,8.701172e-001
7.115115e+002,1.690674e-001
7.124758e+002,1.442200e+000
7.134400e+002,2.065674e+000
7.144042e+002,-6.530762e-003
7.153685e+002,-4.610535e+000
7.163327e+002,-8.207458e+000
7.172969e+002,-8.856323e+000
7.182612e+002,-8.230774e+000
7.192254e+002,-6.062500e+000
7.201896e+002,-3.338379e+000
7.211539e+002,-1.698669e+000
7.221181e+002,-2.615051e+000
7.230823e+002,-4.918884e+000
7.240466e+002,-5.380066e+000
7.250108e+002,-4.110413e+000
7.259750e+002,-2.215027e+000
7.269393e+002,-5.298462e-001
7.279035e+002,6.173706e-001
7.288677e+002,1.246033e+000
7.298320e+002,3.046692e+000
7.307962e+002,3.358154e+000
7.317604e+002,5.723267e-001
7.327247e+002,-3.166382e+000
7.336889e+002,-5.077393e+000
7.346531e+002,-4.593933e+000
7.356174e+002,-3.778992e+000
7.365816e+002,-2.667542e+000
7.375458e+002,-1.457336e+000
7.385101e+002,-2.525635e-001
7.394743e+002,8.380737e-001
7.404385e+002,1.560608e+000
7.414028e+002,1.091797e+000
7.423670e+002,-7.174683e-001
7.433312e+002,-1.450378e+000
7.442955e+002,-4.055176e-001
7.452597e+002,1.664490e+000
7.462239e+002,3.817810e+000
7.471882e+002,6.046814e+000
7.481524e+002,7.605469e+000
7.491166e+002,7.282959e+000
7.500809e+002,6.862854e+000
7.510451e+002,7.846863e+000
7.520093e+002,9.467529e+000
7.529736e+002,8.776306e+000
7.539378e+002,2.897888e+000
7.549020e+002,-2.426941e+000
7.558663e+002,-3.607117e+000
7.568306e+002,-2.158752e+000
7.577948e+002,-1.171875e-001
7.587590e+002,1.137817e+000
7.597233e+002,1.708313e+000
7.606875e+002,2.689392e+000
7.616517e+002,4.214722e+000
7.626160e+002,5.060730e+000
7.635802e+002,4.870117e+000
7.645444e+002,4.017578e+000
7.655087e+002,3.139893e+000
7.664729e+002,2.034546e+000
7.674371e+002,1.149048e+000
7.684014e+002,1.178589e-001
7.693656e+002,-4.779053e-001
7.703298e+002,2.685547e-003
7.712941e+002,1.560364e+000
7.722583e+002,3.229187e+000
7.732225e+002,4.308350e+000
7.741868e+002,5.170959e+000
7.751510e+002,6.258850e+000
7.761152e+002,7.417664e+000
7.770795e+002,8.294250e+000
7.780437e+002,8.536743e+000
7.790079e+002,8.006104e+000
7.799722e+002,5.496033e+000
7.809364e+002,5.825806e-001
7.819006e+002,-2.857605e+000
7.828649e+002,-2.405457e+000
7.838291e+002,9.950562e-001
7.847933e+002,3.761292e+000
7.857576e+002,5.678589e+000
7.867218e+002,5.888733e+000
7.876860e+002,3.476501e+000
7.886503e+002,7.503662e-001
7.896145e+002,-4.350586e-001
7.905787e+002,3.919067e-001
7.915430e+002,2.134094e+000
7.925072e+002,4.063232e+000
7.934714e+002,5.405762e+000
7.944357e+002,5.397278e+000
7.953999e+002,4.391418e+000
7.963641e+002,3.428650e+000
7.973284e+002,3.560730e+000
7.982926e+002,4.872864e+000
7.992568e+002,5.857788e+000
8.002211e+002,6.151611e+000
8.011853e+002,5.468079e+000
8.021495e+002,3.412231e+000
8.031138e+002,1.090454e+000
8.040780e+002,1.226074e+000
8.050422e+002,5.813599e+000
8.060065e+002,9.436584e+000
8.069707e+002,9.652893e+000
8.079349e+002,8.242981e+000
8.088992e+002,7.020447e+000
8.098634e+002,6.796875e+000
8.108276e+002,7.043579e+000
8.117919e+002,6.737061e+000
8.127561e+002,5.613342e+000
8.137203e+002,4.195923e+000
8.146846e+002,2.894409e+000
8.156488e+002,1.865723e+000
8.166130e+002,1.021790e+000
8.175773e+002,1.629028e-001
8.185415e+002,1.771851e-001
8.195057e+002,5.123291e-001
8.204700e+002,1.552612e+000
8.214342e+002,4.076233e+000
8.223984e+002,7.421265e+000
8.233627e+002,9.845642e+000
8.243269e+002,1.055670e+001
8.252911e+002,1.091345e+001
8.262554e+002,1.202521e+001
8.272196e+002,1.308063e+001
8.281838e+002,1.261603e+001
8.291481e+002,1.045123e+001
8.301123e+002,8.511414e+000
8.310765e+002,1.074841e+001
8.320408e+002,1.654034e+001
8.330050e+002,1.913452e+001
8.339692e+002,1.783868e+001
8.349335e+002,1.467865e+001
8.358977e+002,1.109796e+001
8.368619e+002,6.881470e+000
8.378262e+002,5.245789e+000
8.387904e+002,8.623657e+000
8.397546e+002,1.133197e+001
8.407189e+002,1.158044e+001
8.416831e+002,1.037701e+001
8.426473e+002,9.535889e+000
8.436116e+002,9.815125e+000
8.445758e+002,1.107581e+001
8.455400e+002,1.364471e+001
8.465043e+002,1.609894e+001
8.474685e+002,1.727716e+001
8.484327e+002,1.708179e+001
8.493970e+002,1.588574e+001
8.503612e+002,1.375293e+001
8.513254e+002,1.009143e+001
8.522897e+002,9.704041e+000
8.532539e+002,1.496527e+001
8.542181e+002,1.958636e+001
8.551824e+002,1.969409e+001
8.561466e+002,1.616119e+001
8.571108e+002,1.353168e+001
8.580751e+002,1.105194e+001
8.590393e+002,1.042810e+001
8.600035e+002,1.411505e+001
8.609678e+002,1.940302e+001
8.619320e+002,2.321930e+001
8.628962e+002,2.429034e+001
8.638605e+002,2.409503e+001
8.648247e+002,2.508905e+001
8.657889e+002,2.629828e+001
8.667532e+002,2.520660e+001
8.677174e+002,2.150385e+001
8.686816e+002,1.784637e+001
8.696459e+002,1.757074e+001
8.706101e+002,2.148694e+001
8.715743e+002,2.404706e+001
8.725386e+002,2.383990e+001
8.735028e+002,2.427484e+001
8.744670e+002,2.694128e+001
8.754313e+002,3.018652e+001
8.763955e+002,3.079041e+001
8.773597e+002,2.704437e+001
8.783240e+002,2.358459e+001
8.792882e+002,2.393097e+001
8.802524e+002,2.563855e+001
8.812167e+002,2.700104e+001
8.821809e+002,2.749762e+001
8.831451e+002,2.739435e+001
8.841094e+002,2.705042e+001
8.850736e+002,2.672333e+001
8.860378e+002,2.684680e+001
8.870021e+002,2.722058e+001
8.879663e+002,2.789752e+001
8.889305e+002,2.879132e+001
8.898948e+002,2.981641e+001
8.908590e+002,3.107397e+001
8.918232e+002,3.311658e+001
8.927875e+002,3.505487e+001
8.937517e+002,3.697260e+001
8.947159e+002,3.856506e+001
8.956802e+002,3.909229e+001
8.966444e+002,3.842059e+001
8.976086e+002,3.758490e+001
8.985729e+002,3.819006e+001
8.995371e+002,3.946295e+001
9.005013e+002,3.943488e+001
9.014656e+002,3.848846e+001
9.024298e+002,3.795660e+001
9.033940e+002,3.863464e+001
9.043583e+002,4.020538e+001
9.053225e+002,4.217151e+001
9.062867e+002,4.595508e+001
9.072510e+002,4.762506e+001
9.082152e+002,4.661450e+001
9.091794e+002,4.448535e+001
9.101437e+002,4.192712e+001
9.111079e+002,3.898010e+001
9.120721e+002,3.798602e+001
9.130364e+002,4.283826e+001
9.140006e+002,4.736407e+001
9.149648e+002,4.805219e+001
9.159291e+002,4.593066e+001
9.168933e+002,4.312714e+001
9.178575e+002,4.102850e+001
9.188218e+002,3.956940e+001
9.197860e+002,3.934851e+001
9.207502e+002,4.023029e+001
9.217145e+002,4.106543e+001
9.226787e+002,4.236365e+001
9.236429e+002,4.362640e+001
9.246072e+002,4.381927e+001
9.255714e+002,4.257056e+001
9.265356e+002,4.088538e+001
9.274999e+002,3.830579e+001
9.284641e+002,3.571741e+001
9.294283e+002,3.329236e+001
9.303926e+002,3.135535e+001
9.313568e+002,3.049200e+001
9.323210e+002,3.105835e+001
9.332853e+002,3.180438e+001
9.342495e+002,3.029620e+001
9.352137e+002,2.761432e+001
9.361780e+002,2.542871e+001
9.371422e+002,2.436292e+001
9.381064e+002,2.459515e+001
9.390707e+002,2.621765e+001
9.400349e+002,2.923541e+001
9.409991e+002,3.130084e+001
9.419634e+002,3.111584e+001
9.429276e+002,3.159473e+001
9.438918e+002,3.474316e+001
9.448561e+002,3.876740e+001
9.458203e+002,4.040759e+001
9.467845e+002,3.849658e+001
9.477488e+002,3.614392e+001
9.487130e+002,3.497095e+001
9.496772e+002,3.468945e+001
9.506415e+002,3.567059e+001
9.516057e+002,3.751373e+001
9.525699e+002,3.901715e+001
9.535342e+002,3.895642e+001
9.544984e+002,3.742120e+001
9.554626e+002,3.622443e+001
9.564269e+002,3.570392e+001
9.573911e+002,3.592346e+001
9.583553e+002,3.680927e+001
9.593196e+002,3.828741e+001
9.602838e+002,4.042010e+001
9.612480e+002,4.332617e+001
9.622123e+002,4.592010e+001
9.631765e+002,4.950281e+001
9.641407e+002,5.140283e+001
9.651050e+002,4.900403e+001
9.660692e+002,4.379279e+001
9.670334e+002,3.887463e+001
9.679977e+002,3.632410e+001
9.689619e+002,3.600720e+001
9.699261e+002,3.833972e+001
9.708904e+002,4.202979e+001
9.718546e+002,4.375616e+001
9.728188e+002,4.234161e+001
9.737831e+002,4.004138e+001
9.747473e+002,4.024182e+001
9.757115e+002,4.376953e+001
9.766758e+002,4.591681e+001
9.776400e+002,4.574872e+001
9.786042e+002,4.587390e+001
9.795685e+002,4.761249e+001
9.805327e+002,4.922284e+001
9.814969e+002,4.816705e+001
9.824612e+002,4.379181e+001
9.834254e+002,3.927277e+001
9.843896e+002,3.732770e+001
9.853539e+002,3.662439e+001
9.863181e+002,3.568518e+001
9.872823e+002,3.444501e+001
9.882466e+002,3.423297e+001
9.892108e+002,3.657208e+001
9.901750e+002,4.134662e+001
9.911393e+002,4.425586e+001
9.921035e+002,4.192834e+001
9.930677e+002,4.134497e+001
9.940320e+002,4.322913e+001
9.949962e+002,4.723053e+001
9.959604e+002,5.413434e+001
9.969247e+002,6.375507e+001
9.978889e+002,7.172021e+001
9.988531e+002,7.459741e+001
9.998174e+002,7.573035e+001
1.000782e+003,7.748810e+001
1.001746e+003,7.949860e+001
1.002710e+003,8.068176e+001
1.003674e+003,8.062323e+001
1.004639e+003,8.017004e+001
1.005603e+003,8.091516e+001
1.006567e+003,8.287561e+001
1.007531e+003,8.387482e+001
1.008495e+003,8.384344e+001
1.009460e+003,8.322284e+001
1.010424e+003,8.184210e+001
1.011388e+003,8.014923e+001
1.012352e+003,7.996655e+001
1.013317e+003,8.290887e+001
1.014281e+003,8.394183e+001
1.015245e+003,8.129846e+001
1.016209e+003,7.660175e+001
1.017174e+003,7.012250e+001
1.018138e+003,6.279749e+001
1.019102e+003,5.644263e+001
1.020066e+003,5.271924e+001
1.021031e+003,5.087335e+001
1.021995e+003,4.783423e+001
1.022959e+003,4.362628e+001
1.023923e+003,4.051428e+001
1.024887e+003,3.953094e+001
1.025852e+003,3.930859e+001
1.026816e+003,3.780267e+001
1.027780e+003,3.501471e+001
1.028744e+003,3.219580e+001
1.029709e+003,2.833539e+001
1.030673e+003,2.558228e+001
1.031637e+003,2.513531e+001
1.032601e+003,2.575885e+001
1.033566e+003,2.610199e+001
1.034530e+003,2.574536e+001
1.035494e+003,2.459296e+001
1.036458e+003,2.153577e+001
1.037422e+003,1.796106e+001
1.038387e+003,1.634290e+001
1.039351e+003,1.659772e+001
1.040315e+003,1.765302e+001
1.041279e+003,1.890460e+001
1.042244e+003,2.045074e+001
1.043208e+003,2.215424e+001
1.044172e+003,2.429437e+001
1.045136e+003,2.531360e+001
1.046101e+003,2.458496e+001
1.047065e+003,2.372656e+001
1.048029e+003,2.380872e+001
1.048993e+003,2.455768e+001
1.049958e+003,2.487482e+001
1.050922e+003,2.424957e+001
1.051886e+003,2.364001e+001
1.052850e+003,2.434161e+001
1.053814e+003,2.538055e+001
1.054779e+003,2.543878e+001
1.055743e+003,2.420380e+001
1.056707e+003,2.218750e+001
1.057671e+003,1.994525e+001
1.058636e+003,1.740454e+001
1.059600e+003,1.610681e+001
1.060564e+003,1.714893e+001
1.061528e+003,1.858685e+001
1.062493e+003,1.962720e+001
1.063457e+003,2.068152e+001
1.064421e+003,2.304657e+001
1.065385e+003,2.690601e+001
1.066349e+003,2.910510e+001
1.067314e+003,2.686572e+001
1.068278e+003,2.383337e+001
1.069242e+003,2.257172e+001
1.070206e+003,2.252216e+001
1.071171e+003,2.232562e+001
1.072135e+003,2.137256e+001
1.073099e+003,2.058093e+001
1.074063e+003,2.191571e+001
1.075028e+003,2.588013e+001
1.075992e+003,2.665149e+001
1.076956e+003,2.188391e+001
1.077920e+003,1.789008e+001
1.078885e+003,1.807855e+001
1.079849e+003,2.059332e+001
1.080813e+003,2.184668e+001
1.081777e+003,2.128296e+001
1.082741e+003,2.025299e+001
1.083706e+003,1.754132e+001
1.084670e+003,1.553540e+001
1.085634e+003,1.652826e+001
1.086598e+003,1.915808e+001
1.087563e+003,2.063837e+001
1.088527e+003,1.964172e+001
1.089491e+003,1.788123e+001
1.090455e+003,1.843976e+001
1.091420e+003,2.138251e+001
1.092384e+003,2.178650e+001
1.093348e+003,1.769031e+001
1.094312e+003,1.417047e+001
1.095276e+003,1.520111e+001
1.096241e+003,1.942749e+001
1.097205e+003,2.197107e+001
1.098169e+003,2.137946e+001
1.099133e+003,2.096509e+001
1.100098e+003,2.212958e+001
1.101062e+003,2.399286e+001
1.102026e+003,2.685754e+001
1.102990e+003,2.992126e+001
1.103955e+003,3.155762e+001
1.104919e+003,3.073749e+001
1.105883e+003,2.827167e+001
1.106847e+003,2.572290e+001
1.107812e+003,2.313428e+001
1.108776e+003,2.247699e+001
1.109740e+003,2.461584e+001
1.110704e+003,2.707404e+001
1.111668e+003,2.840021e+001
1.112633e+003,2.898248e+001
1.113597e+003,2.950940e+001
1.114561e+003,2.961877e+001
1.115525e+003,3.000690e+001
1.116490e+003,3.068146e+001
1.117454e+003,3.173651e+001
1.118418e+003,3.369147e+001
1.119382e+003,3.643530e+001
1.120347e+003,3.951025e+001
1.121311e+003,4.236993e+001
1.122275e+003,4.414868e+001
1.123239e+003,4.348267e+001
1.124203e+003,4.108350e+001
1.125168e+003,4.049310e+001
1.126132e+003,4.231763e+001
1.127096e+003,4.533569e+001
1.128060e+003,4.870978e+001
1.129025e+003,5.228571e+001
1.129989e+003,5.606787e+001
1.130953e+003,6.075885e+001
1.131917e+003,6.355890e+001
1.132882e+003,6.250586e+001
1.133846e+003,6.113306e+001
1.134810e+003,6.087793e+001
1.135774e+003,6.227704e+001
1.136739e+003,6.609528e+001
1.137703e+003,7.266016e+001
1.138667e+003,7.993280e+001
1.139631e+003,8.386719e+001
1.140595e+003,8.506488e+001
1.141560e+003,8.965924e+001
1.142524e+003,9.869696e+001
1.143488e+003,1.093578e+002
1.144452e+003,1.193072e+002
1.145417e+003,1.292216e+002
1.146381e+003,1.414292e+002
1.147345e+003,1.556886e+002
1.148309e+003,1.730285e+002
1.149274e+003,1.963401e+002
1.150238e+003,2.201609e+002
1.151202e+003,2.433690e+002
1.152166e+003,2.649576e+002
1.153130e+003,2.838830e+002
1.154095e+003,2.992747e+002
1.155059e+003,3.103575e+002
1.156023e+003,3.168422e+002
1.156987e+003,3.182729e+002
1.157952e+003,3.132727e+002
1.158916e+003,3.017090e+002
1.159880e+003,2.887532e+002
1.160844e+003,2.768411e+002
1.161809e+003,2.642000e+002
1.162773e+003,2.474728e+002
1.163737e+003,2.256747e+002
1.164701e+003,2.043477e+002
1.165666e+003,1.833571e+002
1.166630e+003,1.653134e+002
1.167594e+003,1.514078e+002
1.168558e+003,1.409005e+002
1.169522e+003,1.330033e+002
1.170487e+003,1.273287e+002
1.171451e+003,1.239869e+002
1.172415e+003,1.232601e+002
1.173379e+003,1.245583e+002
1.174344e+003,1.255915e+002
1.175308e+003,1.266580e+002
1.176272e+003,1.262567e+002
1.177236e+003,1.234107e+002
1.178201e+003,1.194772e+002
1.179165e+003,1.159086e+002
1.180129e+003,1.124471e+002
1.181093e+003,1.084861e+002
1.182057e+003,1.036285e+002
1.183022e+003,9.903699e+001
1.183986e+003,9.446936e+001
1.184950e+003,9.082489e+001
1.185914e+003,8.918146e+001
1.186879e+003,8.953046e+001
1.187843e+003,9.115497e+001
1.188807e+003,9.340619e+001
1.189771e+003,9.579315e+001
1.190736e+003,9.731616e+001
1.191700e+003,9.792670e+001
1.192664e+003,9.743896e+001
1.193628e+003,9.540546e+001
1.194593e+003,9.326068e+001
1.195557e+003,9.197516e+001
1.196521e+003,9.128119e+001
1.197485e+003,9.061456e+001
1.198449e+003,9.032959e+001
1.199414e+003,8.886914e+001
1.200378e+003,8.493011e+001
1.201342e+003,8.020648e+001
1.202306e+003,7.513116e+001
1.203271e+003,6.999585e+001
1.204235e+003,6.495044e+001
1.205199e+003,6.025177e+001
1.206163e+003,5.667114e+001
1.207128e+003,5.564191e+001
1.208092e+003,5.740979e+001
1.209056e+003,5.663293e+001
1.210020e+003,5.273792e+001
1.210984e+003,4.809863e+001
1.211949e+003,4.199066e+001
1.212913e+003,3.620172e+001
1.213877e+003,3.399634e+001
1.214841e+003,3.548553e+001
1.215806e+003,3.548492e+001
1.216770e+003,3.120630e+001
1.217734e+003,2.597357e+001
1.218698e+003,2.130316e+001
1.219663e+003,1.736267e+001
1.220627e+003,1.466809e+001
1.221591e+003,1.312231e+001
1.222555e+003,1.193378e+001
1.223520e+003,1.043481e+001
1.224484e+003,8.781494e+000
1.225448e+003,7.056213e+000
1.226412e+003,4.130737e+000
1.227376e+003,3.851563e+000
1.228341e+003,8.838257e+000
1.229305e+003,1.321490e+001
1.230269e+003,1.355444e+001
1.231233e+003,1.105090e+001
1.232198e+003,7.937012e+000
1.233162e+003,4.800476e+000
1.234126e+003,3.324951e+000
1.235090e+003,5.983093e+000
1.236055e+003,9.294739e+000
1.237019e+003,9.315063e+000
1.237983e+003,6.852417e+000
1.238947e+003,4.303589e+000
1.239911e+003,2.843811e+000
1.240876e+003,2.649414e+000
1.241840e+003,4.005859e+000
1.242804e+003,7.049744e+000
1.243768e+003,9.405701e+000
1.244733e+003,1.080487e+001
1.245697e+003,1.180078e+001
1.246661e+003,1.207819e+001
1.247625e+003,1.170575e+001
1.248590e+003,1.035840e+001
1.249554e+003,8.806335e+000
1.250518e+003,8.803345e+000
1.251482e+003,1.108301e+001
1.252447e+003,1.370081e+001
1.253411e+003,1.468695e+001
1.254375e+003,1.462402e+001
1.255339e+003,1.397620e+001
1.256303e+003,1.302649e+001
1.257268e+003,1.387140e+001
1.258232e+003,1.826184e+001
1.259196e+003,2.362543e+001
1.260160e+003,2.449304e+001
1.261125e+003,1.994446e+001
1.262089e+003,1.836890e+001
1.263053e+003,2.205426e+001
1.264017e+003,2.658704e+001
1.264982e+003,3.311395e+001
1.265946e+003,3.866968e+001
1.266910e+003,4.005792e+001
1.267874e+003,3.769196e+001
1.268839e+003,3.452264e+001
1.269803e+003,3.251923e+001
1.270767e+003,3.082184e+001
1.271731e+003,2.746533e+001
1.272695e+003,2.275427e+001
1.273660e+003,2.026385e+001
1.274624e+003,2.027264e+001
1.275588e+003,2.066028e+001
1.276552e+003,2.088037e+001
1.277517e+003,2.102765e+001
1.278481e+003,2.107050e+001
1.279445e+003,2.096484e+001
1.280409e+003,1.985382e+001
1.281374e+003,1.638806e+001
1.282338e+003,1.341583e+001
1.283302e+003,1.228778e+001
1.284266e+003,1.238745e+001
1.285230e+003,1.375366e+001
1.286195e+003,1.568304e+001
1.287159e+003,1.618079e+001
1.288123e+003,1.371350e+001
1.289087e+003,9.784851e+000
1.290052e+003,8.525940e+000
1.291016e+003,1.105731e+001
1.291980e+003,1.126483e+001
1.292944e+003,6.821594e+000
1.293909e+003,2.748169e+000
1.294873e+003,1.558594e+000
1.295837e+003,1.983215e+000
1.296801e+003,2.404602e+000
1.297766e+003,2.504944e+000
1.298730e+003,1.758423e+000
1.299694e+003,-1.216919e+000
1.300658e+003,-3.499695e+000
1.301622e+003,-1.676636e-001
1.302587e+003,5.553650e+000
1.303551e+003,8.033936e+000
1.304515e+003,6.608521e+000
1.305479e+003,5.032410e+000
1.306444e+003,6.279907e+000
1.307408e+003,9.221375e+000
1.308372e+003,1.026086e+001
1.309336e+003,8.337219e+000
1.310301e+003,7.723938e+000
1.311265e+003,1.120874e+001
1.312229e+003,1.315253e+001
1.313193e+003,1.028027e+001
1.314157e+003,5.997192e+000
1.315122e+003,3.889099e+000
1.316086e+003,4.232910e+000
1.317050e+003,5.122742e+000
1.318014e+003,5.469360e+000
1.318979e+003,5.701904e+000
1.319943e+003,6.393433e+000
1.320907e+003,7.638000e+000
1.321871e+003,9.039001e+000
1.322836e+003,1.035474e+001
1.323800e+003,1.121320e+001
1.324764e+003,1.118921e+001
1.325728e+003,1.082196e+001
1.326693e+003,1.114014e+001
1.327657e+003,1.203174e+001
1.328621e+003,1.172614e+001
1.329585e+003,9.592651e+000
1.330549e+003,8.180481e+000
1.331514e+003,8.244019e+000
1.332478e+003,8.679810e+000
1.333442e+003,8.967529e+000
1.334406e+003,9.009155e+000
1.335371e+003,8.524658e+000
1.336335e+003,7.371338e+000
1.337299e+003,6.119690e+000
1.338263e+003,5.765320e+000
1.339228e+003,6.406128e+000
1.340192e+003,7.166992e+000
1.341156e+003,8.388855e+000
1.342120e+003,9.202942e+000
1.343084e+003,8.911316e+000
1.344049e+003,8.144897e+000
1.345013e+003,7.433594e+000
1.345977e+003,7.121399e+000
1.346941e+003,7.776367e+000
1.347906e+003,9.654663e+000
1.348870e+003,1.125873e+001
1.349834e+003,1.089264e+001
1.350798e+003,9.310120e+000
1.351763e+003,8.210815e+000
1.352727e+003,7.666382e+000
1.353691e+003,7.534119e+000
1.354655e+003,7.798706e+000
1.355620e+003,8.467102e+000
1.356584e+003,1.003918e+001
1.357548e+003,1.237262e+001
1.358512e+003,1.316901e+001
1.359476e+003,1.157062e+001
1.360441e+003,9.404480e+000
1.361405e+003,6.776062e+000
1.362369e+003,4.419861e+000
1.363333e+003,2.758667e+000
1.364298e+003,1.588379e+000
1.365262e+003,4.721069e-001
1.366226e+003,-5.952148e-001
1.367190e+003,-1.059814e+000
1.368155e+003,-4.232788e-001
1.369119e+003,1.083740e+000
1.370083e+003,2.875305e+000
1.371047e+003,5.425903e+000
1.372011e+003,6.723938e+000
1.372976e+003,4.908447e+000
1.373940e+003,3.697876e+000
1.374904e+003,5.745239e+000
1.375868e+003,8.570862e+000
1.376833e+003,8.685547e+000
1.377797e+003,6.015930e+000
1.378761e+003,2.926392e+000
1.379725e+003,6.372070e-002
1.380690e+003,-1.538147e+000
1.381654e+003,2.370605e-001
1.382618e+003,3.592346e+000
1.383582e+003,5.993713e+000
1.384547e+003,7.413635e+000
1.385511e+003,9.375977e+000
1.386475e+003,1.289008e+001
1.387439e+003,1.590399e+001
1.388403e+003,1.465857e+001
1.389368e+003,9.140991e+000
1.390332e+003,5.507019e+000
1.391296e+003,4.616821e+000
1.392260e+003,4.691101e+000
1.393225e+003,5.752197e+000
1.394189e+003,6.925049e+000
1.395153e+003,7.687622e+000
1.396117e+003,8.263672e+000
1.397082e+003,9.286865e+000
1.398046e+003,1.083038e+001
1.399010e+003,1.211932e+001
1.399974e+003,1.225360e+001
1.400938e+003,1.117432e+001
1.401903e+003,9.601379e+000
1.402867e+003,8.076538e+000
1.403831e+003,7.512634e+000
1.404795e+003,7.270996e+000
1.405760e+003,8.005615e+000
1.406724e+003,1.084656e+001
1.407688e+003,1.314490e+001
1.408652e+003,1.136615e+001
1.409617e+003,6.595520e+000
1.410581e+003,4.477722e+000
1.411545e+003,7.759705e+000
1.412509e+003,1.121942e+001
1.413474e+003,8.408875e+000
1.414438e+003,2.964722e+000
1.415402e+003,1.749146e+000
1.416366e+003,4.583801e+000
1.417330e+003,7.903687e+000
1.418295e+003,1.049701e+001
1.419259e+003,1.252234e+001
1.420223e+003,1.411493e+001
1.421187e+003,1.500122e+001
1.422152e+003,1.432623e+001
1.423116e+003,1.155536e+001
1.424080e+003,1.011438e+001
1.425044e+003,1.195459e+001
1.426009e+003,1.361371e+001
1.426973e+003,1.340125e+001
1.427937e+003,1.234766e+001
1.428901e+003,1.164746e+001
1.429865e+003,1.171265e+001
1.430830e+003,1.246106e+001
1.431794e+003,1.369049e+001
1.432758e+003,1.522430e+001
1.433722e+003,1.712817e+001
1.434687e+003,1.990588e+001
1.435651e+003,2.258691e+001
1.436615e+003,2.388782e+001
1.437579e+003,2.491187e+001
1.438544e+003,2.618146e+001
1.439508e+003,2.703333e+001
1.440472e+003,2.722961e+001
1.441436e+003,2.700708e+001
1.442401e+003,2.654437e+001
1.443365e+003,2.580170e+001
1.444329e+003,2.458459e+001
1.445293e+003,2.257806e+001
1.446257e+003,2.092035e+001
1.447222e+003,2.250671e+001
1.448186e+003,2.639984e+001
1.449150e+003,2.725397e+001
1.450114e+003,2.376483e+001
1.451079e+003,2.029437e+001
1.452043e+003,1.989038e+001
1.453007e+003,2.057593e+001
1.453971e+003,1.876300e+001
1.454936e+003,1.485083e+001
1.455900e+003,1.333020e+001
1.456864e+003,1.584290e+001
1.457828e+003,1.889752e+001
1.458792e+003,2.075079e+001
1.459757e+003,2.167078e+001
1.460721e+003,2.168640e+001
1.461685e+003,2.099915e+001
1.462649e+003,1.974762e+001
1.463614e+003,1.823834e+001
1.464578e+003,1.770099e+001
1.465542e+003,1.939215e+001
1.466506e+003,2.208289e+001
1.467471e+003,2.218494e+001
1.468435e+003,1.923724e+001
1.469399e+003,1.788538e+001
1.470363e+003,1.925824e+001
1.471328e+003,2.023260e+001
1.472292e+003,1.943866e+001
1.473256e+003,1.807635e+001
1.474220e+003,1.714435e+001
1.475184e+003,1.699860e+001
1.476149e+003,1.787976e+001
1.477113e+003,1.946643e+001
1.478077e+003,2.061157e+001
1.479041e+003,2.040747e+001
1.480006e+003,1.965692e+001
1.480970e+003,2.044781e+001
1.481934e+003,2.310034e+001
1.482898e+003,2.448755e+001
1.483863e+003,2.312598e+001
1.484827e+003,2.257526e+001
1.485791e+003,2.402698e+001
1.486755e+003,2.696643e+001
1.487719e+003,3.176123e+001
1.488684e+003,3.714874e+001
1.489648e+003,4.034058e+001
1.490612e+003,4.065259e+001
1.491576e+003,4.029126e+001
1.492541e+003,4.067023e+001
1.493505e+003,4.177594e+001
1.494469e+003,4.362451e+001
1.495433e+003,4.590271e+001
1.496398e+003,4.927502e+001
1.497362e+003,5.467316e+001
1.498326e+003,6.014514e+001
1.499290e+003,6.428394e+001
1.500255e+003,6.808655e+001
1.501219e+003,7.228174e+001
1.502183e+003,7.706042e+001
1.503147e+003,8.378418e+001
1.504111e+003,9.284540e+001
1.505076e+003,1.034376e+002
1.506040e+003,1.163985e+002
1.507004e+003,1.294648e+002
1.507968e+003,1.383589e+002
1.508933e+003,1.462708e+002
1.509897e+003,1.602432e+002
1.510861e+003,1.819063e+002
1.511825e+003,2.067372e+002
1.512790e+003,2.316533e+002
1.513754e+003,2.566743e+002
1.514718e+003,2.825688e+002
1.515682e+003,3.089896e+002
1.516646e+003,3.346601e+002
1.517611e+003,3.604983e+002
1.518575e+003,3.840483e+002
1.519539e+003,4.055322e+002
1.520503e+003,4.241909e+002
1.521468e+003,4.407601e+002
1.522432e+003,4.532853e+002
1.523396e+003,4.593989e+002
1.524360e+003,4.586842e+002
1.525325e+003,4.517656e+002
1.526289e+003,4.391608e+002
1.527253e+003,4.228148e+002
1.528217e+003,4.061111e+002
1.529182e+003,3.893801e+002
1.530146e+003,3.686907e+002
1.531110e+003,3.433126e+002
1.532074e+003,3.143511e+002
1.533039e+003,2.785442e+002
1.534003e+003,2.421840e+002
1.534967e+003,2.071085e+002
1.535931e+003,1.749329e+002
1.536896e+003,1.464922e+002
1.537860e+003,1.223558e+002
1.538824e+003,1.034997e+002
1.539788e+003,9.006891e+001
1.540752e+003,7.974176e+001
1.541717e+003,6.963751e+001
1.542681e+003,6.036700e+001
1.543645e+003,5.466840e+001
1.544609e+003,5.529803e+001
1.545573e+003,5.334802e+001
1.546538e+003,4.479834e+001
1.547502e+003,3.809509e+001
1.548466e+003,3.848444e+001
1.549430e+003,4.119806e+001
1.550395e+003,4.101288e+001
1.551359e+003,3.825220e+001
1.552323e+003,3.597681e+001
1.553287e+003,3.530853e+001
1.554252e+003,3.515930e+001
1.555216e+003,3.474335e+001
1.556180e+003,3.358783e+001
1.557144e+003,3.001459e+001
1.558109e+003,2.407220e+001
1.559073e+003,2.117786e+001
1.560037e+003,2.255664e+001
1.561001e+003,2.358374e+001
1.561966e+003,2.245837e+001
1.562930e+003,2.149170e+001
1.563894e+003,2.352118e+001
1.564858e+003,2.684546e+001
1.565823e+003,2.695477e+001
1.566787e+003,2.313110e+001
1.567751e+003,1.947632e+001
1.568715e+003,1.844183e+001
1.569679e+003,1.845868e+001
1.570644e+003,1.744647e+001
1.571608e+003,1.561804e+001
1.572572e+003,1.397095e+001
1.573536e+003,1.271820e+001
1.574500e+003,1.278845e+001
1.575465e+003,1.484430e+001
1.576429e+003,1.749146e+001
1.577393e+003,2.010358e+001
1.578357e+003,2.209009e+001
1.579322e+003,2.200415e+001
1.580286e+003,2.008374e+001
1.581250e+003,1.929431e+001
1.582214e+003,2.077643e+001
1.583179e+003,2.259497e+001
1.584143e+003,2.326764e+001
1.585107e+003,2.323041e+001
1.586071e+003,2.404871e+001
1.587036e+003,2.534552e+001
1.588000e+003,2.413824e+001
1.588964e+003,1.929718e+001
1.589928e+003,1.599841e+001
1.590893e+003,1.891980e+001
1.591857e+003,2.420428e+001
1.592821e+003,2.610901e+001
1.593785e+003,2.516858e+001
1.594750e+003,2.392352e+001
1.595714e+003,2.232135e+001
1.596678e+003,2.175427e+001
1.597642e+003,2.297217e+001
1.598606e+003,2.523108e+001
1.599571e+003,2.906873e+001
1.600535e+003,3.304773e+001
1.601499e+003,3.477136e+001
1.602463e+003,3.447467e+001
1.603427e+003,3.464783e+001
1.604392e+003,3.641516e+001
1.605356e+003,3.821643e+001
1.606320e+003,3.843555e+001
1.607284e+003,3.751599e+001
1.608249e+003,3.692108e+001
1.609213e+003,3.671130e+001
1.610177e+003,3.457214e+001
1.611141e+003,2.882910e+001
1.612106e+003,2.440253e+001
1.613070e+003,2.479877e+001
1.614034e+003,2.633038e+001
1.614998e+003,2.697217e+001
1.615963e+003,2.669312e+001
1.616927e+003,2.516974e+001
1.617891e+003,2.256818e+001
1.618855e+003,2.013318e+001
1.619820e+003,1.832745e+001
1.620784e+003,1.747638e+001
1.621748e+003,1.954559e+001
1.622712e+003,2.412183e+001
1.623677e+003,2.548206e+001
1.624641e+003,2.294019e+001
1.625605e+003,2.129297e+001
1.626569e+003,2.152136e+001
1.627533e+003,2.125586e+001
1.628498e+003,1.885944e+001
1.629462e+003,1.662341e+001
1.630426e+003,1.685504e+001
1.631390e+003,1.855823e+001
1.632354e+003,1.932404e+001
1.633319e+003,1.860236e+001
1.634283e+003,1.783319e+001
1.635247e+003,1.808368e+001
1.636211e+003,1.869336e+001
1.637176e+003,1.866528e+001
1.638140e+003,1.815936e+001
1.639104e+003,1.747266e+001
1.640068e+003,1.632446e+001
1.641033e+003,1.549353e+001
1.641997e+003,1.481171e+001
1.642961e+003,1.535352e+001
1.643925e+003,1.897467e+001
1.644890e+003,2.283478e+001
1.645854e+003,2.390131e+001
1.646818e+003,2.271436e+001
1.647782e+003,2.105951e+001
1.648747e+003,1.960944e+001
1.649711e+003,1.918011e+001
1.650675e+003,2.091174e+001
1.651639e+003,2.364819e+001
1.652604e+003,2.444733e+001
1.653568e+003,2.323145e+001
1.654532e+003,2.245746e+001
1.655496e+003,2.249939e+001
1.656460e+003,2.212427e+001
1.657425e+003,2.127698e+001
1.658389e+003,1.976343e+001
1.659353e+003,1.669934e+001
1.660317e+003,1.350415e+001
1.661281e+003,1.144806e+001
1.662246e+003,1.054980e+001
1.663210e+003,1.082288e+001
1.664174e+003,1.231012e+001
1.665138e+003,1.387372e+001
1.666103e+003,1.438519e+001
1.667067e+003,1.424182e+001
1.668031e+003,1.471558e+001
1.668995e+003,1.575281e+001
1.669960e+003,1.519720e+001
1.670924e+003,1.237421e+001
1.671888e+003,1.055396e+001
1.672852e+003,1.082910e+001
1.673817e+003,1.190656e+001
1.674781e+003,1.391620e+001
1.675745e+003,1.550189e+001
1.676709e+003,1.451746e+001
1.677674e+003,1.176300e+001
1.678638e+003,1.004260e+001
1.679602e+003,1.023578e+001
1.680566e+003,1.087335e+001
1.681531e+003,1.111517e+001
1.682495e+003,1.113501e+001
1.683459e+003,1.112000e+001
1.684423e+003,1.076477e+001
1.685387e+003,8.722412e+000
1.686352e+003,4.563293e+000
1.687316e+003,2.121155e+000
1.688280e+003,2.796814e+000
1.689244e+003,5.098511e+000
1.690208e+003,1.000653e+001
1.691173e+003,1.436200e+001
1.692137e+003,1.384662e+001
1.693101e+003,1.003644e+001
1.694065e+003,7.830017e+000
1.695030e+003,8.206177e+000
1.695994e+003,8.154541e+000
1.696958e+003,4.932678e+000
1.697922e+003,1.765137e+000
1.698887e+003,4.020142e+000
1.699851e+003,9.485474e+000
1.700815e+003,1.071704e+001
1.701779e+003,7.022156e+000
1.702744e+003,3.130920e+000
1.703708e+003,4.606934e-001
1.704672e+003,-4.814453e-001
1.705636e+003,9.317627e-001
1.706601e+003,3.234070e+000
1.707565e+003,5.302490e+000
1.708529e+003,7.024231e+000
1.709493e+003,6.781860e+000
1.710458e+003,4.006042e+000
1.711422e+003,2.481262e+000
1.712386e+003,5.051514e+000
1.713350e+003,8.320496e+000
1.714314e+003,9.607483e+000
1.715279e+003,9.281616e+000
1.716243e+003,7.353088e+000
1.717207e+003,4.603821e+000
1.718171e+003,4.935852e+000
1.719135e+003,9.482971e+000
1.720100e+003,1.160840e+001
1.721064e+003,5.911621e+000
1.722028e+003,-1.952759e+000
1.722992e+003,-3.343811e+000
1.723957e+003,7.896118e-001
1.724921e+003,3.136108e+000
1.725885e+003,3.013733e+000
1.726849e+003,2.510925e+000
1.727814e+003,2.813293e+000
1.728778e+003,2.710815e+000
1.729742e+003,5.474854e-001
1.730706e+003,-1.446350e+000
1.731671e+003,-1.163452e+000
1.732635e+003,4.798584e-001
1.733599e+003,2.451233e+000
1.734563e+003,4.435425e+000
1.735528e+003,5.150391e+000
1.736492e+003,3.799072e+000
1.737456e+003,1.506470e+000
1.738420e+003,-4.671021e-001
1.739385e+003,-2.349426e+000
1.740349e+003,-4.122742e+000
1.741313e+003,-5.624329e+000
1.742277e+003,-6.714783e+000
1.743241e+003,-8.033508e+000
1.744206e+003,-7.537720e+000
1.745170e+003,-3.370911e+000
1.746134e+003,5.194702e-001
1.747098e+003,2.383240e+000
1.748063e+003,2.450012e+000
1.749027e+003,2.789307e-002
1.749991e+003,-3.470154e+000
1.750955e+003,-4.830994e+000
1.751919e+003,-3.259521e+000
1.752884e+003,-1.200989e+000
1.753848e+003,-6.786499e-001
1.754812e+003,-1.040894e+000
1.755776e+003,-7.454834e-001
1.756741e+003,4.232788e-001
1.757705e+003,1.048767e+000
1.758669e+003,6.240234e-001
1.759633e+003,4.406128e-001
1.760598e+003,6.781616e-001
1.761562e+003,6.355591e-001
1.762526e+003,4.000854e-001
1.763490e+003,7.281494e-002
1.764455e+003,-4.614868e-001
1.765419e+003,-8.674316e-001
1.766383e+003,-7.799072e-001
1.767347e+003,-3.451538e-001
1.768312e+003,6.408691e-002
1.769276e+003,1.932983e-001
1.770240e+003,1.184082e-001
1.771204e+003,3.417969e-001
1.772168e+003,8.804321e-001
1.773133e+003,1.389038e+000
1.774097e+003,1.750366e+000
1.775061e+003,3.916626e-001
1.776025e+003,-3.598633e+000
1.776990e+003,-5.708252e+000
1.777954e+003,-3.301758e+000
1.778918e+003,-2.111206e-001
1.779882e+003,1.138977e+000
1.780846e+003,7.810669e-001
1.781811e+003,-1.696106e+000
1.782775e+003,-5.356567e+000
1.783739e+003,-7.173706e+000
1.784703e+003,-6.485046e+000
1.785668e+003,-5.661316e+000
1.786632e+003,-5.856873e+000
1.787596e+003,-6.678589e+000
1.788560e+003,-8.474243e+000
1.789525e+003,-9.512268e+000
1.790489e+003,-6.409729e+000
1.791453e+003,-1.044434e+000
1.792417e+003,2.894897e-001
1.793382e+003,-3.242798e+000
1.794346e+003,-5.663940e+000
1.795310e+003,-3.763489e+000
1.796274e+003,-6.481323e-001
1.797239e+003,4.669800e-001
1.798203e+003,2.006836e-001
1.799167e+003,-8.260498e-001
1.800131e+003,-3.609070e+000
1.801095e+003,-4.594360e+000
1.802060e+003,-8.754883e-001
1.803024e+003,9.642944e-001
1.803988e+003,-1.934204e+000
1.804952e+003,-4.500671e+000
1.805917e+003,-3.765015e+000
1.806881e+003,-2.051636e+000
1.807845e+003,-1.941772e+000
1.808809e+003,-2.614136e+000
1.809773e+003,-1.581604e+000
1.810738e+003,1.305054e+000
1.811702e+003,3.602112e+000
1.812666e+003,3.755066e+000
1.813630e+003,2.632446e+000
1.814595e+003,1.231445e+000
1.815559e+003,-3.180542e-001
1.816523e+003,-1.162964e+000
1.817487e+003,-1.238892e+000
1.818452e+003,-3.327637e-001
1.819416e+003,2.483032e+000
1.820380e+003,4.442017e+000
1.821344e+003,4.578369e+000
1.822309e+003,3.387756e+000
1.823273e+003,-1.904297e-002
1.824237e+003,-3.204468e+000
1.825201e+003,-3.593201e+000
1.826166e+003,-1.965698e+000
1.827130e+003,-3.198242e-002
1.828094e+003,1.725830e+000
1.829058e+003,1.812805e+000
1.830022e+003,-1.243896e+000
1.830987e+003,-4.047791e+000
1.831951e+003,-3.420532e+000
1.832915e+003,-1.094788e+000
1.833879e+003,1.132385e+000
1.834844e+003,2.705872e+000
1.835808e+003,1.880127e+000
1.836772e+003,-1.216309e+000
1.837736e+003,-3.536133e+000
1.838700e+003,-3.894226e+000
1.839665e+003,-3.068298e+000
1.840629e+003,-1.317627e+000
1.841593e+003,4.070435e-001
1.842557e+003,-3.801880e-001
1.843522e+003,-3.641724e+000
1.844486e+003,-5.242188e+000
1.845450e+003,-4.118713e+000
1.846414e+003,-2.576477e+000
1.847379e+003,-1.243286e-001
1.848343e+003,1.086243e+000
1.849307e+003,3.353882e-001
1.850271e+003,-1.428467e+000
1.851236e+003,-5.000488e+000
1.852200e+003,-7.928711e+000
1.853164e+003,-6.097412e+000
1.854128e+003,-1.148987e+000
1.855093e+003,9.368896e-001
1.856057e+003,-1.570007e+000
1.857021e+003,-4.165161e+000
1.857985e+003,-3.126648e+000
1.858949e+003,-8.558960e-001
1.859914e+003,-1.879822e+000
1.860878e+003,-5.288208e+000
1.861842e+003,-6.230408e+000
1.862806e+003,-4.728210e+000
1.863771e+003,-2.904602e+000
1.864735e+003,-9.925537e-001
1.865699e+003,1.484985e-001
1.866663e+003,2.401733e-001
1.867627e+003,-2.249756e-001
1.868592e+003,-1.620850e+000
1.869556e+003,-3.323730e+000
1.870520e+003,-3.538635e+000
1.871484e+003,-2.501953e+000
1.872449e+003,-1.549805e+000
1.873413e+003,-7.550049e-002
1.874377e+003,1.813538e+000
1.875341e+003,4.007751e+000
1.876306e+003,5.275574e+000
1.877270e+003,4.303284e+000
1.878234e+003,2.500183e+000
1.879198e+003,1.001648e+000
1.880163e+003,1.171265e-001
1.881127e+003,2.771606e-001
1.882091e+003,1.369995e+000
1.883055e+003,2.872864e+000
1.884020e+003,4.440247e+000
1.884984e+003,5.551086e+000
1.885948e+003,5.752075e+000
1.886912e+003,5.269409e+000
1.887876e+003,4.624268e+000
1.888841e+003,3.798401e+000
1.889805e+003,1.981689e+000
1.890769e+003,-1.205139e+000
1.891733e+003,-3.399048e+000
1.892698e+003,-4.791260e+000
1.893662e+003,-4.665833e+000
1.894626e+003,-1.389465e+000
1.895590e+003,1.878174e+000
1.896554e+003,3.119690e+000
1.897519e+003,3.353088e+000
1.898483e+003,3.055054e+000
1.899447e+003,2.348938e+000
1.900411e+003,2.453979e+000
1.901376e+003,3.742188e+000
1.902340e+003,4.582520e+000
1.903304e+003,4.101501e+000
1.904268e+003,3.326477e+000
1.905233e+003,2.863220e+000
1.906197e+003,2.648560e+000
1.907161e+003,3.034241e+000
1.908125e+003,3.525574e+000
1.909090e+003,2.268250e+000
1.910054e+003,-1.556396e-001
1.911018e+003,-7.861328e-002
1.911982e+003,3.478638e+000
1.912947e+003,6.794250e+000
1.913911e+003,7.059265e+000
1.914875e+003,5.863708e+000
1.915839e+003,5.480286e+000
1.916803e+003,5.670288e+000
1.917768e+003,6.711548e+000
1.918732e+003,9.289185e+000
1.919696e+003,9.307190e+000
1.920660e+003,5.494263e+000
1.921625e+003,3.164185e+000
1.922589e+003,4.091370e+000
1.923553e+003,5.238647e+000
1.924517e+003,4.699707e+000
1.925481e+003,4.066467e+000
1.926446e+003,5.195374e+000
1.927410e+003,7.100342e+000
1.928374e+003,7.661865e+000
1.929338e+003,6.639465e+000
1.930303e+003,5.336792e+000
1.931267e+003,4.239624e+000
1.932231e+003,3.800598e+000
1.933195e+003,3.763611e+000
1.934160e+003,4.348022e+000
1.935124e+003,6.367004e+000
1.936088e+003,8.405029e+000
1.937052e+003,9.196411e+000
1.938017e+003,8.918457e+000
1.938981e+003,7.395874e+000
1.939945e+003,5.131714e+000
1.940909e+003,4.077087e+000
1.941874e+003,4.967651e+000
1.942838e+003,6.376770e+000
1.943802e+003,7.252136e+000
1.944766e+003,7.941467e+000
1.945730e+003,8.561096e+000
1.946695e+003,8.911316e+000
1.947659e+003,9.011780e+000
1.948623e+003,8.792664e+000
1.949587e+003,8.380127e+000
1.950552e+003,8.188049e+000
1.951516e+003,6.591675e+000
1.952480e+003,1.893860e+000
1.953444e+003,-1.902405e+000
1.954408e+003,-1.875488e+000
1.955373e+003,1.015015e-001
1.956337e+003,2.406555e+000
1.957301e+003,4.998962e+000
1.958265e+003,6.549316e+000
1.959230e+003,6.890991e+000
1.960194e+003,7.701721e+000
1.961158e+003,9.530396e+000
1.962122e+003,1.037500e+001
1.963087e+003,9.460876e+000
1.964051e+003,7.905212e+000
1.965015e+003,6.010803e+000
1.965979e+003,4.621338e+000
1.966944e+003,4.168030e+000
1.967908e+003,4.444275e+000
1.968872e+003,5.476746e+000
1.969836e+003,7.053101e+000
1.970801e+003,8.411560e+000
1.971765e+003,9.274597e+000
1.972729e+003,1.013452e+001
1.973693e+003,1.150916e+001
1.974657e+003,1.271680e+001
1.975622e+003,1.266907e+001
1.976586e+003,1.147577e+001
1.977550e+003,9.049377e+000
1.978514e+003,6.043518e+000
1.979479e+003,6.013062e+000
1.980443e+003,9.153564e+000
1.981407e+003,1.032751e+001
1.982371e+003,7.616028e+000
1.983335e+003,5.117493e+000
1.984300e+003,5.713562e+000
1.985264e+003,8.252747e+000
1.986228e+003,1.162622e+001
1.987192e+003,1.505035e+001
1.988157e+003,1.414948e+001
1.989121e+003,7.598755e+000
1.990085e+003,4.214661e+000
1.991049e+003,5.308838e+000
1.992014e+003,7.278198e+000
1.992978e+003,1.158118e+001
1.993942e+003,1.378986e+001
1.994906e+003,1.003522e+001
1.995871e+003,6.124756e+000
1.996835e+003,6.818237e+000
1.997799e+003,9.941101e+000
1.998763e+003,1.260413e+001
1.999728e+003,1.419397e+001
