5.003444e+002,2.018000e+002
5.013087e+002,1.993539e+002
5.022729e+002,1.988448e+002
5.032371e+002,1.996712e+002
5.042014e+002,1.972614e+002
5.051656e+002,1.922614e+002
5.061298e+002,1.869464e+002
5.070941e+002,1.832119e+002
5.080583e+002,1.810704e+002
5.090225e+002,1.786448e+002
5.099868e+002,1.759086e+002
5.109510e+002,1.729847e+002
5.119152e+002,1.696963e+002
5.128795e+002,1.660146e+002
5.138437e+002,1.633152e+002
5.148079e+002,1.633293e+002
5.157722e+002,1.635452e+002
5.167364e+002,1.626132e+002
5.177006e+002,1.603007e+002
5.186649e+002,1.575007e+002
5.196291e+002,1.560536e+002
5.205933e+002,1.554351e+002
5.215576e+002,1.539665e+002
5.225218e+002,1.511409e+002
5.234860e+002,1.475191e+002
5.244503e+002,1.447262e+002
5.254145e+002,1.439143e+002
5.263787e+002,1.426839e+002
5.273430e+002,1.407026e+002
5.283072e+002,1.385282e+002
5.292714e+002,1.367032e+002
5.302357e+002,1.344990e+002
5.311999e+002,1.324000e+002
5.321641e+002,1.318091e+002
5.331284e+002,1.316744e+002
5.340926e+002,1.309366e+002
5.350568e+002,1.288999e+002
5.360211e+002,1.257463e+002
5.369853e+002,1.213436e+002
5.379495e+002,1.173702e+002
5.389138e+002,1.154554e+002
5.398780e+002,1.159111e+002
5.408422e+002,1.174117e+002
5.418065e+002,1.162550e+002
5.427707e+002,1.128699e+002
5.437349e+002,1.102875e+002
5.446992e+002,1.093925e+002
5.456634e+002,1.095873e+002
5.466276e+002,1.089918e+002
5.475919e+002,1.082242e+002
5.485561e+002,1.059713e+002
5.495203e+002,1.009293e+002
5.504846e+002,9.435583e+001
5.514488e+002,8.788489e+001
5.524130e+002,8.151447e+001
5.533773e+002,7.781848e+001
5.543415e+002,7.955109e+001
5.553057e+002,8.313055e+001
5.562700e+002,8.443451e+001
5.572342e+002,8.089752e+001
5.581984e+002,7.521747e+001
5.591627e+002,7.522986e+001
5.601269e+002,7.894135e+001
5.610911e+002,8.166656e+001
5.620554e+002,8.083472e+001
5.630196e+002,7.656354e+001
5.639838e+002,7.170978e+001
5.649481e+002,6.454193e+001
5.659123e+002,5.933289e+001
5.668765e+002,5.838971e+001
5.678408e+002,6.072571e+001
5.688050e+002,6.267920e+001
5.697692e+002,6.232190e+001
5.707335e+002,6.119763e+001
5.716977e+002,5.982629e+001
5.726619e+002,5.845490e+001
5.736262e+002,5.740643e+001
5.745904e+002,5.705475e+001
5.755546e+002,5.695630e+001
5.765189e+002,5.540021e+001
5.774831e+002,5.286023e+001
5.784473e+002,5.106116e+001
5.794116e+002,5.139954e+001
5.803758e+002,5.392712e+001
5.813400e+002,5.462268e+001
5.823043e+002,5.280859e+001
5.832685e+002,4.963916e+001
5.842327e+002,4.530597e+001
5.851970e+002,4.041980e+001
5.861612e+002,3.667316e+001
5.871254e+002,3.266870e+001
5.880897e+002,3.120862e+001
5.890539e+002,3.422266e+001
5.900181e+002,3.958813e+001
5.909824e+002,4.443652e+001
5.919466e+002,4.782599e+001
5.929108e+002,4.842725e+001
5.938751e+002,4.399097e+001
5.948393e+002,3.702319e+001
5.958035e+002,3.154291e+001
5.967678e+002,3.051788e+001
5.977320e+002,3.340472e+001
5.986962e+002,3.433990e+001
5.996605e+002,3.282031e+001
6.006247e+002,3.091168e+001
6.015889e+002,2.947961e+001
6.025532e+002,2.856598e+001
6.035174e+002,2.777301e+001
6.044816e+002,2.699609e+001
6.054459e+002,2.669958e+001
6.064101e+002,2.763708e+001
6.073743e+002,2.893994e+001
6.083386e+002,2.895636e+001
6.093028e+002,2.621448e+001
6.102670e+002,2.362115e+001
6.112313e+002,2.352673e+001
6.121955e+002,2.472339e+001
6.131597e+002,2.551465e+001
6.141240e+002,2.474414e+001
6.150882e+002,2.297894e+001
6.160524e+002,2.348273e+001
6.170167e+002,2.608258e+001
6.179809e+002,2.803772e+001
6.189451e+002,2.750848e+001
6.199094e+002,2.469983e+001
6.208736e+002,2.312115e+001
6.218378e+002,2.598450e+001
6.228021e+002,2.742792e+001
6.237663e+002,2.626349e+001
6.247305e+002,2.371405e+001
6.256948e+002,2.144434e+001
6.266590e+002,1.943341e+001
6.276232e+002,1.808527e+001
6.285875e+002,1.799792e+001
6.295517e+002,1.896625e+001
6.305159e+002,2.129321e+001
6.314802e+002,2.479572e+001
6.324444e+002,2.781189e+001
6.334086e+002,2.456012e+001
6.343729e+002,1.763214e+001
6.353371e+002,1.305475e+001
6.363013e+002,1.306354e+001
6.372656e+002,1.629822e+001
6.382298e+002,1.839099e+001
6.391940e+002,2.010132e+001
6.401583e+002,1.866779e+001
6.411225e+002,1.212360e+001
6.420867e+002,4.488281e+000
6.430510e+002,3.244629e-001
6.440152e+002,1.194946e+000
6.449794e+002,2.477112e+000
6.459437e+002,1.127625e+000
6.469079e+002,-4.748535e-001
6.478721e+002,2.864990e-001
6.488364e+002,4.072998e+000
6.498006e+002,8.542480e+000
6.507648e+002,8.871155e+000
6.517291e+002,6.268433e+000
6.526933e+002,3.678955e+000
6.536575e+002,1.547974e+000
6.546218e+002,2.105713e-001
6.555860e+002,4.868774e-001
6.565502e+002,4.140991e+000
6.575145e+002,5.222900e+000
6.584787e+002,2.255249e+000
6.594429e+002,-1.647156e+000
6.604072e+002,-4.167969e+000
6.613714e+002,-4.923279e+000
6.623356e+002,-5.008728e+000
6.632999e+002,-4.708374e+000
6.642641e+002,-4.726257e+000
6.652283e+002,-5.138245e+000
6.661926e+002,-5.725769e+000
6.671568e+002,-6.269836e+000
6.681210e+002,-7.027344e+000
6.690853e+002,-7.610901e+000
6.700495e+002,-6.560242e+000
6.710137e+002,-3.904480e+000
6.719780e+002,-5.988159e-001
6.729422e+002,2.452820e+000
6.739064e+002,5.322876e+000
6.748707e+002,5.974976e+000
6.758349e+002,2.359192e+000
6.767991e+002,-6.625977e-001
6.777634e+002,3.283691e-002
6.787276e+002,4.198425e+000
6.796918e+002,7.540527e+000
6.806561e+002,6.831604e+000
6.816203e+002,5.847473e+000
6.825845e+002,6.436035e+000
6.835488e+002,7.740234e+000
6.845130e+002,8.003662e+000
6.854772e+002,5.846741e+000
6.864415e+002,3.190918e+000
6.874057e+002,4.195313e+000
6.883699e+002,7.102783e+000
6.893342e+002,8.507263e+000
6.902984e+002,6.535034e+000
6.912626e+002,1.953247e+000
6.922269e+002,-9.590454e-001
6.931911e+002,-6.201172e-002
6.941553e+002,1.016479e+000
6.951196e+002,1.365967e+000
6.960838e+002,1.127686e+000
6.970480e+002,7.261963e-001
6.980123e+002,3.173828e-002
6.989765e+002,5.426636e-001
6.999407e+002,3.749939e+000
7.009050e+002,7.310303e+000
7.018692e+002,9.396423e+000
7.028334e+002,9.317505e+000
7.037977e+002,7.736938e+000
7.047619e+002,5.405457e+000
7.057261e+002,3.048828e+000
7.066904e+002,1.369812e+000
7.076546e+002,4.635620e-001
7.086188e+002,1.604004e-001
7.095831e+002,2.055054e-001
7.105473e+002,3.947754e-001
7.115115e+002,8.486328e-001
7.124758e+002,1.840759e+000
7.134400e+002,2.478333e+000
7.144042e+002,2.341675e+000
7.153685e+002,1.604553e+000
7.163327e+002,9.144897e-001
7.172969e+002,3.627319e-001
7.182612e+002,2.421875e-001
7.192254e+002,6.805420e-001
7.201896e+002,1.409912e+000
7.211539e+002,2.132385e+000
7.221181e+002,2.711609e+000
7.230823e+002,2.983337e+000
7.240466e+002,2.042114e+000
7.250108e+002,6.877441e-001
7.259750e+002,1.137695e+000
7.269393e+002,4.693970e+000
7.279035e+002,1.017041e+001
7.288677e+002,1.176782e+001
7.298320e+002,6.362427e+000
7.307962e+002,2.762573e+000
7.317604e+002,1.394592e+000
7.327247e+002,2.306152e+000
7.336889e+002,5.924683e+000
7.346531e+002,1.289606e+001
7.356174e+002,1.763354e+001
7.365816e+002,1.812598e+001
7.375458e+002,1.657471e+001
7.385101e+002,1.360303e+001
7.394743e+002,9.918640e+000
7.404385e+002,6.731812e+000
7.414028e+002,5.976440e+000
7.423670e+002,6.240295e+000
7.433312e+002,5.088013e+000
7.442955e+002,2.932922e+000
7.452597e+002,1.375732e+000
7.462239e+002,1.929932e+000
7.471882e+002,4.849976e+000
7.481524e+002,7.942566e+000
7.491166e+002,1.157996e+001
7.500809e+002,1.362323e+001
7.510451e+002,1.240967e+001
7.520093e+002,8.817017e+000
7.529736e+002,6.022888e+000
7.539378e+002,6.581726e+000
7.549020e+002,7.905701e+000
7.558663e+002,8.118896e+000
7.568306e+002,7.825500e+000
7.577948e+002,7.856445e+000
7.587590e+002,8.532104e+000
7.597233e+002,9.155518e+000
7.606875e+002,8.279114e+000
7.616517e+002,6.475952e+000
7.626160e+002,5.849121e+000
7.635802e+002,7.295166e+000
7.645444e+002,1.004791e+001
7.655087e+002,1.240869e+001
7.664729e+002,1.404077e+001
7.674371e+002,1.563116e+001
7.684014e+002,1.729034e+001
7.693656e+002,1.878827e+001
7.703298e+002,1.992261e+001
7.712941e+002,2.079248e+001
7.722583e+002,2.194598e+001
7.732225e+002,2.423328e+001
7.741868e+002,2.645203e+001
7.751510e+002,2.699170e+001
7.761152e+002,2.665503e+001
7.770795e+002,2.762396e+001
7.780437e+002,3.179938e+001
7.790079e+002,3.834149e+001
7.799722e+002,4.094702e+001
7.809364e+002,3.982727e+001
7.819006e+002,3.717078e+001
7.828649e+002,3.286139e+001
7.838291e+002,2.806769e+001
7.847933e+002,2.615137e+001
7.857576e+002,2.898730e+001
7.867218e+002,3.028760e+001
7.876860e+002,2.878833e+001
7.886503e+002,2.658270e+001
7.896145e+002,2.520074e+001
7.905787e+002,2.509283e+001
7.915430e+002,2.570911e+001
7.925072e+002,2.546973e+001
7.934714e+002,2.559131e+001
7.944357e+002,2.929810e+001
7.953999e+002,3.622186e+001
7.963641e+002,4.256067e+001
7.973284e+002,4.375757e+001
7.982926e+002,3.940479e+001
7.992568e+002,3.755151e+001
8.002211e+002,3.865448e+001
8.011853e+002,3.862018e+001
8.021495e+002,3.554480e+001
8.031138e+002,3.132739e+001
8.040780e+002,3.092310e+001
8.050422e+002,3.747382e+001
8.060065e+002,4.276099e+001
8.069707e+002,4.317670e+001
8.079349e+002,4.124298e+001
8.088992e+002,3.924292e+001
8.098634e+002,3.836859e+001
8.108276e+002,3.880933e+001
8.117919e+002,4.130865e+001
8.127561e+002,4.391364e+001
8.137203e+002,4.407452e+001
8.146846e+002,4.203839e+001
8.156488e+002,3.948907e+001
8.166130e+002,3.813531e+001
8.175773e+002,3.806012e+001
8.185415e+002,3.781134e+001
8.195057e+002,3.604285e+001
8.204700e+002,3.484625e+001
8.214342e+002,3.549664e+001
8.223984e+002,3.728400e+001
8.233627e+002,3.813617e+001
8.243269e+002,3.674518e+001
8.252911e+002,3.603418e+001
8.262554e+002,3.772119e+001
8.272196e+002,4.060162e+001
8.281838e+002,4.384558e+001
8.291481e+002,4.686279e+001
8.301123e+002,4.911725e+001
8.310765e+002,4.964777e+001
8.320408e+002,4.818835e+001
8.330050e+002,4.504431e+001
8.339692e+002,3.965601e+001
8.349335e+002,3.477405e+001
8.358977e+002,3.392975e+001
8.368619e+002,3.812701e+001
8.378262e+002,4.091693e+001
8.387904e+002,4.072589e+001
8.397546e+002,3.991321e+001
8.407189e+002,3.817517e+001
8.416831e+002,3.649805e+001
8.426473e+002,3.644989e+001
8.436116e+002,3.894611e+001
8.445758e+002,4.266748e+001
8.455400e+002,4.614380e+001
8.465043e+002,4.895850e+001
8.474685e+002,5.145770e+001
8.484327e+002,5.396796e+001
8.493970e+002,5.613446e+001
8.503612e+002,5.668518e+001
8.513254e+002,5.499939e+001
8.522897e+002,5.442896e+001
8.532539e+002,5.491364e+001
8.542181e+002,5.577228e+001
8.551824e+002,5.705853e+001
8.561466e+002,5.926062e+001
8.571108e+002,6.261682e+001
8.580751e+002,6.696240e+001
8.590393e+002,7.034076e+001
8.600035e+002,7.252429e+001
8.609678e+002,7.411572e+001
8.619320e+002,7.571442e+001
8.628962e+002,7.748529e+001
8.638605e+002,7.890515e+001
8.648247e+002,7.824103e+001
8.657889e+002,7.699017e+001
8.667532e+002,7.939819e+001
8.677174e+002,8.599036e+001
8.686816e+002,9.294214e+001
8.696459e+002,9.563757e+001
8.706101e+002,9.334827e+001
8.715743e+002,9.422174e+001
8.725386e+002,1.011116e+002
8.735028e+002,1.073140e+002
8.744670e+002,1.102194e+002
8.754313e+002,1.108412e+002
8.763955e+002,1.118882e+002
8.773597e+002,1.148092e+002
8.783240e+002,1.171462e+002
8.792882e+002,1.148900e+002
8.802524e+002,1.122883e+002
8.812167e+002,1.143167e+002
8.821809e+002,1.210903e+002
8.831451e+002,1.281937e+002
8.841094e+002,1.298418e+002
8.850736e+002,1.266164e+002
8.860378e+002,1.263100e+002
8.870021e+002,1.292870e+002
8.879663e+002,1.323154e+002
8.889305e+002,1.329052e+002
8.898948e+002,1.315980e+002
8.908590e+002,1.321447e+002
8.918232e+002,1.369523e+002
8.927875e+002,1.408987e+002
8.937517e+002,1.422539e+002
8.947159e+002,1.429280e+002
8.956802e+002,1.438936e+002
8.966444e+002,1.453063e+002
8.976086e+002,1.473611e+002
8.985729e+002,1.515472e+002
8.995371e+002,1.563404e+002
9.005013e+002,1.579519e+002
9.014656e+002,1.572196e+002
9.024298e+002,1.576874e+002
9.033940e+002,1.619269e+002
9.043583e+002,1.688608e+002
9.053225e+002,1.729941e+002
9.062867e+002,1.702734e+002
9.072510e+002,1.691777e+002
9.082152e+002,1.720309e+002
9.091794e+002,1.762728e+002
9.101437e+002,1.796437e+002
9.111079e+002,1.817486e+002
9.120721e+002,1.822339e+002
9.130364e+002,1.783405e+002
9.140006e+002,1.739665e+002
9.149648e+002,1.721644e+002
9.159291e+002,1.723633e+002
9.168933e+002,1.720654e+002
9.178575e+002,1.693425e+002
9.188218e+002,1.653810e+002
9.197860e+002,1.658468e+002
9.207502e+002,1.706852e+002
9.217145e+002,1.730342e+002
9.226787e+002,1.714788e+002
9.236429e+002,1.682255e+002
9.246072e+002,1.658188e+002
9.255714e+002,1.642164e+002
9.265356e+002,1.615720e+002
9.274999e+002,1.560249e+002
9.284641e+002,1.506780e+002
9.294283e+002,1.469600e+002
9.303926e+002,1.444949e+002
9.313568e+002,1.421093e+002
9.323210e+002,1.391198e+002
9.332853e+002,1.363210e+002
9.342495e+002,1.354907e+002
9.352137e+002,1.355304e+002
9.361780e+002,1.353314e+002
9.371422e+002,1.349939e+002
9.381064e+002,1.349225e+002
9.390707e+002,1.352189e+002
9.400349e+002,1.354598e+002
9.409991e+002,1.354446e+002
9.419634e+002,1.352779e+002
9.429276e+002,1.345297e+002
9.438918e+002,1.323220e+002
9.448561e+002,1.298950e+002
9.458203e+002,1.297378e+002
9.467845e+002,1.331929e+002
9.477488e+002,1.363956e+002
9.487130e+002,1.360294e+002
9.496772e+002,1.342899e+002
9.506415e+002,1.323162e+002
9.516057e+002,1.305333e+002
9.525699e+002,1.293690e+002
9.535342e+002,1.292126e+002
9.544984e+002,1.295711e+002
9.554626e+002,1.272712e+002
9.564269e+002,1.221138e+002
9.573911e+002,1.189490e+002
9.583553e+002,1.203729e+002
9.593196e+002,1.236728e+002
9.602838e+002,1.241138e+002
9.612480e+002,1.204231e+002
9.622123e+002,1.178194e+002
9.631765e+002,1.196808e+002
9.641407e+002,1.214013e+002
9.651050e+002,1.206496e+002
9.660692e+002,1.177030e+002
9.670334e+002,1.135801e+002
9.679977e+002,1.090953e+002
9.689619e+002,1.057612e+002
9.699261e+002,1.066078e+002
9.708904e+002,1.102521e+002
9.718546e+002,1.143442e+002
9.728188e+002,1.180919e+002
9.737831e+002,1.225562e+002
9.747473e+002,1.299655e+002
9.757115e+002,1.414556e+002
9.766758e+002,1.505546e+002
9.776400e+002,1.588142e+002
9.786042e+002,1.635602e+002
9.795685e+002,1.634126e+002
9.805327e+002,1.589146e+002
9.814969e+002,1.500157e+002
9.824612e+002,1.369702e+002
9.834254e+002,1.244043e+002
9.843896e+002,1.161509e+002
9.853539e+002,1.105075e+002
9.863181e+002,1.064434e+002
9.872823e+002,1.033406e+002
9.882466e+002,1.004700e+002
9.892108e+002,9.765027e+001
9.901750e+002,9.564740e+001
9.911393e+002,9.563251e+001
9.921035e+002,9.767462e+001
9.930677e+002,9.916028e+001
9.940320e+002,9.988867e+001
9.949962e+002,1.010160e+002
9.959604e+002,1.039872e+002
9.969247e+002,1.088626e+002
9.978889e+002,1.131813e+002
9.988531e+002,1.142781e+002
9.998174e+002,1.150151e+002
1.000782e+003,1.187115e+002
1.001746e+003,1.234339e+002
1.002710e+003,1.256190e+002
1.003674e+003,1.239086e+002
1.004639e+003,1.208164e+002
1.005603e+003,1.210927e+002
1.006567e+003,1.249458e+002
1.007531e+003,1.244569e+002
1.008495e+003,1.181494e+002
1.009460e+003,1.109282e+002
1.010424e+003,1.052341e+002
1.011388e+003,1.011050e+002
1.012352e+003,9.849188e+001
1.013317e+003,9.778766e+001
1.014281e+003,9.733020e+001
1.015245e+003,9.687152e+001
1.016209e+003,9.576575e+001
1.017174e+003,9.388055e+001
1.018138e+003,9.109961e+001
1.019102e+003,8.706061e+001
1.020066e+003,8.141754e+001
1.021031e+003,7.512933e+001
1.021995e+003,6.963409e+001
1.022959e+003,6.451428e+001
1.023923e+003,6.127496e+001
1.024887e+003,6.091516e+001
1.025852e+003,6.157532e+001
1.026816e+003,6.044476e+001
1.027780e+003,5.746973e+001
1.028744e+003,5.458557e+001
1.029709e+003,5.082257e+001
1.030673e+003,4.826044e+001
1.031637e+003,4.846729e+001
1.032601e+003,4.960455e+001
1.033566e+003,4.924274e+001
1.034530e+003,4.666821e+001
1.035494e+003,4.341089e+001
1.036458e+003,4.017944e+001
1.037422e+003,3.767096e+001
1.038387e+003,3.746857e+001
1.039351e+003,3.930841e+001
1.040315e+003,4.155139e+001
1.041279e+003,4.317487e+001
1.042244e+003,4.446362e+001
1.043208e+003,4.598132e+001
1.044172e+003,4.779028e+001
1.045136e+003,4.877789e+001
1.046101e+003,4.837628e+001
1.047065e+003,4.815442e+001
1.048029e+003,4.926892e+001
1.048993e+003,5.130652e+001
1.049958e+003,5.280505e+001
1.050922e+003,5.312732e+001
1.051886e+003,5.337823e+001
1.052850e+003,5.492554e+001
1.053814e+003,5.682642e+001
1.054779e+003,5.789374e+001
1.055743e+003,5.778033e+001
1.056707e+003,5.670581e+001
1.057671e+003,5.487500e+001
1.058636e+003,5.219202e+001
1.059600e+003,5.064502e+001
1.060564e+003,5.152234e+001
1.061528e+003,5.266315e+001
1.062493e+003,5.302832e+001
1.063457e+003,5.322009e+001
1.064421e+003,5.485828e+001
1.065385e+003,5.819104e+001
1.066349e+003,5.970831e+001
1.067314e+003,5.604126e+001
1.068278e+003,5.189844e+001
1.069242e+003,4.979083e+001
1.070206e+003,4.995819e+001
1.071171e+003,5.359021e+001
1.072135e+003,6.035065e+001
1.073099e+003,6.638452e+001
1.074063e+003,6.525293e+001
1.075028e+003,5.618597e+001
1.075992e+003,5.149811e+001
1.076956e+003,5.267157e+001
1.077920e+003,5.408118e+001
1.078885e+003,5.420367e+001
1.079849e+003,5.362152e+001
1.080813e+003,5.277954e+001
1.081777e+003,5.150946e+001
1.082741e+003,5.162091e+001
1.083706e+003,5.589807e+001
1.084670e+003,5.933014e+001
1.085634e+003,5.861560e+001
1.086598e+003,5.494495e+001
1.087563e+003,5.066010e+001
1.088527e+003,4.744611e+001
1.089491e+003,4.618170e+001
1.090455e+003,4.845062e+001
1.091420e+003,5.441870e+001
1.092384e+003,5.659064e+001
1.093348e+003,5.294086e+001
1.094312e+003,4.868945e+001
1.095276e+003,4.703662e+001
1.096241e+003,4.759338e+001
1.097205e+003,4.856140e+001
1.098169e+003,4.958777e+001
1.099133e+003,5.050525e+001
1.100098e+003,5.193042e+001
1.101062e+003,5.301178e+001
1.102026e+003,5.301331e+001
1.102990e+003,5.226569e+001
1.103955e+003,5.118585e+001
1.104919e+003,4.998865e+001
1.105883e+003,4.948102e+001
1.106847e+003,5.232214e+001
1.107812e+003,5.839209e+001
1.108776e+003,6.028339e+001
1.109740e+003,5.604297e+001
1.110704e+003,5.104645e+001
1.111668e+003,4.910449e+001
1.112633e+003,5.005511e+001
1.113597e+003,5.229749e+001
1.114561e+003,5.597046e+001
1.115525e+003,5.948102e+001
1.116490e+003,6.278131e+001
1.117454e+003,6.526672e+001
1.118418e+003,6.655493e+001
1.119382e+003,6.715076e+001
1.120347e+003,6.779865e+001
1.121311e+003,6.862384e+001
1.122275e+003,6.880182e+001
1.123239e+003,6.739838e+001
1.124203e+003,6.516815e+001
1.125168e+003,6.467401e+001
1.126132e+003,6.645612e+001
1.127096e+003,6.942010e+001
1.128060e+003,7.358228e+001
1.129025e+003,7.812756e+001
1.129989e+003,7.921661e+001
1.130953e+003,7.376721e+001
1.131917e+003,7.100397e+001
1.132882e+003,7.525708e+001
1.133846e+003,8.102338e+001
1.134810e+003,8.543811e+001
1.135774e+003,8.851923e+001
1.136739e+003,9.113110e+001
1.137703e+003,9.376819e+001
1.138667e+003,9.692285e+001
1.139631e+003,1.014545e+002
1.140595e+003,1.074454e+002
1.141560e+003,1.154487e+002
1.142524e+003,1.261073e+002
1.143488e+003,1.378040e+002
1.144452e+003,1.485421e+002
1.145417e+003,1.592610e+002
1.146381e+003,1.736515e+002
1.147345e+003,1.927237e+002
1.148309e+003,2.127573e+002
1.149274e+003,2.336547e+002
1.150238e+003,2.547772e+002
1.151202e+003,2.772120e+002
1.152166e+003,2.997216e+002
1.153130e+003,3.209518e+002
1.154095e+003,3.395624e+002
1.155059e+003,3.526081e+002
1.156023e+003,3.563943e+002
1.156987e+003,3.510270e+002
1.157952e+003,3.406926e+002
1.158916e+003,3.258061e+002
1.159880e+003,3.086011e+002
1.160844e+003,2.880717e+002
1.161809e+003,2.652026e+002
1.162773e+003,2.433796e+002
1.163737e+003,2.225844e+002
1.164701e+003,2.031406e+002
1.165666e+003,1.849751e+002
1.166630e+003,1.690424e+002
1.167594e+003,1.555198e+002
1.168558e+003,1.444622e+002
1.169522e+003,1.365402e+002
1.170487e+003,1.315824e+002
1.171451e+003,1.278505e+002
1.172415e+003,1.231323e+002
1.173379e+003,1.180352e+002
1.174344e+003,1.173171e+002
1.175308e+003,1.215513e+002
1.176272e+003,1.229881e+002
1.177236e+003,1.171921e+002
1.178201e+003,1.091434e+002
1.179165e+003,1.053653e+002
1.180129e+003,1.056216e+002
1.181093e+003,1.041226e+002
1.182057e+003,9.793964e+001
1.183022e+003,9.296124e+001
1.183986e+003,9.168829e+001
1.184950e+003,9.230487e+001
1.185914e+003,9.373242e+001
1.186879e+003,9.540283e+001
1.187843e+003,9.643506e+001
1.188807e+003,9.594202e+001
1.189771e+003,9.486859e+001
1.190736e+003,9.717517e+001
1.191700e+003,1.034622e+002
1.192664e+003,1.059676e+002
1.193628e+003,1.026672e+002
1.194593e+003,9.775000e+001
1.195557e+003,9.354169e+001
1.196521e+003,8.995001e+001
1.197485e+003,8.717120e+001
1.198449e+003,8.596387e+001
1.199414e+003,8.350525e+001
1.200378e+003,7.627118e+001
1.201342e+003,6.947131e+001
1.202306e+003,6.635303e+001
1.203271e+003,6.614215e+001
1.204235e+003,6.742609e+001
1.205199e+003,6.921411e+001
1.206163e+003,6.991046e+001
1.207128e+003,6.649268e+001
1.208092e+003,5.871301e+001
1.209056e+003,5.296674e+001
1.210020e+003,5.006873e+001
1.210984e+003,4.722687e+001
1.211949e+003,4.352612e+001
1.212913e+003,3.935657e+001
1.213877e+003,3.545630e+001
1.214841e+003,3.194885e+001
1.215806e+003,2.792151e+001
1.216770e+003,2.174109e+001
1.217734e+003,1.690204e+001
1.218698e+003,1.672736e+001
1.219663e+003,1.814844e+001
1.220627e+003,1.753046e+001
1.221591e+003,1.426727e+001
1.222555e+003,9.832092e+000
1.223520e+003,5.591309e+000
1.224484e+003,1.846191e+000
1.225448e+003,-6.945801e-001
1.226412e+003,-1.700317e+000
1.227376e+003,-2.212952e+000
1.228341e+003,-2.043091e+000
1.229305e+003,-1.857300e+000
1.230269e+003,-2.368958e+000
1.231233e+003,-3.065613e+000
1.232198e+003,-2.513855e+000
1.233162e+003,-1.112061e-001
1.234126e+003,2.260010e+000
1.235090e+003,2.716736e+000
1.236055e+003,2.493347e+000
1.237019e+003,3.389343e+000
1.237983e+003,4.694458e+000
1.238947e+003,4.506836e+000
1.239911e+003,2.226318e+000
1.240876e+003,-4.609985e-001
1.241840e+003,-1.153748e+000
1.242804e+003,3.053589e-001
1.243768e+003,1.210632e+000
1.244733e+003,1.449402e+000
1.245697e+003,1.219055e+000
1.246661e+003,-2.320862e+000
1.247625e+003,-4.426086e+000
1.248590e+003,1.082947e+000
1.249554e+003,1.156860e+001
1.250518e+003,1.781812e+001
1.251482e+003,1.530060e+001
1.252447e+003,9.467957e+000
1.253411e+003,5.787537e+000
1.254375e+003,4.539063e+000
1.255339e+003,6.719849e+000
1.256303e+003,1.228528e+001
1.257268e+003,1.716248e+001
1.258232e+003,1.863367e+001
1.259196e+003,1.780505e+001
1.260160e+003,1.714203e+001
1.261125e+003,1.679230e+001
1.262089e+003,1.768463e+001
1.263053e+003,2.004248e+001
1.264017e+003,2.293701e+001
1.264982e+003,2.780750e+001
1.265946e+003,3.216467e+001
1.266910e+003,3.307220e+001
1.267874e+003,3.105585e+001
1.268839e+003,2.958917e+001
1.269803e+003,3.103894e+001
1.270767e+003,3.280688e+001
1.271731e+003,2.907440e+001
1.272695e+003,2.031281e+001
1.273660e+003,1.590460e+001
1.274624e+003,1.684698e+001
1.275588e+003,1.863605e+001
1.276552e+003,1.938794e+001
1.277517e+003,1.977911e+001
1.278481e+003,2.112903e+001
1.279445e+003,2.359149e+001
1.280409e+003,2.412494e+001
1.281374e+003,2.010046e+001
1.282338e+003,1.623230e+001
1.283302e+003,1.508398e+001
1.284266e+003,1.524524e+001
1.285230e+003,1.536816e+001
1.286195e+003,1.497980e+001
1.287159e+003,1.395892e+001
1.288123e+003,1.233679e+001
1.289087e+003,1.079108e+001
1.290052e+003,1.083759e+001
1.291016e+003,1.299768e+001
1.291980e+003,1.390936e+001
1.292944e+003,1.162671e+001
1.293909e+003,1.012231e+001
1.294873e+003,1.217126e+001
1.295837e+003,1.568726e+001
1.296801e+003,1.757690e+001
1.297766e+003,1.748468e+001
1.298730e+003,1.713208e+001
1.299694e+003,1.713763e+001
1.300658e+003,1.720746e+001
1.301622e+003,1.764398e+001
1.302587e+003,1.799054e+001
1.303551e+003,1.680859e+001
1.304515e+003,1.419141e+001
1.305479e+003,1.258618e+001
1.306444e+003,1.400629e+001
1.307408e+003,1.732629e+001
1.308372e+003,1.929266e+001
1.309336e+003,1.976263e+001
1.310301e+003,1.916571e+001
1.311265e+003,1.604669e+001
1.312229e+003,1.410095e+001
1.313193e+003,1.431079e+001
1.314157e+003,1.616425e+001
1.315122e+003,2.045892e+001
1.316086e+003,2.592328e+001
1.317050e+003,2.811572e+001
1.318014e+003,2.396191e+001
1.318979e+003,1.792316e+001
1.319943e+003,1.838208e+001
1.320907e+003,2.457977e+001
1.321871e+003,2.777472e+001
1.322836e+003,2.679547e+001
1.323800e+003,2.424567e+001
1.324764e+003,2.001379e+001
1.325728e+003,1.594769e+001
1.326693e+003,1.551593e+001
1.327657e+003,1.869373e+001
1.328621e+003,2.174481e+001
1.329585e+003,2.534778e+001
1.330549e+003,2.766461e+001
1.331514e+003,2.600708e+001
1.332478e+003,2.286261e+001
1.333442e+003,2.046918e+001
1.334406e+003,1.937408e+001
1.335371e+003,1.942474e+001
1.336335e+003,2.048151e+001
1.337299e+003,2.227356e+001
1.338263e+003,2.421985e+001
1.339228e+003,2.637158e+001
1.340192e+003,2.835425e+001
1.341156e+003,3.106317e+001
1.342120e+003,3.230243e+001
1.343084e+003,2.982776e+001
1.344049e+003,2.691162e+001
1.345013e+003,2.642407e+001
1.345977e+003,2.830334e+001
1.346941e+003,3.153119e+001
1.347906e+003,3.585822e+001
1.348870e+003,3.928571e+001
1.349834e+003,3.943182e+001
1.350798e+003,3.754950e+001
1.351763e+003,3.653278e+001
1.352727e+003,3.632806e+001
1.353691e+003,3.600812e+001
1.354655e+003,3.529010e+001
1.355620e+003,3.430664e+001
1.356584e+003,3.270709e+001
1.357548e+003,3.086334e+001
1.358512e+003,3.161774e+001
1.359476e+003,3.628790e+001
1.360441e+003,3.920245e+001
1.361405e+003,3.733826e+001
1.362369e+003,3.550378e+001
1.363333e+003,3.683075e+001
1.364298e+003,3.932764e+001
1.365262e+003,3.952679e+001
1.366226e+003,3.703076e+001
1.367190e+003,3.493439e+001
1.368155e+003,3.603198e+001
1.369119e+003,3.906616e+001
1.370083e+003,4.005316e+001
1.371047e+003,3.831451e+001
1.372011e+003,3.820953e+001
1.372976e+003,4.082159e+001
1.373940e+003,4.284393e+001
1.374904e+003,4.272803e+001
1.375868e+003,4.186823e+001
1.376833e+003,4.172650e+001
1.377797e+003,4.240033e+001
1.378761e+003,4.383411e+001
1.379725e+003,4.647650e+001
1.380690e+003,4.865656e+001
1.381654e+003,4.759863e+001
1.382618e+003,4.566547e+001
1.383582e+003,4.663007e+001
1.384547e+003,5.022095e+001
1.385511e+003,5.277490e+001
1.386475e+003,5.213727e+001
1.387439e+003,5.016254e+001
1.388403e+003,4.989465e+001
1.389368e+003,5.129242e+001
1.390332e+003,5.171240e+001
1.391296e+003,5.044415e+001
1.392260e+003,4.996576e+001
1.393225e+003,5.210657e+001
1.394189e+003,5.360455e+001
1.395153e+003,5.199500e+001
1.396117e+003,4.879657e+001
1.397082e+003,4.613757e+001
1.398046e+003,4.495288e+001
1.399010e+003,4.559125e+001
1.399974e+003,4.828802e+001
1.400938e+003,5.153680e+001
1.401903e+003,5.139056e+001
1.402867e+003,4.725507e+001
1.403831e+003,4.652429e+001
1.404795e+003,5.085730e+001
1.405760e+003,5.534430e+001
1.406724e+003,5.852478e+001
1.407688e+003,5.974133e+001
1.408652e+003,5.778503e+001
1.409617e+003,5.383728e+001
1.410581e+003,5.246686e+001
1.411545e+003,5.599945e+001
1.412509e+003,5.954218e+001
1.413474e+003,5.701544e+001
1.414438e+003,5.179523e+001
1.415402e+003,5.028192e+001
1.416366e+003,5.240259e+001
1.417330e+003,5.516925e+001
1.418295e+003,5.764801e+001
1.419259e+003,5.959875e+001
1.420223e+003,6.029974e+001
1.421187e+003,5.978601e+001
1.422152e+003,5.956116e+001
1.423116e+003,6.003400e+001
1.424080e+003,6.079974e+001
1.425044e+003,6.157782e+001
1.426009e+003,6.215186e+001
1.426973e+003,6.205463e+001
1.427937e+003,6.189703e+001
1.428901e+003,6.250653e+001
1.429865e+003,6.407318e+001
1.430830e+003,6.639777e+001
1.431794e+003,6.916473e+001
1.432758e+003,7.162360e+001
1.433722e+003,7.260913e+001
1.434687e+003,7.241241e+001
1.435651e+003,7.348352e+001
1.436615e+003,7.526855e+001
1.437579e+003,7.688269e+001
1.438544e+003,7.897565e+001
1.439508e+003,8.043787e+001
1.440472e+003,8.042969e+001
1.441436e+003,7.971149e+001
1.442401e+003,7.931665e+001
1.443365e+003,7.944891e+001
1.444329e+003,8.016199e+001
1.445293e+003,8.180652e+001
1.446257e+003,8.362372e+001
1.447222e+003,8.378418e+001
1.448186e+003,8.253601e+001
1.449150e+003,8.131769e+001
1.450114e+003,7.995795e+001
1.451079e+003,7.932861e+001
1.452043e+003,8.114386e+001
1.453007e+003,8.350574e+001
1.453971e+003,8.336017e+001
1.454936e+003,8.082770e+001
1.455900e+003,7.780560e+001
1.456864e+003,7.416846e+001
1.457828e+003,7.256616e+001
1.458792e+003,7.690277e+001
1.459757e+003,8.134235e+001
1.460721e+003,8.034058e+001
1.461685e+003,7.599066e+001
1.462649e+003,7.243176e+001
1.463614e+003,7.111133e+001
1.464578e+003,7.244238e+001
1.465542e+003,7.728070e+001
1.466506e+003,8.362787e+001
1.467471e+003,8.549512e+001
1.468435e+003,8.202325e+001
1.469399e+003,8.042114e+001
1.470363e+003,8.203510e+001
1.471328e+003,8.336176e+001
1.472292e+003,8.324963e+001
1.473256e+003,8.232477e+001
1.474220e+003,8.085352e+001
1.475184e+003,7.975806e+001
1.476149e+003,8.029950e+001
1.477113e+003,8.249377e+001
1.478077e+003,8.488599e+001
1.479041e+003,8.631531e+001
1.480006e+003,8.738373e+001
1.480970e+003,8.940594e+001
1.481934e+003,9.243463e+001
1.482898e+003,9.465112e+001
1.483863e+003,9.524988e+001
1.484827e+003,9.609576e+001
1.485791e+003,9.882013e+001
1.486755e+003,1.015634e+002
1.487719e+003,1.013793e+002
1.488684e+003,9.953009e+001
1.489648e+003,1.005624e+002
1.490612e+003,1.059734e+002
1.491576e+003,1.113940e+002
1.492541e+003,1.126722e+002
1.493505e+003,1.122542e+002
1.494469e+003,1.162532e+002
1.495433e+003,1.234520e+002
1.496398e+003,1.283430e+002
1.497362e+003,1.298176e+002
1.498326e+003,1.323126e+002
1.499290e+003,1.387225e+002
1.500255e+003,1.468867e+002
1.501219e+003,1.529633e+002
1.502183e+003,1.576373e+002
1.503147e+003,1.662797e+002
1.504111e+003,1.807427e+002
1.505076e+003,1.956384e+002
1.506040e+003,2.077815e+002
1.507004e+003,2.192325e+002
1.507968e+003,2.308489e+002
1.508933e+003,2.437272e+002
1.509897e+003,2.606435e+002
1.510861e+003,2.824492e+002
1.511825e+003,3.061340e+002
1.512790e+003,3.293120e+002
1.513754e+003,3.524661e+002
1.514718e+003,3.777239e+002
1.515682e+003,4.047170e+002
1.516646e+003,4.287656e+002
1.517611e+003,4.490992e+002
1.518575e+003,4.685287e+002
1.519539e+003,4.922402e+002
1.520503e+003,5.114833e+002
1.521468e+003,5.200404e+002
1.522432e+003,5.216395e+002
1.523396e+003,5.217789e+002
1.524360e+003,5.211122e+002
1.525325e+003,5.171708e+002
1.526289e+003,5.084231e+002
1.527253e+003,4.945296e+002
1.528217e+003,4.741542e+002
1.529182e+003,4.475128e+002
1.530146e+003,4.211765e+002
1.531110e+003,3.951302e+002
1.532074e+003,3.686784e+002
1.533039e+003,3.400299e+002
1.534003e+003,3.115569e+002
1.534967e+003,2.853295e+002
1.535931e+003,2.605076e+002
1.536896e+003,2.346963e+002
1.537860e+003,2.090872e+002
1.538824e+003,1.873670e+002
1.539788e+003,1.712975e+002
1.540752e+003,1.599308e+002
1.541717e+003,1.524826e+002
1.542681e+003,1.485964e+002
1.543645e+003,1.447039e+002
1.544609e+003,1.408207e+002
1.545573e+003,1.379352e+002
1.546538e+003,1.344362e+002
1.547502e+003,1.330026e+002
1.548466e+003,1.368643e+002
1.549430e+003,1.422943e+002
1.550395e+003,1.458075e+002
1.551359e+003,1.469460e+002
1.552323e+003,1.461522e+002
1.553287e+003,1.437153e+002
1.554252e+003,1.401576e+002
1.555216e+003,1.357326e+002
1.556180e+003,1.308804e+002
1.557144e+003,1.263743e+002
1.558109e+003,1.223973e+002
1.559073e+003,1.206331e+002
1.560037e+003,1.214934e+002
1.561001e+003,1.226599e+002
1.561966e+003,1.244786e+002
1.562930e+003,1.262004e+002
1.563894e+003,1.265086e+002
1.564858e+003,1.258863e+002
1.565823e+003,1.262786e+002
1.566787e+003,1.278578e+002
1.567751e+003,1.272455e+002
1.568715e+003,1.216196e+002
1.569679e+003,1.163545e+002
1.570644e+003,1.195677e+002
1.571608e+003,1.277163e+002
1.572572e+003,1.306943e+002
1.573536e+003,1.283276e+002
1.574500e+003,1.266576e+002
1.575465e+003,1.277241e+002
1.576429e+003,1.296385e+002
1.577393e+003,1.312097e+002
1.578357e+003,1.322130e+002
1.579322e+003,1.320142e+002
1.580286e+003,1.308661e+002
1.581250e+003,1.312504e+002
1.582214e+003,1.345182e+002
1.583179e+003,1.370342e+002
1.584143e+003,1.344308e+002
1.585107e+003,1.308286e+002
1.586071e+003,1.327442e+002
1.587036e+003,1.388899e+002
1.588000e+003,1.443068e+002
1.588964e+003,1.477557e+002
1.589928e+003,1.495820e+002
1.590893e+003,1.493281e+002
1.591857e+003,1.483490e+002
1.592821e+003,1.486016e+002
1.593785e+003,1.500316e+002
1.594750e+003,1.521055e+002
1.595714e+003,1.547589e+002
1.596678e+003,1.569969e+002
1.597642e+003,1.583352e+002
1.598606e+003,1.593519e+002
1.599571e+003,1.603612e+002
1.600535e+003,1.616475e+002
1.601499e+003,1.635614e+002
1.602463e+003,1.659573e+002
1.603427e+003,1.685817e+002
1.604392e+003,1.715000e+002
1.605356e+003,1.735663e+002
1.606320e+003,1.730605e+002
1.607284e+003,1.710313e+002
1.608249e+003,1.706349e+002
1.609213e+003,1.719514e+002
1.610177e+003,1.725355e+002
1.611141e+003,1.719003e+002
1.612106e+003,1.707559e+002
1.613070e+003,1.687364e+002
1.614034e+003,1.669053e+002
1.614998e+003,1.659612e+002
1.615963e+003,1.658136e+002
1.616927e+003,1.660391e+002
1.617891e+003,1.665981e+002
1.618855e+003,1.681617e+002
1.619820e+003,1.710978e+002
1.620784e+003,1.742621e+002
1.621748e+003,1.768135e+002
1.622712e+003,1.791647e+002
1.623677e+003,1.808940e+002
1.624641e+003,1.820677e+002
1.625605e+003,1.823396e+002
1.626569e+003,1.796475e+002
1.627533e+003,1.776215e+002
1.628498e+003,1.796906e+002
1.629462e+003,1.824555e+002
1.630426e+003,1.824787e+002
1.631390e+003,1.808405e+002
1.632354e+003,1.805322e+002
1.633319e+003,1.821591e+002
1.634283e+003,1.838857e+002
1.635247e+003,1.843868e+002
1.636211e+003,1.838956e+002
1.637176e+003,1.822400e+002
1.638140e+003,1.798279e+002
1.639104e+003,1.812939e+002
1.640068e+003,1.882866e+002
1.641033e+003,1.926279e+002
1.641997e+003,1.912231e+002
1.642961e+003,1.886263e+002
1.643925e+003,1.859943e+002
1.644890e+003,1.841885e+002
1.645854e+003,1.844564e+002
1.646818e+003,1.860931e+002
1.647782e+003,1.875408e+002
1.648747e+003,1.882058e+002
1.649711e+003,1.877855e+002
1.650675e+003,1.858307e+002
1.651639e+003,1.837638e+002
1.652604e+003,1.848175e+002
1.653568e+003,1.886152e+002
1.654532e+003,1.893559e+002
1.655496e+003,1.858815e+002
1.656460e+003,1.824472e+002
1.657425e+003,1.798892e+002
1.658389e+003,1.784385e+002
1.659353e+003,1.796884e+002
1.660317e+003,1.808560e+002
1.661281e+003,1.776521e+002
1.662246e+003,1.716734e+002
1.663210e+003,1.688719e+002
1.664174e+003,1.711816e+002
1.665138e+003,1.739943e+002
1.666103e+003,1.733803e+002
1.667067e+003,1.703706e+002
1.668031e+003,1.665748e+002
1.668995e+003,1.622642e+002
1.669960e+003,1.602303e+002
1.670924e+003,1.612383e+002
1.671888e+003,1.626447e+002
1.672852e+003,1.643265e+002
1.673817e+003,1.648366e+002
1.674781e+003,1.617808e+002
1.675745e+003,1.581948e+002
1.676709e+003,1.577108e+002
1.677674e+003,1.596736e+002
1.678638e+003,1.614988e+002
1.679602e+003,1.623713e+002
1.680566e+003,1.621225e+002
1.681531e+003,1.603556e+002
1.682495e+003,1.581682e+002
1.683459e+003,1.573652e+002
1.684423e+003,1.574458e+002
1.685387e+003,1.560446e+002
1.686352e+003,1.527484e+002
1.687316e+003,1.507070e+002
1.688280e+003,1.515190e+002
1.689244e+003,1.526470e+002
1.690208e+003,1.523584e+002
1.691173e+003,1.511183e+002
1.692137e+003,1.492442e+002
1.693101e+003,1.471823e+002
1.694065e+003,1.452792e+002
1.695030e+003,1.433169e+002
1.695994e+003,1.423698e+002
1.696958e+003,1.443272e+002
1.697922e+003,1.464769e+002
1.698887e+003,1.449542e+002
1.699851e+003,1.410012e+002
1.700815e+003,1.376520e+002
1.701779e+003,1.351011e+002
1.702744e+003,1.349210e+002
1.703708e+003,1.385822e+002
1.704672e+003,1.421551e+002
1.705636e+003,1.419129e+002
1.706601e+003,1.400303e+002
1.707565e+003,1.407452e+002
1.708529e+003,1.431954e+002
1.709493e+003,1.437717e+002
1.710458e+003,1.418433e+002
1.711422e+003,1.396735e+002
1.712386e+003,1.380024e+002
1.713350e+003,1.371146e+002
1.714314e+003,1.377905e+002
1.715279e+003,1.385169e+002
1.716243e+003,1.362755e+002
1.717207e+003,1.317831e+002
1.718171e+003,1.294221e+002
1.719135e+003,1.304664e+002
1.720100e+003,1.314415e+002
1.721064e+003,1.296069e+002
1.722028e+003,1.274912e+002
1.722992e+003,1.296922e+002
1.723957e+003,1.353280e+002
1.724921e+003,1.373395e+002
1.725885e+003,1.347381e+002
1.726849e+003,1.320101e+002
1.727814e+003,1.301888e+002
1.728778e+003,1.289952e+002
1.729742e+003,1.276592e+002
1.730706e+003,1.272582e+002
1.731671e+003,1.297354e+002
1.732635e+003,1.330917e+002
1.733599e+003,1.335663e+002
1.734563e+003,1.311270e+002
1.735528e+003,1.287691e+002
1.736492e+003,1.279324e+002
1.737456e+003,1.272081e+002
1.738420e+003,1.247594e+002
1.739385e+003,1.213173e+002
1.740349e+003,1.206342e+002
1.741313e+003,1.238779e+002
1.742277e+003,1.250388e+002
1.743241e+003,1.224470e+002
1.744206e+003,1.210129e+002
1.745170e+003,1.213509e+002
1.746134e+003,1.226700e+002
1.747098e+003,1.254846e+002
1.748063e+003,1.282828e+002
1.749027e+003,1.292953e+002
1.749991e+003,1.288677e+002
1.750955e+003,1.284620e+002
1.751919e+003,1.284733e+002
1.752884e+003,1.279417e+002
1.753848e+003,1.260610e+002
1.754812e+003,1.234288e+002
1.755776e+003,1.213317e+002
1.756741e+003,1.200416e+002
1.757705e+003,1.204935e+002
1.758669e+003,1.235002e+002
1.759633e+003,1.251294e+002
1.760598e+003,1.232675e+002
1.761562e+003,1.220376e+002
1.762526e+003,1.239615e+002
1.763490e+003,1.261321e+002
1.764455e+003,1.267511e+002
1.765419e+003,1.261798e+002
1.766383e+003,1.242888e+002
1.767347e+003,1.216464e+002
1.768312e+003,1.208477e+002
1.769276e+003,1.230779e+002
1.770240e+003,1.255125e+002
1.771204e+003,1.255271e+002
1.772168e+003,1.242310e+002
1.773133e+003,1.233300e+002
1.774097e+003,1.228289e+002
1.775061e+003,1.230269e+002
1.776025e+003,1.237680e+002
1.776990e+003,1.244421e+002
1.777954e+003,1.253232e+002
1.778918e+003,1.259849e+002
1.779882e+003,1.253084e+002
1.780846e+003,1.243587e+002
1.781811e+003,1.253245e+002
1.782775e+003,1.275440e+002
1.783739e+003,1.282767e+002
1.784703e+003,1.270366e+002
1.785668e+003,1.267608e+002
1.786632e+003,1.295436e+002
1.787596e+003,1.317589e+002
1.788560e+003,1.298442e+002
1.789525e+003,1.271636e+002
1.790489e+003,1.287732e+002
1.791453e+003,1.332585e+002
1.792417e+003,1.360534e+002
1.793382e+003,1.361373e+002
1.794346e+003,1.342148e+002
1.795310e+003,1.304345e+002
1.796274e+003,1.268632e+002
1.797239e+003,1.260699e+002
1.798203e+003,1.277056e+002
1.799167e+003,1.298157e+002
1.800131e+003,1.321895e+002
1.801095e+003,1.323652e+002
1.802060e+003,1.280120e+002
1.803024e+003,1.265083e+002
1.803988e+003,1.303868e+002
1.804952e+003,1.345875e+002
1.805917e+003,1.382912e+002
1.806881e+003,1.398232e+002
1.807845e+003,1.358884e+002
1.808809e+003,1.294739e+002
1.809773e+003,1.265153e+002
1.810738e+003,1.280540e+002
1.811702e+003,1.305974e+002
1.812666e+003,1.319107e+002
1.813630e+003,1.329154e+002
1.814595e+003,1.350267e+002
1.815559e+003,1.375651e+002
1.816523e+003,1.376302e+002
1.817487e+003,1.349228e+002
1.818452e+003,1.341861e+002
1.819416e+003,1.370362e+002
1.820380e+003,1.384962e+002
1.821344e+003,1.355505e+002
1.822309e+003,1.327123e+002
1.823273e+003,1.334711e+002
1.824237e+003,1.353594e+002
1.825201e+003,1.353302e+002
1.826166e+003,1.341622e+002
1.827130e+003,1.348793e+002
1.828094e+003,1.378086e+002
1.829058e+003,1.391534e+002
1.830022e+003,1.363752e+002
1.830987e+003,1.335715e+002
1.831951e+003,1.347366e+002
1.832915e+003,1.375047e+002
1.833879e+003,1.380753e+002
1.834844e+003,1.372509e+002
1.835808e+003,1.383962e+002
1.836772e+003,1.417719e+002
1.837736e+003,1.441522e+002
1.838700e+003,1.439927e+002
1.839665e+003,1.425153e+002
1.840629e+003,1.407299e+002
1.841593e+003,1.391356e+002
1.842557e+003,1.385691e+002
1.843522e+003,1.390113e+002
1.844486e+003,1.400175e+002
1.845450e+003,1.431862e+002
1.846414e+003,1.444633e+002
1.847379e+003,1.413211e+002
1.848343e+003,1.388536e+002
1.849307e+003,1.387332e+002
1.850271e+003,1.399020e+002
1.851236e+003,1.421834e+002
1.852200e+003,1.450987e+002
1.853164e+003,1.485025e+002
1.854128e+003,1.514609e+002
1.855093e+003,1.520827e+002
1.856057e+003,1.501361e+002
1.857021e+003,1.479095e+002
1.857985e+003,1.470494e+002
1.858949e+003,1.472921e+002
1.859914e+003,1.490956e+002
1.860878e+003,1.518860e+002
1.861842e+003,1.513344e+002
1.862806e+003,1.472172e+002
1.863771e+003,1.448076e+002
1.864735e+003,1.449954e+002
1.865699e+003,1.463000e+002
1.866663e+003,1.488403e+002
1.867627e+003,1.513888e+002
1.868592e+003,1.531152e+002
1.869556e+003,1.534272e+002
1.870520e+003,1.507429e+002
1.871484e+003,1.457728e+002
1.872449e+003,1.436560e+002
1.873413e+003,1.461478e+002
1.874377e+003,1.496922e+002
1.875341e+003,1.536171e+002
1.876306e+003,1.565716e+002
1.877270e+003,1.581607e+002
1.878234e+003,1.579578e+002
1.879198e+003,1.540085e+002
1.880163e+003,1.489110e+002
1.881127e+003,1.474798e+002
1.882091e+003,1.498047e+002
1.883055e+003,1.529250e+002
1.884020e+003,1.553365e+002
1.884984e+003,1.564822e+002
1.885948e+003,1.558151e+002
1.886912e+003,1.544906e+002
1.887876e+003,1.550488e+002
1.888841e+003,1.572610e+002
1.889805e+003,1.574385e+002
1.890769e+003,1.546684e+002
1.891733e+003,1.552383e+002
1.892698e+003,1.618527e+002
1.893662e+003,1.660073e+002
1.894626e+003,1.628309e+002
1.895590e+003,1.591910e+002
1.896554e+003,1.604899e+002
1.897519e+003,1.637233e+002
1.898483e+003,1.651950e+002
1.899447e+003,1.650193e+002
1.900411e+003,1.649911e+002
1.901376e+003,1.655171e+002
1.902340e+003,1.658032e+002
1.903304e+003,1.650809e+002
1.904268e+003,1.646760e+002
1.905233e+003,1.663162e+002
1.906197e+003,1.680097e+002
1.907161e+003,1.670698e+002
1.908125e+003,1.651022e+002
1.909090e+003,1.655620e+002
1.910054e+003,1.677307e+002
1.911018e+003,1.670483e+002
1.911982e+003,1.627258e+002
1.912947e+003,1.607639e+002
1.913911e+003,1.654946e+002
1.914875e+003,1.720857e+002
1.915839e+003,1.727117e+002
1.916803e+003,1.686261e+002
1.917768e+003,1.675027e+002
1.918732e+003,1.701660e+002
1.919696e+003,1.715380e+002
1.920660e+003,1.710424e+002
1.921625e+003,1.712558e+002
1.922589e+003,1.736063e+002
1.923553e+003,1.749394e+002
1.924517e+003,1.718769e+002
1.925481e+003,1.686898e+002
1.926446e+003,1.699802e+002
1.927410e+003,1.735668e+002
1.928374e+003,1.747348e+002
1.929338e+003,1.732015e+002
1.930303e+003,1.724778e+002
1.931267e+003,1.741827e+002
1.932231e+003,1.757110e+002
1.933195e+003,1.750157e+002
1.934160e+003,1.741726e+002
1.935124e+003,1.752632e+002
1.936088e+003,1.764451e+002
1.937052e+003,1.747240e+002
1.938017e+003,1.719367e+002
1.938981e+003,1.726577e+002
1.939945e+003,1.768079e+002
1.940909e+003,1.803317e+002
1.941874e+003,1.812286e+002
1.942838e+003,1.801733e+002
1.943802e+003,1.778772e+002
1.944766e+003,1.758038e+002
1.945730e+003,1.765685e+002
1.946695e+003,1.795868e+002
1.947659e+003,1.818011e+002
1.948623e+003,1.832090e+002
1.949587e+003,1.827064e+002
1.950552e+003,1.795298e+002
1.951516e+003,1.777818e+002
1.952480e+003,1.792542e+002
1.953444e+003,1.815318e+002
1.954408e+003,1.834031e+002
1.955373e+003,1.843587e+002
1.956337e+003,1.834645e+002
1.957301e+003,1.816205e+002
1.958265e+003,1.807988e+002
1.959230e+003,1.810156e+002
1.960194e+003,1.829004e+002
1.961158e+003,1.887639e+002
1.962122e+003,1.919714e+002
1.963087e+003,1.888118e+002
1.964051e+003,1.851519e+002
1.965015e+003,1.841877e+002
1.965979e+003,1.849996e+002
1.966944e+003,1.868069e+002
1.967908e+003,1.888213e+002
1.968872e+003,1.902921e+002
1.969836e+003,1.911921e+002
1.970801e+003,1.918370e+002
1.971765e+003,1.924282e+002
1.972729e+003,1.932922e+002
1.973693e+003,1.948486e+002
1.974657e+003,1.963065e+002
1.975622e+003,1.957994e+002
1.976586e+003,1.943124e+002
1.977550e+003,1.952862e+002
1.978514e+003,1.983078e+002
1.979479e+003,1.999130e+002
1.980443e+003,1.996241e+002
1.981407e+003,2.000071e+002
1.982371e+003,2.022089e+002
1.983335e+003,2.034516e+002
1.984300e+003,2.012302e+002
1.985264e+003,1.980373e+002
1.986228e+003,1.980878e+002
1.987192e+003,2.005035e+002
1.988157e+003,2.006483e+002
1.989121e+003,1.979451e+002
1.990085e+003,1.965417e+002
1.991049e+003,1.971693e+002
1.992014e+003,1.979323e+002
1.992978e+003,1.979860e+002
1.993942e+003,1.987036e+002
1.994906e+003,2.011491e+002
1.995871e+003,2.038221e+002
1.996835e+003,2.066879e+002
1.997799e+003,2.086269e+002
1.998763e+003,2.067050e+002
1.999728e+003,2.020193e+002
