5.003444e+002,4.696179e+001
5.013087e+002,4.728329e+001
5.022729e+002,4.658774e+001
5.032371e+002,4.504842e+001
5.042014e+002,4.261140e+001
5.051656e+002,3.953598e+001
5.061298e+002,3.726129e+001
5.070941e+002,3.720850e+001
5.080583e+002,3.996065e+001
5.090225e+002,4.117073e+001
5.099868e+002,3.997520e+001
5.109510e+002,3.866707e+001
5.119152e+002,3.881599e+001
5.128795e+002,4.064526e+001
5.138437e+002,4.121814e+001
5.148079e+002,3.745906e+001
5.157722e+002,3.419437e+001
5.167364e+002,3.415776e+001
5.177006e+002,3.710609e+001
5.186649e+002,3.994647e+001
5.196291e+002,3.843546e+001
5.205933e+002,3.524686e+001
5.215576e+002,3.281958e+001
5.225218e+002,3.149213e+001
5.234860e+002,3.120787e+001
5.244503e+002,3.209142e+001
5.254145e+002,3.491522e+001
5.263787e+002,3.587723e+001
5.273430e+002,3.385284e+001
5.283072e+002,3.074126e+001
5.292714e+002,2.915065e+001
5.302357e+002,2.977055e+001
5.311999e+002,3.012630e+001
5.321641e+002,3.010466e+001
5.331284e+002,2.991690e+001
5.340926e+002,2.952240e+001
5.350568e+002,2.880132e+001
5.360211e+002,2.823695e+001
5.369853e+002,2.924147e+001
5.379495e+002,3.033492e+001
5.389138e+002,2.982875e+001
5.398780e+002,2.724001e+001
5.408422e+002,2.371318e+001
5.418065e+002,2.263298e+001
5.427707e+002,2.364392e+001
5.437349e+002,2.450035e+001
5.446992e+002,2.462651e+001
5.456634e+002,2.418112e+001
5.466276e+002,2.375870e+001
5.475919e+002,2.290596e+001
5.485561e+002,2.287247e+001
5.495203e+002,2.448091e+001
5.504846e+002,2.656488e+001
5.514488e+002,2.741847e+001
5.524130e+002,2.604414e+001
5.533773e+002,2.446425e+001
5.543415e+002,2.376778e+001
5.553057e+002,2.346457e+001
5.562700e+002,2.301807e+001
5.572342e+002,2.208241e+001
5.581984e+002,2.089558e+001
5.591627e+002,2.010065e+001
5.601269e+002,1.965195e+001
5.610911e+002,1.932869e+001
5.620554e+002,1.897426e+001
5.630196e+002,1.857680e+001
5.639838e+002,1.849661e+001
5.649481e+002,1.929245e+001
5.659123e+002,1.961542e+001
5.668765e+002,1.895740e+001
5.678408e+002,1.781810e+001
5.688050e+002,1.754520e+001
5.697692e+002,1.964926e+001
5.707335e+002,2.049066e+001
5.716977e+002,1.803934e+001
5.726619e+002,1.417206e+001
5.736262e+002,1.134390e+001
5.745904e+002,1.126471e+001
5.755546e+002,1.281064e+001
5.765189e+002,1.441943e+001
5.774831e+002,1.578586e+001
5.784473e+002,1.641426e+001
5.794116e+002,1.601985e+001
5.803758e+002,1.478767e+001
5.813400e+002,1.397879e+001
5.823043e+002,1.331137e+001
5.832685e+002,1.306303e+001
5.842327e+002,1.381940e+001
5.851970e+002,1.543277e+001
5.861612e+002,1.640526e+001
5.871254e+002,1.591467e+001
5.880897e+002,1.518471e+001
5.890539e+002,1.398621e+001
5.900181e+002,1.271759e+001
5.909824e+002,1.210822e+001
5.919466e+002,1.296660e+001
5.929108e+002,1.395146e+001
5.938751e+002,1.366162e+001
5.948393e+002,1.252249e+001
5.958035e+002,1.097379e+001
5.967678e+002,9.376801e+000
5.977320e+002,7.954041e+000
5.986962e+002,8.670837e+000
5.996605e+002,1.151779e+001
6.006247e+002,1.343556e+001
6.015889e+002,1.242961e+001
6.025532e+002,8.788727e+000
6.035174e+002,6.618164e+000
6.044816e+002,7.129639e+000
6.054459e+002,8.054672e+000
6.064101e+002,9.741791e+000
6.073743e+002,1.152077e+001
6.083386e+002,1.229320e+001
6.093028e+002,1.124971e+001
6.102670e+002,9.526855e+000
6.112313e+002,7.380508e+000
6.121955e+002,5.460526e+000
6.131597e+002,4.796082e+000
6.141240e+002,6.053711e+000
6.150882e+002,8.575699e+000
6.160524e+002,9.563736e+000
6.170167e+002,9.350952e+000
6.179809e+002,9.062637e+000
6.189451e+002,9.076385e+000
6.199094e+002,9.320694e+000
6.208736e+002,9.686050e+000
6.218378e+002,1.098685e+001
6.228021e+002,1.167130e+001
6.237663e+002,1.128754e+001
6.247305e+002,1.032405e+001
6.256948e+002,9.501205e+000
6.266590e+002,8.995316e+000
6.276232e+002,8.592026e+000
6.285875e+002,8.116440e+000
6.295517e+002,7.811951e+000
6.305159e+002,8.154602e+000
6.314802e+002,9.290649e+000
6.324444e+002,1.048567e+001
6.334086e+002,9.250107e+000
6.343729e+002,6.503677e+000
6.353371e+002,4.418640e+000
6.363013e+002,3.800354e+000
6.372656e+002,4.216614e+000
6.382298e+002,4.209488e+000
6.391940e+002,2.968628e+000
6.401583e+002,2.310699e+000
6.411225e+002,2.786438e+000
6.420867e+002,3.816895e+000
6.430510e+002,4.688553e+000
6.440152e+002,5.154266e+000
6.449794e+002,5.240585e+000
6.459437e+002,4.917587e+000
6.469079e+002,4.371475e+000
6.478721e+002,3.834167e+000
6.488364e+002,3.373749e+000
6.498006e+002,2.763977e+000
6.507648e+002,1.082382e+000
6.517291e+002,-1.072708e+000
6.526933e+002,-2.020309e+000
6.536575e+002,-1.417236e+000
6.546218e+002,1.930237e-001
6.555860e+002,1.856674e+000
6.565502e+002,4.060776e+000
6.575145e+002,4.991882e+000
6.584787e+002,3.967850e+000
6.594429e+002,2.424408e+000
6.604072e+002,1.300064e+000
6.613714e+002,6.941528e-001
6.623356e+002,7.702026e-001
6.632999e+002,2.433578e+000
6.642641e+002,3.929398e+000
6.652283e+002,4.341507e+000
6.661926e+002,3.716324e+000
6.671568e+002,2.734848e+000
6.681210e+002,2.050949e+000
6.690853e+002,1.581650e+000
6.700495e+002,1.084351e+000
6.710137e+002,5.868378e-001
6.719780e+002,4.310150e-001
6.729422e+002,1.008865e+000
6.739064e+002,2.453766e+000
6.748707e+002,3.588272e+000
6.758349e+002,4.941437e+000
6.767991e+002,5.478607e+000
6.777634e+002,4.381943e+000
6.787276e+002,1.993668e+000
6.796918e+002,2.223969e-001
6.806561e+002,-9.617615e-002
6.816203e+002,4.743958e-002
6.825845e+002,5.561066e-001
6.835488e+002,1.201157e+000
6.845130e+002,1.724792e+000
6.854772e+002,1.954910e+000
6.864415e+002,2.052063e+000
6.874057e+002,2.243896e+000
6.883699e+002,2.368927e+000
6.893342e+002,2.141190e+000
6.902984e+002,1.349655e+000
6.912626e+002,2.828064e-001
6.922269e+002,7.084961e-001
6.931911e+002,5.075333e+000
6.941553e+002,7.896713e+000
6.951196e+002,7.811615e+000
6.960838e+002,6.071899e+000
6.970480e+002,4.841293e+000
6.980123e+002,5.068329e+000
6.989765e+002,4.587738e+000
6.999407e+002,1.158401e+000
7.009050e+002,-2.317963e+000
7.018692e+002,-3.110596e+000
7.028334e+002,-5.540924e-001
7.037977e+002,3.134628e+000
7.047619e+002,4.784241e+000
7.057261e+002,4.943787e+000
7.066904e+002,4.224808e+000
7.076546e+002,2.709641e+000
7.086188e+002,1.089813e+000
7.095831e+002,5.039520e-001
7.105473e+002,1.372192e+000
7.115115e+002,1.813583e+000
7.124758e+002,1.372940e+000
7.134400e+002,9.703979e-001
7.144042e+002,1.581482e+000
7.153685e+002,3.205780e+000
7.163327e+002,3.898193e+000
7.172969e+002,1.236771e+000
7.182612e+002,-1.120178e+000
7.192254e+002,-1.599411e+000
7.201896e+002,-6.176605e-001
7.211539e+002,7.914734e-001
7.221181e+002,1.866669e+000
7.230823e+002,2.534363e+000
7.240466e+002,2.745605e+000
7.250108e+002,2.636337e+000
7.259750e+002,2.206284e+000
7.269393e+002,1.308212e+000
7.279035e+002,-1.019135e-001
7.288677e+002,-1.433624e+000
7.298320e+002,-3.055557e+000
7.307962e+002,-3.601410e+000
7.317604e+002,-2.326752e+000
7.327247e+002,-1.490631e-001
7.336889e+002,1.733734e+000
7.346531e+002,3.006592e+000
7.356174e+002,3.244385e+000
7.365816e+002,1.394394e+000
7.375458e+002,-4.243317e-001
7.385101e+002,-1.556396e-001
7.394743e+002,2.408401e+000
7.404385e+002,5.419388e+000
7.414028e+002,5.986954e+000
7.423670e+002,4.248138e+000
7.433312e+002,2.340866e+000
7.442955e+002,4.742126e-001
7.452597e+002,-7.249908e-001
7.462239e+002,-4.295197e-001
7.471882e+002,1.883942e+000
7.481524e+002,3.170181e+000
7.491166e+002,2.736282e+000
7.500809e+002,1.960220e+000
7.510451e+002,1.187775e+000
7.520093e+002,4.923553e-001
7.529736e+002,-1.197357e-001
7.539378e+002,-7.798920e-001
7.549020e+002,-7.546844e-001
7.558663e+002,1.082901e+000
7.568306e+002,3.516830e+000
7.577948e+002,4.680115e+000
7.587590e+002,3.489471e+000
7.597233e+002,8.824005e-001
7.606875e+002,-9.336853e-002
7.616517e+002,4.449615e-001
7.626160e+002,1.280151e+000
7.635802e+002,2.403992e+000
7.645444e+002,3.434158e+000
7.655087e+002,3.309464e+000
7.664729e+002,7.268982e-001
7.674371e+002,-1.057281e-001
7.684014e+002,2.309662e+000
7.693656e+002,5.048782e+000
7.703298e+002,6.183212e+000
7.712941e+002,5.564407e+000
7.722583e+002,4.794174e+000
7.732225e+002,5.335968e+000
7.741868e+002,5.833679e+000
7.751510e+002,4.645828e+000
7.761152e+002,2.483658e+000
7.770795e+002,1.342773e+000
7.780437e+002,3.000687e+000
7.790079e+002,6.838776e+000
7.799722e+002,7.186417e+000
7.809364e+002,3.771027e+000
7.819006e+002,9.974365e-001
7.828649e+002,8.064423e-001
7.838291e+002,2.632599e+000
7.847933e+002,4.503159e+000
7.857576e+002,6.689163e+000
7.867218e+002,7.897476e+000
7.876860e+002,7.724991e+000
7.886503e+002,7.007248e+000
7.896145e+002,6.327530e+000
7.905787e+002,5.871078e+000
7.915430e+002,5.506378e+000
7.925072e+002,4.753281e+000
7.934714e+002,4.076096e+000
7.944357e+002,4.450256e+000
7.953999e+002,5.789612e+000
7.963641e+002,7.066391e+000
7.973284e+002,7.053986e+000
7.982926e+002,5.643204e+000
7.992568e+002,5.024261e+000
8.002211e+002,5.132217e+000
8.011853e+002,5.351151e+000
8.021495e+002,5.828506e+000
8.031138e+002,6.579910e+000
8.040780e+002,7.198303e+000
8.050422e+002,7.685715e+000
8.060065e+002,7.448456e+000
8.069707e+002,4.916275e+000
8.079349e+002,2.346863e+000
8.088992e+002,2.461609e+000
8.098634e+002,6.024246e+000
8.108276e+002,1.057841e+001
8.117919e+002,1.289995e+001
8.127561e+002,1.313319e+001
8.137203e+002,1.147160e+001
8.146846e+002,8.127228e+000
8.156488e+002,4.662277e+000
8.166130e+002,2.895584e+000
8.175773e+002,2.985443e+000
8.185415e+002,3.699631e+000
8.195057e+002,5.792099e+000
8.204700e+002,7.272507e+000
8.214342e+002,7.128418e+000
8.223984e+002,5.866959e+000
8.233627e+002,4.843216e+000
8.243269e+002,4.495697e+000
8.252911e+002,4.618881e+000
8.262554e+002,5.395859e+000
8.272196e+002,6.242737e+000
8.281838e+002,6.340149e+000
8.291481e+002,5.516098e+000
8.301123e+002,4.593704e+000
8.310765e+002,5.275635e+000
8.320408e+002,7.255066e+000
8.330050e+002,7.311096e+000
8.339692e+002,4.802383e+000
8.349335e+002,1.935669e+000
8.358977e+002,1.228043e+000
8.368619e+002,3.151871e+000
8.378262e+002,4.168030e+000
8.387904e+002,3.284134e+000
8.397546e+002,2.324097e+000
8.407189e+002,1.315125e+000
8.416831e+002,6.518097e-001
8.426473e+002,1.167145e+000
8.436116e+002,3.567184e+000
8.445758e+002,5.843582e+000
8.455400e+002,4.967667e+000
8.465043e+002,2.974686e+000
8.474685e+002,2.523804e+000
8.484327e+002,4.292877e+000
8.493970e+002,6.785934e+000
8.503612e+002,7.273697e+000
8.513254e+002,5.149139e+000
8.522897e+002,5.462372e+000
8.532539e+002,1.026384e+001
8.542181e+002,1.441121e+001
8.551824e+002,1.420781e+001
8.561466e+002,1.039537e+001
8.571108e+002,8.371841e+000
8.580751e+002,1.045894e+001
8.590393e+002,1.234651e+001
8.600035e+002,1.243465e+001
8.609678e+002,1.190372e+001
8.619320e+002,1.239149e+001
8.628962e+002,1.444424e+001
8.638605e+002,1.654008e+001
8.648247e+002,1.585571e+001
8.657889e+002,1.363347e+001
8.667532e+002,1.264963e+001
8.677174e+002,1.326431e+001
8.686816e+002,1.448039e+001
8.696459e+002,1.526927e+001
8.706101e+002,1.569713e+001
8.715743e+002,1.556975e+001
8.725386e+002,1.350783e+001
8.735028e+002,1.268065e+001
8.744670e+002,1.468950e+001
8.754313e+002,1.813322e+001
8.763955e+002,2.053053e+001
8.773597e+002,2.108145e+001
8.783240e+002,2.071341e+001
8.792882e+002,1.896777e+001
8.802524e+002,1.735641e+001
8.812167e+002,1.773500e+001
8.821809e+002,2.010390e+001
8.831451e+002,2.265884e+001
8.841094e+002,2.298273e+001
8.850736e+002,2.132257e+001
8.860378e+002,2.189607e+001
8.870021e+002,2.534387e+001
8.879663e+002,2.824464e+001
8.889305e+002,2.831116e+001
8.898948e+002,2.607008e+001
8.908590e+002,2.439436e+001
8.918232e+002,2.363126e+001
8.927875e+002,2.345657e+001
8.937517e+002,2.428697e+001
8.947159e+002,2.524940e+001
8.956802e+002,2.523311e+001
8.966444e+002,2.415013e+001
8.976086e+002,2.344862e+001
8.985729e+002,2.525064e+001
8.995371e+002,2.796632e+001
9.005013e+002,2.849820e+001
9.014656e+002,2.721257e+001
9.024298e+002,2.600125e+001
9.033940e+002,2.621629e+001
9.043583e+002,2.761349e+001
9.053225e+002,2.894385e+001
9.062867e+002,3.058865e+001
9.072510e+002,3.140071e+001
9.082152e+002,3.095268e+001
9.091794e+002,3.017664e+001
9.101437e+002,3.004628e+001
9.111079e+002,3.071040e+001
9.120721e+002,3.116054e+001
9.130364e+002,3.028485e+001
9.140006e+002,2.925562e+001
9.149648e+002,2.909731e+001
9.159291e+002,2.946823e+001
9.168933e+002,2.917081e+001
9.178575e+002,2.735376e+001
9.188218e+002,2.488686e+001
9.197860e+002,2.544795e+001
9.207502e+002,2.909279e+001
9.217145e+002,3.127110e+001
9.226787e+002,3.086815e+001
9.236429e+002,2.918242e+001
9.246072e+002,2.764369e+001
9.255714e+002,2.610233e+001
9.265356e+002,2.501700e+001
9.274999e+002,2.456880e+001
9.284641e+002,2.437006e+001
9.294283e+002,2.455345e+001
9.303926e+002,2.492329e+001
9.313568e+002,2.516531e+001
9.323210e+002,2.510823e+001
9.332853e+002,2.485948e+001
9.342495e+002,2.441867e+001
9.352137e+002,2.391705e+001
9.361780e+002,2.380327e+001
9.371422e+002,2.424088e+001
9.381064e+002,2.476747e+001
9.390707e+002,2.464554e+001
9.400349e+002,2.367033e+001
9.409991e+002,2.259184e+001
9.419634e+002,2.099371e+001
9.429276e+002,1.977214e+001
9.438918e+002,1.957251e+001
9.448561e+002,1.980766e+001
9.458203e+002,1.929236e+001
9.467845e+002,1.749837e+001
9.477488e+002,1.615858e+001
9.487130e+002,1.741838e+001
9.496772e+002,1.902496e+001
9.506415e+002,1.877063e+001
9.516057e+002,1.690288e+001
9.525699e+002,1.548824e+001
9.535342e+002,1.656769e+001
9.544984e+002,1.967191e+001
9.554626e+002,2.102902e+001
9.564269e+002,2.066075e+001
9.573911e+002,1.996782e+001
9.583553e+002,1.911925e+001
9.593196e+002,1.816180e+001
9.602838e+002,1.710696e+001
9.612480e+002,1.579825e+001
9.622123e+002,1.490508e+001
9.631765e+002,1.450626e+001
9.641407e+002,1.472374e+001
9.651050e+002,1.642014e+001
9.660692e+002,1.861990e+001
9.670334e+002,1.935735e+001
9.679977e+002,1.743452e+001
9.689619e+002,1.440434e+001
9.699261e+002,1.302534e+001
9.708904e+002,1.298729e+001
9.718546e+002,1.439143e+001
9.728188e+002,1.747157e+001
9.737831e+002,2.096082e+001
9.747473e+002,2.315970e+001
9.757115e+002,2.379831e+001
9.766758e+002,2.480632e+001
9.776400e+002,2.732523e+001
9.786042e+002,2.900893e+001
9.795685e+002,2.938716e+001
9.805327e+002,2.840103e+001
9.814969e+002,2.576108e+001
9.824612e+002,2.143076e+001
9.834254e+002,1.696349e+001
9.843896e+002,1.304155e+001
9.853539e+002,1.018782e+001
9.863181e+002,9.744553e+000
9.872823e+002,1.121497e+001
9.882466e+002,1.246550e+001
9.892108e+002,1.175938e+001
9.901750e+002,9.631180e+000
9.911393e+002,8.974014e+000
9.921035e+002,1.087769e+001
9.930677e+002,1.193982e+001
9.940320e+002,1.166846e+001
9.949962e+002,1.100745e+001
9.959604e+002,1.071625e+001
9.969247e+002,1.088435e+001
9.978889e+002,1.136536e+001
9.988531e+002,1.237971e+001
9.998174e+002,1.300377e+001
1.000782e+003,1.246661e+001
1.001746e+003,1.146129e+001
1.002710e+003,1.103519e+001
1.003674e+003,1.157507e+001
1.004639e+003,1.242328e+001
1.005603e+003,1.237488e+001
1.006567e+003,1.128839e+001
1.007531e+003,1.100916e+001
1.008495e+003,1.186121e+001
1.009460e+003,1.285240e+001
1.010424e+003,1.365405e+001
1.011388e+003,1.419672e+001
1.012352e+003,1.398624e+001
1.013317e+003,1.241864e+001
1.014281e+003,1.106038e+001
1.015245e+003,1.043546e+001
1.016209e+003,1.001544e+001
1.017174e+003,9.462250e+000
1.018138e+003,8.762573e+000
1.019102e+003,8.167862e+000
1.020066e+003,7.952820e+000
1.021031e+003,7.900391e+000
1.021995e+003,6.990417e+000
1.022959e+003,5.330017e+000
1.023923e+003,4.034286e+000
1.024887e+003,3.642059e+000
1.025852e+003,3.426437e+000
1.026816e+003,1.833694e+000
1.027780e+003,-1.844742e+000
1.028744e+003,-3.103928e+000
1.029709e+003,1.332932e+000
1.030673e+003,4.713501e+000
1.031637e+003,3.991638e+000
1.032601e+003,1.379440e+000
1.033566e+003,4.863892e-001
1.034530e+003,2.543777e+000
1.035494e+003,4.646942e+000
1.036458e+003,2.992203e+000
1.037422e+003,-4.351044e-001
1.038387e+003,-2.403488e+000
1.039351e+003,-2.815140e+000
1.040315e+003,-2.293015e+000
1.041279e+003,-1.130463e+000
1.042244e+003,4.984131e-001
1.043208e+003,1.514313e+000
1.044172e+003,1.513245e+000
1.045136e+003,1.294632e+000
1.046101e+003,7.251587e-001
1.047065e+003,2.111511e-001
1.048029e+003,-8.442688e-002
1.048993e+003,-1.449585e-001
1.049958e+003,5.316162e-002
1.050922e+003,5.598602e-001
1.051886e+003,1.431564e+000
1.052850e+003,3.603546e+000
1.053814e+003,5.718994e+000
1.054779e+003,5.384430e+000
1.055743e+003,2.386765e+000
1.056707e+003,-8.421478e-001
1.057671e+003,-1.302994e+000
1.058636e+003,1.006165e+000
1.059600e+003,1.994965e+000
1.060564e+003,4.406738e-001
1.061528e+003,-3.305664e-001
1.062493e+003,4.144592e-001
1.063457e+003,1.754150e+000
1.064421e+003,3.191986e+000
1.065385e+003,4.643982e+000
1.066349e+003,4.641098e+000
1.067314e+003,8.830109e-001
1.068278e+003,-2.695496e+000
1.069242e+003,-2.958267e+000
1.070206e+003,-1.262741e+000
1.071171e+003,1.004181e-001
1.072135e+003,1.347656e-001
1.073099e+003,-3.202362e-001
1.074063e+003,2.471771e-001
1.075028e+003,2.011124e+000
1.075992e+003,3.153458e+000
1.076956e+003,3.491196e+000
1.077920e+003,3.505676e+000
1.078885e+003,3.303909e+000
1.079849e+003,3.056961e+000
1.080813e+003,3.011124e+000
1.081777e+003,3.227325e+000
1.082741e+003,3.576935e+000
1.083706e+003,4.022552e+000
1.084670e+003,4.354156e+000
1.085634e+003,4.756256e+000
1.086598e+003,4.894363e+000
1.087563e+003,3.844833e+000
1.088527e+003,1.295868e+000
1.089491e+003,-1.292938e+000
1.090455e+003,-9.755402e-001
1.091420e+003,2.574814e+000
1.092384e+003,4.255646e+000
1.093348e+003,3.628891e+000
1.094312e+003,1.892242e+000
1.095276e+003,-1.098267e+000
1.096241e+003,-4.527374e+000
1.097205e+003,-5.826202e+000
1.098169e+003,-4.078369e+000
1.099133e+003,-2.215179e+000
1.100098e+003,-1.199677e+000
1.101062e+003,-4.661713e-001
1.102026e+003,3.102264e-001
1.102990e+003,1.116287e+000
1.103955e+003,1.840836e+000
1.104919e+003,2.390579e+000
1.105883e+003,2.562851e+000
1.106847e+003,1.784241e+000
1.107812e+003,5.036926e-002
1.108776e+003,-6.652985e-001
1.109740e+003,7.701111e-002
1.110704e+003,1.098312e+000
1.111668e+003,1.642548e+000
1.112633e+003,1.882385e+000
1.113597e+003,2.400024e+000
1.114561e+003,3.609406e+000
1.115525e+003,4.000717e+000
1.116490e+003,2.339951e+000
1.117454e+003,5.436554e-001
1.118418e+003,-5.253601e-002
1.119382e+003,4.088135e-001
1.120347e+003,1.058105e+000
1.121311e+003,1.282242e+000
1.122275e+003,1.113693e+000
1.123239e+003,7.393494e-001
1.124203e+003,3.500214e-001
1.125168e+003,6.581116e-001
1.126132e+003,1.980240e+000
1.127096e+003,3.400162e+000
1.128060e+003,4.103867e+000
1.129025e+003,4.226761e+000
1.129989e+003,4.627731e+000
1.130953e+003,5.613098e+000
1.131917e+003,6.174713e+000
1.132882e+003,5.686005e+000
1.133846e+003,5.190125e+000
1.134810e+003,5.630157e+000
1.135774e+003,6.579300e+000
1.136739e+003,6.801224e+000
1.137703e+003,5.610489e+000
1.138667e+003,3.897263e+000
1.139631e+003,3.062912e+000
1.140595e+003,3.192719e+000
1.141560e+003,4.522354e+000
1.142524e+003,7.452713e+000
1.143488e+003,1.048999e+001
1.144452e+003,1.206941e+001
1.145417e+003,1.289319e+001
1.146381e+003,1.583287e+001
1.147345e+003,2.204834e+001
1.148309e+003,2.734354e+001
1.149274e+003,3.027870e+001
1.150238e+003,3.264284e+001
1.151202e+003,3.531386e+001
1.152166e+003,3.819626e+001
1.153130e+003,4.075328e+001
1.154095e+003,4.268501e+001
1.155059e+003,4.433447e+001
1.156023e+003,4.654993e+001
1.156987e+003,4.908269e+001
1.157952e+003,5.004858e+001
1.158916e+003,4.958684e+001
1.159880e+003,4.793950e+001
1.160844e+003,4.462396e+001
1.161809e+003,4.006210e+001
1.162773e+003,3.521692e+001
1.163737e+003,2.978056e+001
1.164701e+003,2.555623e+001
1.165666e+003,2.448521e+001
1.166630e+003,2.330362e+001
1.167594e+003,2.028644e+001
1.168558e+003,1.663075e+001
1.169522e+003,1.395784e+001
1.170487e+003,1.282063e+001
1.171451e+003,1.284602e+001
1.172415e+003,1.380281e+001
1.173379e+003,1.528020e+001
1.174344e+003,1.509462e+001
1.175308e+003,1.323178e+001
1.176272e+003,1.150603e+001
1.177236e+003,1.065294e+001
1.178201e+003,1.016199e+001
1.179165e+003,9.358597e+000
1.180129e+003,8.171097e+000
1.181093e+003,6.672226e+000
1.182057e+003,3.882507e+000
1.183022e+003,2.465607e+000
1.183986e+003,4.615524e+000
1.184950e+003,7.580383e+000
1.185914e+003,8.739655e+000
1.186879e+003,7.910492e+000
1.187843e+003,6.465134e+000
1.188807e+003,5.466476e+000
1.189771e+003,4.970779e+000
1.190736e+003,5.517273e+000
1.191700e+003,7.301254e+000
1.192664e+003,7.794006e+000
1.193628e+003,5.811813e+000
1.194593e+003,3.878342e+000
1.195557e+003,4.350922e+000
1.196521e+003,6.326828e+000
1.197485e+003,6.382294e+000
1.198449e+003,3.285233e+000
1.199414e+003,6.342468e-001
1.200378e+003,6.170197e-001
1.201342e+003,1.081238e+000
1.202306e+003,7.392578e-001
1.203271e+003,-2.629700e-001
1.204235e+003,-1.397049e+000
1.205199e+003,-2.315964e+000
1.206163e+003,-2.725479e+000
1.207128e+003,-2.018951e+000
1.208092e+003,-7.904053e-002
1.209056e+003,-4.414368e-002
1.210020e+003,-3.029449e+000
1.210984e+003,-5.335312e+000
1.211949e+003,-5.074768e+000
1.212913e+003,-4.134155e+000
1.213877e+003,-5.213959e+000
1.214841e+003,-8.393448e+000
1.215806e+003,-1.086580e+001
1.216770e+003,-1.113924e+001
1.217734e+003,-1.113377e+001
1.218698e+003,-1.254384e+001
1.219663e+003,-1.436888e+001
1.220627e+003,-1.549634e+001
1.221591e+003,-1.564056e+001
1.222555e+003,-1.487057e+001
1.223520e+003,-1.318288e+001
1.224484e+003,-1.090305e+001
1.225448e+003,-9.750305e+000
1.226412e+003,-1.032468e+001
1.227376e+003,-1.085544e+001
1.228341e+003,-1.135837e+001
1.229305e+003,-1.186143e+001
1.230269e+003,-1.227280e+001
1.231233e+003,-1.273112e+001
1.232198e+003,-1.368919e+001
1.233162e+003,-1.528433e+001
1.234126e+003,-1.625006e+001
1.235090e+003,-1.512729e+001
1.236055e+003,-1.355286e+001
1.237019e+003,-1.346916e+001
1.237983e+003,-1.441301e+001
1.238947e+003,-1.484933e+001
1.239911e+003,-1.410760e+001
1.240876e+003,-1.319429e+001
1.241840e+003,-1.384021e+001
1.242804e+003,-1.621637e+001
1.243768e+003,-1.693481e+001
1.244733e+003,-1.458549e+001
1.245697e+003,-1.230548e+001
1.246661e+003,-9.845459e+000
1.247625e+003,-8.102631e+000
1.248590e+003,-7.875793e+000
1.249554e+003,-8.840012e+000
1.250518e+003,-1.023117e+001
1.251482e+003,-1.183075e+001
1.252447e+003,-1.306947e+001
1.253411e+003,-1.299837e+001
1.254375e+003,-1.204053e+001
1.255339e+003,-1.109251e+001
1.256303e+003,-1.017813e+001
1.257268e+003,-9.401810e+000
1.258232e+003,-8.857040e+000
1.259196e+003,-8.638718e+000
1.260160e+003,-8.966904e+000
1.261125e+003,-9.947861e+000
1.262089e+003,-1.032672e+001
1.263053e+003,-1.006657e+001
1.264017e+003,-9.159943e+000
1.264982e+003,-6.651657e+000
1.265946e+003,-4.138367e+000
1.266910e+003,-3.236038e+000
1.267874e+003,-3.853958e+000
1.268839e+003,-4.839203e+000
1.269803e+003,-5.438080e+000
1.270767e+003,-5.623718e+000
1.271731e+003,-5.069138e+000
1.272695e+003,-3.842606e+000
1.273660e+003,-4.030563e+000
1.274624e+003,-6.276489e+000
1.275588e+003,-8.705566e+000
1.276552e+003,-1.060493e+001
1.277517e+003,-1.176500e+001
1.278481e+003,-1.150952e+001
1.279445e+003,-9.670502e+000
1.280409e+003,-8.753448e+000
1.281374e+003,-1.047758e+001
1.282338e+003,-1.203535e+001
1.283302e+003,-1.162216e+001
1.284266e+003,-1.050154e+001
1.285230e+003,-1.029167e+001
1.286195e+003,-1.106993e+001
1.287159e+003,-1.151596e+001
1.288123e+003,-1.050554e+001
1.289087e+003,-8.681198e+000
1.290052e+003,-8.205627e+000
1.291016e+003,-9.697739e+000
1.291980e+003,-1.059349e+001
1.292944e+003,-1.023631e+001
1.293909e+003,-1.032394e+001
1.294873e+003,-1.217009e+001
1.295837e+003,-1.433824e+001
1.296801e+003,-1.454340e+001
1.297766e+003,-1.264282e+001
1.298730e+003,-1.106058e+001
1.299694e+003,-1.129962e+001
1.300658e+003,-1.200784e+001
1.301622e+003,-1.143451e+001
1.302587e+003,-1.030980e+001
1.303551e+003,-9.940887e+000
1.304515e+003,-1.046744e+001
1.305479e+003,-1.089748e+001
1.306444e+003,-1.038219e+001
1.307408e+003,-9.376587e+000
1.308372e+003,-9.438187e+000
1.309336e+003,-1.116251e+001
1.310301e+003,-1.212521e+001
1.311265e+003,-1.126035e+001
1.312229e+003,-1.071925e+001
1.313193e+003,-1.171477e+001
1.314157e+003,-1.298186e+001
1.315122e+003,-1.298090e+001
1.316086e+003,-1.176210e+001
1.317050e+003,-1.060330e+001
1.318014e+003,-1.029707e+001
1.318979e+003,-1.052199e+001
1.319943e+003,-1.089674e+001
1.320907e+003,-1.133025e+001
1.321871e+003,-1.130902e+001
1.322836e+003,-1.071725e+001
1.323800e+003,-1.039943e+001
1.324764e+003,-1.131766e+001
1.325728e+003,-1.249457e+001
1.326693e+003,-1.201561e+001
1.327657e+003,-9.840652e+000
1.328621e+003,-8.265900e+000
1.329585e+003,-7.804047e+000
1.330549e+003,-7.748230e+000
1.331514e+003,-7.969910e+000
1.332478e+003,-8.485886e+000
1.333442e+003,-9.424438e+000
1.334406e+003,-1.057118e+001
1.335371e+003,-1.144279e+001
1.336335e+003,-1.175105e+001
1.337299e+003,-1.166382e+001
1.338263e+003,-1.153609e+001
1.339228e+003,-1.140411e+001
1.340192e+003,-1.083240e+001
1.341156e+003,-9.538559e+000
1.342120e+003,-8.258453e+000
1.343084e+003,-6.672302e+000
1.344049e+003,-5.658310e+000
1.345013e+003,-6.193253e+000
1.345977e+003,-7.811386e+000
1.346941e+003,-9.297180e+000
1.347906e+003,-1.026115e+001
1.348870e+003,-1.050949e+001
1.349834e+003,-9.610184e+000
1.350798e+003,-8.103455e+000
1.351763e+003,-6.568024e+000
1.352727e+003,-5.189484e+000
1.353691e+003,-5.362625e+000
1.354655e+003,-7.997879e+000
1.355620e+003,-1.087276e+001
1.356584e+003,-1.092123e+001
1.357548e+003,-8.546066e+000
1.358512e+003,-7.775620e+000
1.359476e+003,-9.574463e+000
1.360441e+003,-1.106445e+001
1.361405e+003,-1.143825e+001
1.362369e+003,-1.135081e+001
1.363333e+003,-1.096034e+001
1.364298e+003,-1.037383e+001
1.365262e+003,-9.529816e+000
1.366226e+003,-8.537277e+000
1.367190e+003,-7.840622e+000
1.368155e+003,-7.842148e+000
1.369119e+003,-8.346512e+000
1.370083e+003,-8.742050e+000
1.371047e+003,-9.004562e+000
1.372011e+003,-9.025848e+000
1.372976e+003,-8.748779e+000
1.373940e+003,-8.493439e+000
1.374904e+003,-8.423233e+000
1.375868e+003,-8.339508e+000
1.376833e+003,-8.011536e+000
1.377797e+003,-7.456085e+000
1.378761e+003,-6.709839e+000
1.379725e+003,-5.556122e+000
1.380690e+003,-4.889603e+000
1.381654e+003,-6.176880e+000
1.382618e+003,-8.240845e+000
1.383582e+003,-9.917847e+000
1.384547e+003,-1.094379e+001
1.385511e+003,-1.027698e+001
1.386475e+003,-7.042038e+000
1.387439e+003,-3.210831e+000
1.388403e+003,-1.867783e+000
1.389368e+003,-3.015656e+000
1.390332e+003,-4.274750e+000
1.391296e+003,-5.593338e+000
1.392260e+003,-6.904861e+000
1.393225e+003,-9.188721e+000
1.394189e+003,-1.048262e+001
1.395153e+003,-8.494003e+000
1.396117e+003,-5.268570e+000
1.397082e+003,-4.277985e+000
1.398046e+003,-6.113297e+000
1.399010e+003,-8.047699e+000
1.399974e+003,-7.603119e+000
1.400938e+003,-5.827301e+000
1.401903e+003,-5.860321e+000
1.402867e+003,-8.231827e+000
1.403831e+003,-9.051270e+000
1.404795e+003,-7.614670e+000
1.405760e+003,-5.869751e+000
1.406724e+003,-3.959106e+000
1.407688e+003,-2.716751e+000
1.408652e+003,-3.221909e+000
1.409617e+003,-5.175949e+000
1.410581e+003,-7.338760e+000
1.411545e+003,-9.424408e+000
1.412509e+003,-1.055983e+001
1.413474e+003,-9.535172e+000
1.414438e+003,-7.299332e+000
1.415402e+003,-4.653046e+000
1.416366e+003,-1.905762e+000
1.417330e+003,-1.252563e+000
1.418295e+003,-4.054138e+000
1.419259e+003,-7.305023e+000
1.420223e+003,-7.200333e+000
1.421187e+003,-4.402237e+000
1.422152e+003,-2.760880e+000
1.423116e+003,-2.440735e+000
1.424080e+003,-2.711655e+000
1.425044e+003,-4.180573e+000
1.426009e+003,-5.523773e+000
1.426973e+003,-6.478851e+000
1.427937e+003,-6.834106e+000
1.428901e+003,-5.959900e+000
1.429865e+003,-4.145279e+000
1.430830e+003,-2.663086e+000
1.431794e+003,-2.383499e+000
1.432758e+003,-2.800934e+000
1.433722e+003,-2.828568e+000
1.434687e+003,-2.326355e+000
1.435651e+003,-1.681290e+000
1.436615e+003,-7.761230e-001
1.437579e+003,-4.635162e-001
1.438544e+003,-7.870483e-001
1.439508e+003,-1.680115e+000
1.440472e+003,-3.516235e+000
1.441436e+003,-5.638657e+000
1.442401e+003,-7.002838e+000
1.443365e+003,-7.379562e+000
1.444329e+003,-7.119553e+000
1.445293e+003,-6.407318e+000
1.446257e+003,-5.297974e+000
1.447222e+003,-3.624329e+000
1.448186e+003,-1.622925e+000
1.449150e+003,-7.023926e-001
1.450114e+003,-1.146362e+000
1.451079e+003,-2.106552e+000
1.452043e+003,-4.040237e+000
1.453007e+003,-5.527878e+000
1.453971e+003,-3.808334e+000
1.454936e+003,4.878540e-001
1.455900e+003,2.511398e+000
1.456864e+003,6.835938e-001
1.457828e+003,-1.278610e+000
1.458792e+003,-9.096069e-001
1.459757e+003,-2.180634e-001
1.460721e+003,-1.374329e+000
1.461685e+003,-3.326309e+000
1.462649e+003,-3.372406e+000
1.463614e+003,-1.005600e+000
1.464578e+003,8.717804e-001
1.465542e+003,-6.266632e-001
1.466506e+003,-3.968018e+000
1.467471e+003,-4.202896e+000
1.468435e+003,-3.305664e-001
1.469399e+003,2.082214e+000
1.470363e+003,2.038940e+000
1.471328e+003,1.226639e+000
1.472292e+003,-1.339111e+000
1.473256e+003,-3.402084e+000
1.474220e+003,-2.400879e+000
1.475184e+003,2.229767e-001
1.476149e+003,1.238678e+000
1.477113e+003,-2.886505e-001
1.478077e+003,-2.323044e+000
1.479041e+003,-2.832703e+000
1.480006e+003,-2.175766e+000
1.480970e+003,-1.668076e+000
1.481934e+003,-1.420822e+000
1.482898e+003,-1.238266e+000
1.483863e+003,-1.166748e+000
1.484827e+003,-1.124939e+000
1.485791e+003,-1.059509e+000
1.486755e+003,-9.075623e-001
1.487719e+003,-6.826324e-001
1.488684e+003,-4.048004e-001
1.489648e+003,-4.888916e-002
1.490612e+003,4.335632e-001
1.491576e+003,1.104279e+000
1.492541e+003,2.039261e+000
1.493505e+003,3.048355e+000
1.494469e+003,3.684372e+000
1.495433e+003,3.933029e+000
1.496398e+003,4.225342e+000
1.497362e+003,4.729080e+000
1.498326e+003,5.341797e+000
1.499290e+003,5.700409e+000
1.500255e+003,6.327988e+000
1.501219e+003,8.321884e+000
1.502183e+003,1.131902e+001
1.503147e+003,1.310989e+001
1.504111e+003,1.292076e+001
1.505076e+003,1.303270e+001
1.506040e+003,1.500055e+001
1.507004e+003,1.766255e+001
1.507968e+003,1.987512e+001
1.508933e+003,2.183289e+001
1.509897e+003,2.373198e+001
1.510861e+003,2.579814e+001
1.511825e+003,2.902715e+001
1.512790e+003,3.427301e+001
1.513754e+003,4.052965e+001
1.514718e+003,4.616603e+001
1.515682e+003,5.110808e+001
1.516646e+003,5.521532e+001
1.517611e+003,5.817296e+001
1.518575e+003,6.125842e+001
1.519539e+003,6.570219e+001
1.520503e+003,6.966005e+001
1.521468e+003,7.208255e+001
1.522432e+003,7.336696e+001
1.523396e+003,7.433258e+001
1.524360e+003,7.491547e+001
1.525325e+003,7.405057e+001
1.526289e+003,7.105844e+001
1.527253e+003,6.724287e+001
1.528217e+003,6.506503e+001
1.529182e+003,6.462930e+001
1.530146e+003,6.232465e+001
1.531110e+003,5.752396e+001
1.532074e+003,5.178673e+001
1.533039e+003,4.383882e+001
1.534003e+003,3.641289e+001
1.534967e+003,3.087648e+001
1.535931e+003,2.668791e+001
1.536896e+003,2.341861e+001
1.537860e+003,2.073578e+001
1.538824e+003,1.806300e+001
1.539788e+003,1.509305e+001
1.540752e+003,1.234781e+001
1.541717e+003,1.060422e+001
1.542681e+003,9.714630e+000
1.543645e+003,8.412079e+000
1.544609e+003,6.467133e+000
1.545573e+003,4.940216e+000
1.546538e+003,3.159088e+000
1.547502e+003,2.415680e+000
1.548466e+003,4.303848e+000
1.549430e+003,6.747894e+000
1.550395e+003,7.321838e+000
1.551359e+003,6.459946e+000
1.552323e+003,6.386932e+000
1.553287e+003,7.806808e+000
1.554252e+003,8.815964e+000
1.555216e+003,7.649246e+000
1.556180e+003,5.155045e+000
1.557144e+003,2.993988e+000
1.558109e+003,1.237396e+000
1.559073e+003,1.388657e+000
1.560037e+003,4.925873e+000
1.561001e+003,7.011642e+000
1.561966e+003,4.968872e+000
1.562930e+003,2.077271e+000
1.563894e+003,1.125366e+000
1.564858e+003,1.693405e+000
1.565823e+003,2.749069e+000
1.566787e+003,3.989914e+000
1.567751e+003,4.563614e+000
1.568715e+003,3.803864e+000
1.569679e+003,2.859100e+000
1.570644e+003,3.319702e+000
1.571608e+003,4.595840e+000
1.572572e+003,5.070160e+000
1.573536e+003,4.735138e+000
1.574500e+003,4.465729e+000
1.575465e+003,4.408249e+000
1.576429e+003,4.645279e+000
1.577393e+003,5.433731e+000
1.578357e+003,6.428818e+000
1.579322e+003,7.075058e+000
1.580286e+003,7.348770e+000
1.581250e+003,7.152206e+000
1.582214e+003,6.241180e+000
1.583179e+003,5.672226e+000
1.584143e+003,6.599747e+000
1.585107e+003,7.865509e+000
1.586071e+003,7.758728e+000
1.587036e+003,6.866867e+000
1.588000e+003,6.914047e+000
1.588964e+003,8.279190e+000
1.589928e+003,9.380676e+000
1.590893e+003,8.906479e+000
1.591857e+003,7.873276e+000
1.592821e+003,7.949066e+000
1.593785e+003,8.912521e+000
1.594750e+003,9.154678e+000
1.595714e+003,8.195938e+000
1.596678e+003,8.231644e+000
1.597642e+003,1.105650e+001
1.598606e+003,1.380009e+001
1.599571e+003,1.406923e+001
1.600535e+003,1.303818e+001
1.601499e+003,1.172646e+001
1.602463e+003,1.045300e+001
1.603427e+003,1.017876e+001
1.604392e+003,1.142310e+001
1.605356e+003,1.273550e+001
1.606320e+003,1.246313e+001
1.607284e+003,1.119276e+001
1.608249e+003,1.054054e+001
1.609213e+003,1.052119e+001
1.610177e+003,1.087016e+001
1.611141e+003,1.176303e+001
1.612106e+003,1.248109e+001
1.613070e+003,1.247302e+001
1.614034e+003,1.232822e+001
1.614998e+003,1.251288e+001
1.615963e+003,1.284482e+001
1.616927e+003,1.288651e+001
1.617891e+003,1.261542e+001
1.618855e+003,1.253123e+001
1.619820e+003,1.294102e+001
1.620784e+003,1.335495e+001
1.621748e+003,1.309512e+001
1.622712e+003,1.242204e+001
1.623677e+003,1.219351e+001
1.624641e+003,1.239261e+001
1.625605e+003,1.332344e+001
1.626569e+003,1.564676e+001
1.627533e+003,1.727438e+001
1.628498e+003,1.698680e+001
1.629462e+003,1.601170e+001
1.630426e+003,1.478183e+001
1.631390e+003,1.381125e+001
1.632354e+003,1.450385e+001
1.633319e+003,1.688428e+001
1.634283e+003,1.815855e+001
1.635247e+003,1.590294e+001
1.636211e+003,1.242731e+001
1.637176e+003,1.230022e+001
1.638140e+003,1.527380e+001
1.639104e+003,1.693423e+001
1.640068e+003,1.697951e+001
1.641033e+003,1.621661e+001
1.641997e+003,1.415958e+001
1.642961e+003,1.237801e+001
1.643925e+003,1.129733e+001
1.644890e+003,1.107150e+001
1.645854e+003,1.232133e+001
1.646818e+003,1.444693e+001
1.647782e+003,1.616473e+001
1.648747e+003,1.702592e+001
1.649711e+003,1.700754e+001
1.650675e+003,1.594931e+001
1.651639e+003,1.450195e+001
1.652604e+003,1.382343e+001
1.653568e+003,1.385980e+001
1.654532e+003,1.473431e+001
1.655496e+003,1.708058e+001
1.656460e+003,1.796753e+001
1.657425e+003,1.531578e+001
1.658389e+003,1.276225e+001
1.659353e+003,1.266751e+001
1.660317e+003,1.334703e+001
1.661281e+003,1.284729e+001
1.662246e+003,1.145763e+001
1.663210e+003,1.074205e+001
1.664174e+003,1.120770e+001
1.665138e+003,1.160291e+001
1.666103e+003,1.065198e+001
1.667067e+003,9.191437e+000
1.668031e+003,9.121597e+000
1.668995e+003,1.034569e+001
1.669960e+003,1.110648e+001
1.670924e+003,1.117242e+001
1.671888e+003,1.137405e+001
1.672852e+003,1.238191e+001
1.673817e+003,1.287448e+001
1.674781e+003,1.128506e+001
1.675745e+003,9.305649e+000
1.676709e+003,8.987350e+000
1.677674e+003,9.943619e+000
1.678638e+003,1.048680e+001
1.679602e+003,1.009804e+001
1.680566e+003,9.672775e+000
1.681531e+003,1.006987e+001
1.682495e+003,1.071835e+001
1.683459e+003,1.045988e+001
1.684423e+003,9.408524e+000
1.685387e+003,8.625443e+000
1.686352e+003,8.277893e+000
1.687316e+003,7.764069e+000
1.688280e+003,6.664902e+000
1.689244e+003,5.773941e+000
1.690208e+003,6.050491e+000
1.691173e+003,6.554138e+000
1.692137e+003,5.997635e+000
1.693101e+003,4.858780e+000
1.694065e+003,4.827667e+000
1.695030e+003,6.300339e+000
1.695994e+003,7.296768e+000
1.696958e+003,6.123306e+000
1.697922e+003,4.519028e+000
1.698887e+003,5.216095e+000
1.699851e+003,7.193710e+000
1.700815e+003,6.840454e+000
1.701779e+003,3.888031e+000
1.702744e+003,1.897873e+000
1.703708e+003,2.236572e+000
1.704672e+003,3.069626e+000
1.705636e+003,2.955154e+000
1.706601e+003,2.526382e+000
1.707565e+003,3.272522e+000
1.708529e+003,4.649994e+000
1.709493e+003,4.408981e+000
1.710458e+003,2.038437e+000
1.711422e+003,3.727875e-001
1.712386e+003,1.100739e+000
1.713350e+003,2.416962e+000
1.714314e+003,3.161774e+000
1.715279e+003,3.259995e+000
1.716243e+003,2.209625e+000
1.717207e+003,4.008484e-001
1.718171e+003,-2.309570e-001
1.719135e+003,8.621521e-001
1.720100e+003,1.888412e+000
1.721064e+003,1.598587e+000
1.722028e+003,7.263489e-001
1.722992e+003,3.823700e-001
1.723957e+003,5.129395e-001
1.724921e+003,2.466888e-001
1.725885e+003,-7.263184e-001
1.726849e+003,-9.735565e-001
1.727814e+003,6.953430e-001
1.728778e+003,2.085693e+000
1.729742e+003,2.126999e+000
1.730706e+003,1.536682e+000
1.731671e+003,3.547821e-001
1.732635e+003,-7.943268e-001
1.733599e+003,-9.007263e-002
1.734563e+003,2.341278e+000
1.735528e+003,3.546692e+000
1.736492e+003,1.944748e+000
1.737456e+003,-4.733887e-001
1.738420e+003,-1.453949e+000
1.739385e+003,-1.159927e+000
1.740349e+003,1.755066e-001
1.741313e+003,3.129471e+000
1.742277e+003,4.435379e+000
1.743241e+003,3.594666e+000
1.744206e+003,2.158981e+000
1.745170e+003,-9.761200e-001
1.746134e+003,-3.252396e+000
1.747098e+003,-2.610596e+000
1.748063e+003,-8.584442e-001
1.749027e+003,1.304474e-001
1.749991e+003,2.036438e-001
1.750955e+003,-2.282410e-001
1.751919e+003,-9.219666e-001
1.752884e+003,-1.568497e+000
1.753848e+003,-1.913849e+000
1.754812e+003,-2.002701e+000
1.755776e+003,-1.870621e+000
1.756741e+003,-1.455612e+000
1.757705e+003,-7.089233e-001
1.758669e+003,5.733643e-001
1.759633e+003,1.410721e+000
1.760598e+003,1.574753e+000
1.761562e+003,1.332016e+000
1.762526e+003,5.089722e-001
1.763490e+003,-2.814331e-001
1.764455e+003,-3.845825e-001
1.765419e+003,-2.686615e-001
1.766383e+003,-9.964752e-001
1.767347e+003,-2.449310e+000
1.768312e+003,-3.203293e+000
1.769276e+003,-2.594742e+000
1.770240e+003,-1.750854e+000
1.771204e+003,-1.814560e+000
1.772168e+003,-2.285767e+000
1.773133e+003,-1.938248e+000
1.774097e+003,-9.351501e-001
1.775061e+003,-1.176682e+000
1.776025e+003,-3.191620e+000
1.776990e+003,-4.385742e+000
1.777954e+003,-3.676712e+000
1.778918e+003,-2.189896e+000
1.779882e+003,-3.045654e-002
1.780846e+003,1.751938e+000
1.781811e+003,1.445313e+000
1.782775e+003,-2.852631e-001
1.783739e+003,-1.386536e+000
1.784703e+003,-1.560684e+000
1.785668e+003,-9.629364e-001
1.786632e+003,1.229935e+000
1.787596e+003,2.811142e+000
1.788560e+003,1.919098e+000
1.789525e+003,-1.880798e-001
1.790489e+003,-2.578247e+000
1.791453e+003,-4.637421e+000
1.792417e+003,-4.521622e+000
1.793382e+003,-2.082108e+000
1.794346e+003,1.818848e-001
1.795310e+003,9.420624e-001
1.796274e+003,1.108826e+000
1.797239e+003,1.828217e+000
1.798203e+003,2.792389e+000
1.799167e+003,2.681839e+000
1.800131e+003,1.152542e+000
1.801095e+003,-1.952362e-001
1.802060e+003,-1.306198e+000
1.803024e+003,-2.055756e+000
1.803988e+003,-2.640778e+000
1.804952e+003,-2.708115e+000
1.805917e+003,-1.742310e+000
1.806881e+003,-4.784088e-001
1.807845e+003,6.659698e-001
1.808809e+003,1.444946e+000
1.809773e+003,1.385818e+000
1.810738e+003,5.758209e-001
1.811702e+003,-9.423828e-002
1.812666e+003,-8.044434e-002
1.813630e+003,1.122742e-001
1.814595e+003,-2.267456e-001
1.815559e+003,-9.307556e-001
1.816523e+003,-1.240280e+000
1.817487e+003,-1.123001e+000
1.818452e+003,-7.889557e-001
1.819416e+003,-2.390289e-001
1.820380e+003,7.655182e-001
1.821344e+003,3.054688e+000
1.822309e+003,4.573959e+000
1.823273e+003,3.365005e+000
1.824237e+003,1.539200e+000
1.825201e+003,1.401886e+000
1.826166e+003,2.346634e+000
1.827130e+003,2.546402e+000
1.828094e+003,1.665054e+000
1.829058e+003,5.545197e-001
1.830022e+003,-5.186920e-001
1.830987e+003,-1.285736e+000
1.831951e+003,-1.254364e+000
1.832915e+003,-9.738159e-001
1.833879e+003,-1.504349e+000
1.834844e+003,-2.456390e+000
1.835808e+003,-2.563736e+000
1.836772e+003,-1.642944e+000
1.837736e+003,-6.060791e-002
1.838700e+003,2.032120e+000
1.839665e+003,3.640335e+000
1.840629e+003,3.830276e+000
1.841593e+003,3.120834e+000
1.842557e+003,2.532043e+000
1.843522e+003,2.056763e+000
1.844486e+003,1.365631e+000
1.845450e+003,-1.346741e-001
1.846414e+003,-4.814148e-001
1.847379e+003,1.289200e+000
1.848343e+003,2.643326e+000
1.849307e+003,3.041443e+000
1.850271e+003,2.654984e+000
1.851236e+003,8.706055e-001
1.852200e+003,-1.050583e+000
1.853164e+003,-1.245895e+000
1.854128e+003,-1.009064e-001
1.855093e+003,5.349274e-001
1.856057e+003,4.478455e-002
1.857021e+003,-6.644287e-001
1.857985e+003,-9.233551e-001
1.858949e+003,-7.880249e-001
1.859914e+003,-6.811523e-002
1.860878e+003,1.041367e+000
1.861842e+003,1.158661e+000
1.862806e+003,2.222137e-001
1.863771e+003,-2.459412e-001
1.864735e+003,9.118652e-002
1.865699e+003,3.246002e-001
1.866663e+003,-6.072998e-003
1.867627e+003,-3.131714e-001
1.868592e+003,-2.065125e-001
1.869556e+003,2.227936e-001
1.870520e+003,1.003448e+000
1.871484e+003,2.063492e+000
1.872449e+003,3.078278e+000
1.873413e+003,4.411957e+000
1.874377e+003,5.012100e+000
1.875341e+003,3.371933e+000
1.876306e+003,2.130447e+000
1.877270e+003,3.375229e+000
1.878234e+003,5.022705e+000
1.879198e+003,4.612686e+000
1.880163e+003,3.223541e+000
1.881127e+003,3.374680e+000
1.882091e+003,4.974060e+000
1.883055e+003,5.825745e+000
1.884020e+003,5.041122e+000
1.884984e+003,3.736404e+000
1.885948e+003,2.914413e+000
1.886912e+003,2.482193e+000
1.887876e+003,2.376053e+000
1.888841e+003,2.518433e+000
1.889805e+003,1.498764e+000
1.890769e+003,-1.327499e+000
1.891733e+003,-1.506775e+000
1.892698e+003,3.047485e+000
1.893662e+003,5.984192e+000
1.894626e+003,3.855515e+000
1.895590e+003,1.248962e+000
1.896554e+003,1.572220e+000
1.897519e+003,3.047119e+000
1.898483e+003,3.325150e+000
1.899447e+003,2.793549e+000
1.900411e+003,3.686951e+000
1.901376e+003,6.550491e+000
1.902340e+003,7.855820e+000
1.903304e+003,5.206177e+000
1.904268e+003,2.352142e+000
1.905233e+003,1.403503e+000
1.906197e+003,1.561676e+000
1.907161e+003,2.627487e+000
1.908125e+003,3.898788e+000
1.909090e+003,3.807571e+000
1.910054e+003,2.685944e+000
1.911018e+003,2.807541e+000
1.911982e+003,4.742691e+000
1.912947e+003,6.152466e+000
1.913911e+003,5.300049e+000
1.914875e+003,3.612366e+000
1.915839e+003,3.280212e+000
1.916803e+003,4.007523e+000
1.917768e+003,4.628815e+000
1.918732e+003,5.229507e+000
1.919696e+003,5.456589e+000
1.920660e+003,5.166031e+000
1.921625e+003,5.013931e+000
1.922589e+003,5.010086e+000
1.923553e+003,5.278137e+000
1.924517e+003,6.147766e+000
1.925481e+003,7.104202e+000
1.926446e+003,7.960632e+000
1.927410e+003,8.485367e+000
1.928374e+003,8.032486e+000
1.929338e+003,6.620163e+000
1.930303e+003,5.410690e+000
1.931267e+003,4.756683e+000
1.932231e+003,4.456421e+000
1.933195e+003,4.375595e+000
1.934160e+003,4.512177e+000
1.935124e+003,5.470642e+000
1.936088e+003,6.120834e+000
1.937052e+003,4.293869e+000
1.938017e+003,1.450485e+000
1.938981e+003,1.084274e+000
1.939945e+003,3.345245e+000
1.940909e+003,5.834488e+000
1.941874e+003,7.316513e+000
1.942838e+003,7.709213e+000
1.943802e+003,6.946960e+000
1.944766e+003,5.659775e+000
1.945730e+003,4.919952e+000
1.946695e+003,4.652145e+000
1.947659e+003,4.723221e+000
1.948623e+003,5.168091e+000
1.949587e+003,5.296326e+000
1.950552e+003,4.942383e+000
1.951516e+003,4.806259e+000
1.952480e+003,5.117828e+000
1.953444e+003,5.706100e+000
1.954408e+003,6.619476e+000
1.955373e+003,7.498291e+000
1.956337e+003,8.130508e+000
1.957301e+003,8.436203e+000
1.958265e+003,7.587677e+000
1.959230e+003,5.331985e+000
1.960194e+003,4.066132e+000
1.961158e+003,4.314041e+000
1.962122e+003,5.044464e+000
1.963087e+003,6.912674e+000
1.964051e+003,8.122070e+000
1.965015e+003,6.733643e+000
1.965979e+003,5.120468e+000
1.966944e+003,6.344101e+000
1.967908e+003,8.779327e+000
1.968872e+003,8.957016e+000
1.969836e+003,6.791748e+000
1.970801e+003,4.663696e+000
1.971765e+003,3.658997e+000
1.972729e+003,3.627808e+000
1.973693e+003,4.611313e+000
1.974657e+003,5.951218e+000
1.975622e+003,6.432404e+000
1.976586e+003,6.528961e+000
1.977550e+003,8.040833e+000
1.978514e+003,1.058192e+001
1.979479e+003,1.150400e+001
1.980443e+003,1.049234e+001
1.981407e+003,9.610611e+000
1.982371e+003,9.664474e+000
1.983335e+003,9.607559e+000
1.984300e+003,8.529846e+000
1.985264e+003,7.315994e+000
1.986228e+003,7.480164e+000
1.987192e+003,8.636642e+000
1.988157e+003,8.738266e+000
1.989121e+003,7.499344e+000
1.990085e+003,6.824722e+000
1.991049e+003,6.951920e+000
1.992014e+003,7.248367e+000
1.992978e+003,7.995483e+000
1.993942e+003,8.336060e+000
1.994906e+003,7.610626e+000
1.995871e+003,6.765488e+000
1.996835e+003,6.451965e+000
1.997799e+003,6.528381e+000
1.998763e+003,6.852600e+000
1.999728e+003,7.267685e+000
