5.003444e+002,4.156183e+001
5.013087e+002,4.175966e+001
5.022729e+002,3.973659e+001
5.032371e+002,3.659679e+001
5.042014e+002,3.572646e+001
5.051656e+002,3.680154e+001
5.061298e+002,3.811644e+001
5.070941e+002,3.802831e+001
5.080583e+002,3.598006e+001
5.090225e+002,3.533252e+001
5.099868e+002,3.742618e+001
5.109510e+002,3.907437e+001
5.119152e+002,3.814861e+001
5.128795e+002,3.437178e+001
5.138437e+002,3.165303e+001
5.148079e+002,3.242934e+001
5.157722e+002,3.357710e+001
5.167364e+002,3.379765e+001
5.177006e+002,3.290317e+001
5.186649e+002,3.169489e+001
5.196291e+002,3.127097e+001
5.205933e+002,3.127008e+001
5.215576e+002,3.107976e+001
5.225218e+002,3.053928e+001
5.234860e+002,2.978896e+001
5.244503e+002,2.923672e+001
5.254145e+002,2.919392e+001
5.263787e+002,2.857637e+001
5.273430e+002,2.675378e+001
5.283072e+002,2.477542e+001
5.292714e+002,2.415637e+001
5.302357e+002,2.557118e+001
5.311999e+002,2.654398e+001
5.321641e+002,2.672841e+001
5.331284e+002,2.677699e+001
5.340926e+002,2.722762e+001
5.350568e+002,2.824620e+001
5.360211e+002,2.896497e+001
5.369853e+002,2.874651e+001
5.379495e+002,2.808891e+001
5.389138e+002,2.723595e+001
5.398780e+002,2.628896e+001
5.408422e+002,2.521643e+001
5.418065e+002,2.380803e+001
5.427707e+002,2.215781e+001
5.437349e+002,2.110092e+001
5.446992e+002,2.098737e+001
5.456634e+002,2.150299e+001
5.466276e+002,2.157928e+001
5.475919e+002,2.064684e+001
5.485561e+002,2.006282e+001
5.495203e+002,2.029445e+001
5.504846e+002,2.065916e+001
5.514488e+002,2.003415e+001
5.524130e+002,1.741948e+001
5.533773e+002,1.543976e+001
5.543415e+002,1.572437e+001
5.553057e+002,1.701259e+001
5.562700e+002,1.799533e+001
5.572342e+002,1.785666e+001
5.581984e+002,1.716678e+001
5.591627e+002,1.760347e+001
5.601269e+002,1.876172e+001
5.610911e+002,1.969940e+001
5.620554e+002,1.991513e+001
5.630196e+002,1.936938e+001
5.639838e+002,1.808710e+001
5.649481e+002,1.506798e+001
5.659123e+002,1.277736e+001
5.668765e+002,1.226648e+001
5.678408e+002,1.297769e+001
5.688050e+002,1.304784e+001
5.697692e+002,1.095148e+001
5.707335e+002,9.311447e+000
5.716977e+002,9.428452e+000
5.726619e+002,1.038193e+001
5.736262e+002,1.084705e+001
5.745904e+002,9.861176e+000
5.755546e+002,8.477921e+000
5.765189e+002,8.298996e+000
5.774831e+002,8.786545e+000
5.784473e+002,9.162933e+000
5.794116e+002,8.955017e+000
5.803758e+002,8.337280e+000
5.813400e+002,8.566895e+000
5.823043e+002,1.011694e+001
5.832685e+002,1.062520e+001
5.842327e+002,8.517273e+000
5.851970e+002,4.454391e+000
5.861612e+002,2.252670e+000
5.871254e+002,3.803848e+000
5.880897e+002,5.752838e+000
5.890539e+002,7.957062e+000
5.900181e+002,9.975998e+000
5.909824e+002,1.136078e+001
5.919466e+002,1.190503e+001
5.929108e+002,1.153990e+001
5.938751e+002,1.007663e+001
5.948393e+002,8.015366e+000
5.958035e+002,6.054428e+000
5.967678e+002,4.722046e+000
5.977320e+002,4.055115e+000
5.986962e+002,4.137512e+000
5.996605e+002,4.803421e+000
6.006247e+002,5.481308e+000
6.015889e+002,6.037933e+000
6.025532e+002,6.470596e+000
6.035174e+002,6.562607e+000
6.044816e+002,5.888443e+000
6.054459e+002,5.351822e+000
6.064101e+002,4.952652e+000
6.073743e+002,4.786041e+000
6.083386e+002,5.072037e+000
6.093028e+002,6.197128e+000
6.102670e+002,7.335403e+000
6.112313e+002,7.831696e+000
6.121955e+002,7.915924e+000
6.131597e+002,7.964172e+000
6.141240e+002,8.216217e+000
6.150882e+002,8.448975e+000
6.160524e+002,7.386810e+000
6.170167e+002,5.333939e+000
6.179809e+002,3.848557e+000
6.189451e+002,3.644562e+000
6.199094e+002,4.520157e+000
6.208736e+002,5.360382e+000
6.218378e+002,6.980545e+000
6.228021e+002,7.794479e+000
6.237663e+002,7.104263e+000
6.247305e+002,5.702866e+000
6.256948e+002,4.774261e+000
6.266590e+002,4.674759e+000
6.276232e+002,5.081848e+000
6.285875e+002,6.398911e+000
6.295517e+002,7.824829e+000
6.305159e+002,8.429321e+000
6.314802e+002,7.689148e+000
6.324444e+002,6.011139e+000
6.334086e+002,4.392700e+000
6.343729e+002,2.934784e+000
6.353371e+002,1.631973e+000
6.363013e+002,3.684692e-001
6.372656e+002,-6.799927e-001
6.382298e+002,-7.445984e-001
6.391940e+002,1.785599e+000
6.401583e+002,3.067490e+000
6.411225e+002,2.541336e+000
6.420867e+002,1.274109e+000
6.430510e+002,4.049988e-001
6.440152e+002,1.829681e-001
6.449794e+002,4.917908e-002
6.459437e+002,-4.965363e-001
6.469079e+002,-9.606018e-001
6.478721e+002,-6.430664e-001
6.488364e+002,5.707245e-001
6.498006e+002,1.825638e+000
6.507648e+002,1.137466e+000
6.517291e+002,-7.313690e-001
6.526933e+002,-1.976563e+000
6.536575e+002,-2.291641e+000
6.546218e+002,-1.587494e+000
6.555860e+002,4.738159e-001
6.565502e+002,5.531570e+000
6.575145e+002,8.127045e+000
6.584787e+002,7.327484e+000
6.594429e+002,5.216354e+000
6.604072e+002,3.093933e+000
6.613714e+002,1.062759e+000
6.623356e+002,-3.542175e-001
6.632999e+002,-2.912598e-001
6.642641e+002,-2.456665e-001
6.652283e+002,-1.173584e+000
6.661926e+002,-2.884277e+000
6.671568e+002,-4.366837e+000
6.681210e+002,-4.465179e+000
6.690853e+002,-3.451920e+000
6.700495e+002,-2.090454e+000
6.710137e+002,-4.286041e-001
6.719780e+002,1.217422e+000
6.729422e+002,2.511642e+000
6.739064e+002,3.344650e+000
6.748707e+002,4.127411e+000
6.758349e+002,5.378784e+000
6.767991e+002,5.989258e+000
6.777634e+002,5.195801e+000
6.787276e+002,3.304123e+000
6.796918e+002,1.988800e+000
6.806561e+002,2.211441e+000
6.816203e+002,2.548126e+000
6.825845e+002,2.839233e+000
6.835488e+002,2.793594e+000
6.845130e+002,1.901077e+000
6.854772e+002,-3.123474e-001
6.864415e+002,-2.900055e+000
6.874057e+002,-4.227783e+000
6.883699e+002,-4.565521e+000
6.893342e+002,-3.863174e+000
6.902984e+002,-1.948059e+000
6.912626e+002,9.306488e-001
6.922269e+002,2.822708e+000
6.931911e+002,3.544357e+000
6.941553e+002,3.806137e+000
6.951196e+002,2.939484e+000
6.960838e+002,1.661957e+000
6.970480e+002,1.431320e+000
6.980123e+002,3.340698e+000
6.989765e+002,4.365509e+000
6.999407e+002,2.532150e+000
7.009050e+002,5.249023e-003
7.018692e+002,-1.517426e+000
7.028334e+002,-1.483047e+000
7.037977e+002,-7.523651e-001
7.047619e+002,-5.306549e-001
7.057261e+002,-4.978638e-001
7.066904e+002,-9.135437e-002
7.076546e+002,7.660980e-001
7.086188e+002,1.703766e+000
7.095831e+002,2.141159e+000
7.105473e+002,1.948242e+000
7.115115e+002,1.315674e+000
7.124758e+002,-3.020325e-001
7.134400e+002,-1.808258e+000
7.144042e+002,-2.466415e+000
7.153685e+002,-2.216202e+000
7.163327e+002,-1.731628e+000
7.172969e+002,-6.766052e-001
7.182612e+002,-3.713989e-002
7.192254e+002,-9.463043e-001
7.201896e+002,-2.630295e+000
7.211539e+002,-3.345886e+000
7.221181e+002,-1.454468e+000
7.230823e+002,1.696899e+000
7.240466e+002,2.465302e+000
7.250108e+002,1.395920e+000
7.259750e+002,-2.360382e-001
7.269393e+002,-1.985382e+000
7.279035e+002,-3.795685e+000
7.288677e+002,-4.241592e+000
7.298320e+002,-1.113693e+000
7.307962e+002,1.123566e+000
7.317604e+002,1.668411e+000
7.327247e+002,1.403870e+000
7.336889e+002,1.487564e+000
7.346531e+002,2.154556e+000
7.356174e+002,2.586380e+000
7.365816e+002,3.063019e+000
7.375458e+002,3.087585e+000
7.385101e+002,1.548904e+000
7.394743e+002,-1.383011e+000
7.404385e+002,-3.815292e+000
7.414028e+002,-2.300858e+000
7.423670e+002,1.812912e+000
7.433312e+002,2.995453e+000
7.442955e+002,8.759308e-001
7.452597e+002,-2.300522e+000
7.462239e+002,-4.304688e+000
7.471882e+002,-5.186798e+000
7.481524e+002,-4.636612e+000
7.491166e+002,-1.679520e+000
7.500809e+002,9.958496e-001
7.510451e+002,2.622971e+000
7.520093e+002,3.159378e+000
7.529736e+002,2.660172e+000
7.539378e+002,2.828217e-001
7.549020e+002,-1.447357e+000
7.558663e+002,-4.968109e-001
7.568306e+002,1.796997e+000
7.577948e+002,3.550369e+000
7.587590e+002,3.608505e+000
7.597233e+002,2.554489e+000
7.606875e+002,2.406448e+000
7.616517e+002,3.116150e+000
7.626160e+002,3.432190e+000
7.635802e+002,2.731735e+000
7.645444e+002,1.839447e+000
7.655087e+002,2.753036e+000
7.664729e+002,7.302872e+000
7.674371e+002,9.399628e+000
7.684014e+002,7.060623e+000
7.693656e+002,4.098953e+000
7.703298e+002,2.852600e+000
7.712941e+002,3.631927e+000
7.722583e+002,5.191177e+000
7.732225e+002,8.087921e+000
7.741868e+002,9.875122e+000
7.751510e+002,7.337143e+000
7.761152e+002,2.027832e+000
7.770795e+002,-2.285599e+000
7.780437e+002,-2.276779e+000
7.790079e+002,1.451767e+000
7.799722e+002,4.401581e+000
7.809364e+002,6.802368e+000
7.819006e+002,8.048889e+000
7.828649e+002,7.508835e+000
7.838291e+002,5.734863e+000
7.847933e+002,4.307800e+000
7.857576e+002,2.863434e+000
7.867218e+002,2.270004e+000
7.876860e+002,3.354187e+000
7.886503e+002,4.933487e+000
7.896145e+002,6.133850e+000
7.905787e+002,6.686111e+000
7.915430e+002,6.806839e+000
7.925072e+002,6.093369e+000
7.934714e+002,5.266495e+000
7.944357e+002,5.825363e+000
7.953999e+002,7.555634e+000
7.963641e+002,8.618393e+000
7.973284e+002,6.792007e+000
7.982926e+002,1.804947e+000
7.992568e+002,-6.239319e-001
8.002211e+002,-4.913330e-002
8.011853e+002,9.315796e-001
8.021495e+002,1.748123e+000
8.031138e+002,2.563766e+000
8.040780e+002,3.458923e+000
8.050422e+002,4.307129e+000
8.060065e+002,5.122604e+000
8.069707e+002,6.126663e+000
8.079349e+002,6.852142e+000
8.088992e+002,6.566925e+000
8.098634e+002,5.214111e+000
8.108276e+002,4.060333e+000
8.117919e+002,5.465652e+000
8.127561e+002,7.881302e+000
8.137203e+002,8.394180e+000
8.146846e+002,6.815765e+000
8.156488e+002,4.507111e+000
8.166130e+002,2.961304e+000
8.175773e+002,2.134232e+000
8.185415e+002,2.194946e+000
8.195057e+002,3.791519e+000
8.204700e+002,5.087906e+000
8.214342e+002,5.263428e+000
8.223984e+002,4.676895e+000
8.233627e+002,4.319275e+000
8.243269e+002,4.557938e+000
8.252911e+002,5.135880e+000
8.262554e+002,6.139709e+000
8.272196e+002,7.146179e+000
8.281838e+002,7.568024e+000
8.291481e+002,7.274841e+000
8.301123e+002,6.840378e+000
8.310765e+002,7.454376e+000
8.320408e+002,8.874176e+000
8.330050e+002,8.883209e+000
8.339692e+002,7.144623e+000
8.349335e+002,4.786896e+000
8.358977e+002,2.757874e+000
8.368619e+002,1.023163e+000
8.378262e+002,3.447266e-001
8.387904e+002,1.810867e+000
8.397546e+002,2.906189e+000
8.407189e+002,2.795074e+000
8.416831e+002,1.968277e+000
8.426473e+002,1.310211e+000
8.436116e+002,1.200485e+000
8.445758e+002,1.477737e+000
8.455400e+002,1.662781e+000
8.465043e+002,1.985260e+000
8.474685e+002,3.246170e+000
8.484327e+002,5.552795e+000
8.493970e+002,7.931091e+000
8.503612e+002,8.559845e+000
8.513254e+002,7.001602e+000
8.522897e+002,6.197723e+000
8.532539e+002,6.110672e+000
8.542181e+002,6.534424e+000
8.551824e+002,7.869843e+000
8.561466e+002,1.004701e+001
8.571108e+002,1.150177e+001
8.580751e+002,1.100810e+001
8.590393e+002,1.030225e+001
8.600035e+002,9.846405e+000
8.609678e+002,9.738815e+000
8.619320e+002,1.000841e+001
8.628962e+002,1.064615e+001
8.638605e+002,1.164206e+001
8.648247e+002,1.348390e+001
8.657889e+002,1.547519e+001
8.667532e+002,1.581558e+001
8.677174e+002,1.427644e+001
8.686816e+002,1.254362e+001
8.696459e+002,1.269318e+001
8.706101e+002,1.515688e+001
8.715743e+002,1.672357e+001
8.725386e+002,1.690575e+001
8.735028e+002,1.694678e+001
8.744670e+002,1.708813e+001
8.754313e+002,1.713843e+001
8.763955e+002,1.654803e+001
8.773597e+002,1.476471e+001
8.783240e+002,1.392798e+001
8.792882e+002,1.658293e+001
8.802524e+002,2.000887e+001
8.812167e+002,2.161191e+001
8.821809e+002,2.109906e+001
8.831451e+002,2.029100e+001
8.841094e+002,2.168889e+001
8.850736e+002,2.514810e+001
8.860378e+002,2.564777e+001
8.870021e+002,2.224326e+001
8.879663e+002,1.934378e+001
8.889305e+002,1.998920e+001
8.898948e+002,2.329601e+001
8.908590e+002,2.478242e+001
8.918232e+002,2.277879e+001
8.927875e+002,2.140077e+001
8.937517e+002,2.174806e+001
8.947159e+002,2.282645e+001
8.956802e+002,2.363626e+001
8.966444e+002,2.396164e+001
8.976086e+002,2.461545e+001
8.985729e+002,2.704448e+001
8.995371e+002,2.993593e+001
9.005013e+002,3.073994e+001
9.014656e+002,2.979669e+001
9.024298e+002,2.886273e+001
9.033940e+002,2.924245e+001
9.043583e+002,3.058000e+001
9.053225e+002,3.074902e+001
9.062867e+002,2.784361e+001
9.072510e+002,2.608733e+001
9.082152e+002,2.625739e+001
9.091794e+002,2.743065e+001
9.101437e+002,2.891177e+001
9.111079e+002,3.059035e+001
9.120721e+002,3.191595e+001
9.130364e+002,3.259743e+001
9.140006e+002,3.249963e+001
9.149648e+002,3.105081e+001
9.159291e+002,2.895134e+001
9.168933e+002,2.738452e+001
9.178575e+002,2.712407e+001
9.188218e+002,2.780464e+001
9.197860e+002,2.848947e+001
9.207502e+002,2.912949e+001
9.217145e+002,2.970973e+001
9.226787e+002,3.061389e+001
9.236429e+002,3.137546e+001
9.246072e+002,3.116083e+001
9.255714e+002,2.971033e+001
9.265356e+002,2.815623e+001
9.274999e+002,2.647104e+001
9.284641e+002,2.484665e+001
9.294283e+002,2.335231e+001
9.303926e+002,2.205194e+001
9.313568e+002,2.083220e+001
9.323210e+002,1.957956e+001
9.332853e+002,1.884654e+001
9.342495e+002,2.070729e+001
9.352137e+002,2.342532e+001
9.361780e+002,2.398860e+001
9.371422e+002,2.187184e+001
9.381064e+002,1.905441e+001
9.390707e+002,1.807509e+001
9.400349e+002,1.906204e+001
9.409991e+002,2.022237e+001
9.419634e+002,2.266588e+001
9.429276e+002,2.381691e+001
9.438918e+002,2.141666e+001
9.448561e+002,1.785287e+001
9.458203e+002,1.773779e+001
9.467845e+002,2.315321e+001
9.477488e+002,2.809462e+001
9.487130e+002,2.722432e+001
9.496772e+002,2.454613e+001
9.506415e+002,2.278331e+001
9.516057e+002,2.230064e+001
9.525699e+002,2.222267e+001
9.535342e+002,2.166830e+001
9.544984e+002,2.068872e+001
9.554626e+002,2.018097e+001
9.564269e+002,2.041472e+001
9.573911e+002,2.055347e+001
9.583553e+002,1.998630e+001
9.593196e+002,1.929633e+001
9.602838e+002,1.977515e+001
9.612480e+002,2.199155e+001
9.622123e+002,2.294655e+001
9.631765e+002,2.022971e+001
9.641407e+002,1.771213e+001
9.651050e+002,1.762550e+001
9.660692e+002,1.906903e+001
9.670334e+002,1.971609e+001
9.679977e+002,1.815608e+001
9.689619e+002,1.586934e+001
9.699261e+002,1.626114e+001
9.708904e+002,1.831464e+001
9.718546e+002,1.930157e+001
9.728188e+002,1.839864e+001
9.737831e+002,1.702550e+001
9.747473e+002,1.735173e+001
9.757115e+002,1.996153e+001
9.766758e+002,2.128136e+001
9.776400e+002,1.982393e+001
9.786042e+002,1.907100e+001
9.795685e+002,2.037337e+001
9.805327e+002,2.246384e+001
9.814969e+002,2.380269e+001
9.824612e+002,2.395200e+001
9.834254e+002,2.332349e+001
9.843896e+002,2.145222e+001
9.853539e+002,1.931845e+001
9.863181e+002,1.819987e+001
9.872823e+002,1.793288e+001
9.882466e+002,1.751550e+001
9.892108e+002,1.619025e+001
9.901750e+002,1.431947e+001
9.911393e+002,1.350105e+001
9.921035e+002,1.412866e+001
9.930677e+002,1.462935e+001
9.940320e+002,1.528592e+001
9.949962e+002,1.576291e+001
9.959604e+002,1.530379e+001
9.969247e+002,1.399249e+001
9.978889e+002,1.388805e+001
9.988531e+002,1.695830e+001
9.998174e+002,1.993779e+001
1.000782e+003,2.040276e+001
1.001746e+003,1.981688e+001
1.002710e+003,2.075136e+001
1.003674e+003,2.408002e+001
1.004639e+003,2.779582e+001
1.005603e+003,2.824162e+001
1.006567e+003,2.498463e+001
1.007531e+003,2.283995e+001
1.008495e+003,2.203694e+001
1.009460e+003,2.180847e+001
1.010424e+003,2.192813e+001
1.011388e+003,2.233122e+001
1.012352e+003,2.273994e+001
1.013317e+003,2.345927e+001
1.014281e+003,2.326196e+001
1.015245e+003,2.090857e+001
1.016209e+003,1.835919e+001
1.017174e+003,1.724733e+001
1.018138e+003,1.749777e+001
1.019102e+003,1.786644e+001
1.020066e+003,1.741653e+001
1.021031e+003,1.629253e+001
1.021995e+003,1.419901e+001
1.022959e+003,1.131096e+001
1.023923e+003,9.536072e+000
1.024887e+003,9.845566e+000
1.025852e+003,1.088916e+001
1.026816e+003,1.047514e+001
1.027780e+003,8.311371e+000
1.028744e+003,6.479584e+000
1.029709e+003,4.868744e+000
1.030673e+003,3.856384e+000
1.031637e+003,4.291382e+000
1.032601e+003,5.032150e+000
1.033566e+003,4.203903e+000
1.034530e+003,1.249496e+000
1.035494e+003,-1.559677e+000
1.036458e+003,-1.481613e+000
1.037422e+003,1.866608e-001
1.038387e+003,1.581131e+000
1.039351e+003,2.490768e+000
1.040315e+003,2.463226e+000
1.041279e+003,9.530334e-001
1.042244e+003,-1.391052e+000
1.043208e+003,-1.413055e+000
1.044172e+003,3.110291e+000
1.045136e+003,5.958344e+000
1.046101e+003,6.235992e+000
1.047065e+003,5.795120e+000
1.048029e+003,5.644653e+000
1.048993e+003,5.775528e+000
1.049958e+003,5.762222e+000
1.050922e+003,5.450348e+000
1.051886e+003,5.004318e+000
1.052850e+003,4.509491e+000
1.053814e+003,3.995377e+000
1.054779e+003,3.539703e+000
1.055743e+003,3.116928e+000
1.056707e+003,2.484482e+000
1.057671e+003,1.272369e+000
1.058636e+003,-5.480347e-001
1.059600e+003,-6.390381e-001
1.060564e+003,3.160522e+000
1.061528e+003,5.733765e+000
1.062493e+003,5.413452e+000
1.063457e+003,3.998871e+000
1.064421e+003,3.584778e+000
1.065385e+003,4.438812e+000
1.066349e+003,5.113495e+000
1.067314e+003,4.792358e+000
1.068278e+003,4.160965e+000
1.069242e+003,3.654572e+000
1.070206e+003,3.272461e+000
1.071171e+003,2.946228e+000
1.072135e+003,2.596130e+000
1.073099e+003,2.106384e+000
1.074063e+003,1.315948e+000
1.075028e+003,1.761475e-001
1.075992e+003,2.234344e-001
1.076956e+003,2.142197e+000
1.077920e+003,3.712952e+000
1.078885e+003,3.911942e+000
1.079849e+003,3.456863e+000
1.080813e+003,3.626892e+000
1.081777e+003,4.689880e+000
1.082741e+003,5.903061e+000
1.083706e+003,7.421600e+000
1.084670e+003,8.285034e+000
1.085634e+003,7.479019e+000
1.086598e+003,5.653595e+000
1.087563e+003,4.020538e+000
1.088527e+003,3.329788e+000
1.089491e+003,3.459442e+000
1.090455e+003,4.139771e+000
1.091420e+003,5.366623e+000
1.092384e+003,5.737183e+000
1.093348e+003,5.206070e+000
1.094312e+003,3.808929e+000
1.095276e+003,7.969208e-001
1.096241e+003,-2.923004e+000
1.097205e+003,-4.572571e+000
1.098169e+003,-3.353333e+000
1.099133e+003,-1.667709e+000
1.100098e+003,4.308929e-001
1.101062e+003,1.990524e+000
1.102026e+003,1.844925e+000
1.102990e+003,7.025909e-001
1.103955e+003,4.432678e-001
1.104919e+003,2.150635e+000
1.105883e+003,4.307480e+000
1.106847e+003,3.332809e+000
1.107812e+003,-8.061218e-001
1.108776e+003,-2.556854e+000
1.109740e+003,-7.655640e-001
1.110704e+003,1.502121e+000
1.111668e+003,1.871323e+000
1.112633e+003,9.602203e-001
1.113597e+003,1.407959e+000
1.114561e+003,4.340134e+000
1.115525e+003,6.311813e+000
1.116490e+003,5.877213e+000
1.117454e+003,4.646317e+000
1.118418e+003,3.077896e+000
1.119382e+003,1.781403e+000
1.120347e+003,1.591965e+000
1.121311e+003,2.937988e+000
1.122275e+003,5.142899e+000
1.123239e+003,7.452484e+000
1.124203e+003,9.829498e+000
1.125168e+003,1.061679e+001
1.126132e+003,9.290848e+000
1.127096e+003,7.485825e+000
1.128060e+003,6.084930e+000
1.129025e+003,5.102448e+000
1.129989e+003,4.828827e+000
1.130953e+003,5.359421e+000
1.131917e+003,6.392975e+000
1.132882e+003,8.423813e+000
1.133846e+003,1.037242e+001
1.134810e+003,1.145578e+001
1.135774e+003,1.192877e+001
1.136739e+003,1.253802e+001
1.137703e+003,1.369270e+001
1.138667e+003,1.500230e+001
1.139631e+003,1.572758e+001
1.140595e+003,1.595395e+001
1.141560e+003,1.659380e+001
1.142524e+003,1.769550e+001
1.143488e+003,1.948529e+001
1.144452e+003,2.208905e+001
1.145417e+003,2.546581e+001
1.146381e+003,2.955222e+001
1.147345e+003,3.457030e+001
1.148309e+003,3.961336e+001
1.149274e+003,4.410495e+001
1.150238e+003,4.901828e+001
1.151202e+003,5.524097e+001
1.152166e+003,6.229234e+001
1.153130e+003,6.957988e+001
1.154095e+003,7.658475e+001
1.155059e+003,8.211591e+001
1.156023e+003,8.446127e+001
1.156987e+003,8.383276e+001
1.157952e+003,8.298181e+001
1.158916e+003,8.231625e+001
1.159880e+003,8.045869e+001
1.160844e+003,7.616548e+001
1.161809e+003,6.995834e+001
1.162773e+003,6.302510e+001
1.163737e+003,5.498494e+001
1.164701e+003,4.803392e+001
1.165666e+003,4.321437e+001
1.166630e+003,3.929369e+001
1.167594e+003,3.641649e+001
1.168558e+003,3.388318e+001
1.169522e+003,3.054408e+001
1.170487e+003,2.627824e+001
1.171451e+003,2.262306e+001
1.172415e+003,2.139258e+001
1.173379e+003,2.206412e+001
1.174344e+003,2.186966e+001
1.175308e+003,2.078947e+001
1.176272e+003,2.002617e+001
1.177236e+003,2.029700e+001
1.178201e+003,2.088542e+001
1.179165e+003,2.072763e+001
1.180129e+003,1.974184e+001
1.181093e+003,1.891742e+001
1.182057e+003,1.868483e+001
1.183022e+003,1.840059e+001
1.183986e+003,1.801665e+001
1.184950e+003,1.736220e+001
1.185914e+003,1.587746e+001
1.186879e+003,1.390778e+001
1.187843e+003,1.267538e+001
1.188807e+003,1.315096e+001
1.189771e+003,1.491550e+001
1.190736e+003,1.716476e+001
1.191700e+003,2.007159e+001
1.192664e+003,2.114441e+001
1.193628e+003,1.905452e+001
1.194593e+003,1.667365e+001
1.195557e+003,1.634555e+001
1.196521e+003,1.736177e+001
1.197485e+003,1.713240e+001
1.198449e+003,1.488254e+001
1.199414e+003,1.269943e+001
1.200378e+003,1.162134e+001
1.201342e+003,1.084995e+001
1.202306e+003,9.663315e+000
1.203271e+003,8.375702e+000
1.204235e+003,8.010651e+000
1.205199e+003,8.961548e+000
1.206163e+003,1.009709e+001
1.207128e+003,9.407837e+000
1.208092e+003,6.769714e+000
1.209056e+003,5.279694e+000
1.210020e+003,5.576965e+000
1.210984e+003,5.551163e+000
1.211949e+003,4.363815e+000
1.212913e+003,2.636810e+000
1.213877e+003,1.236343e+000
1.214841e+003,2.348480e-001
1.215806e+003,-1.051346e+000
1.216770e+003,-3.538666e+000
1.217734e+003,-5.331131e+000
1.218698e+003,-4.555115e+000
1.219663e+003,-2.893723e+000
1.220627e+003,-2.165115e+000
1.221591e+003,-2.832062e+000
1.222555e+003,-4.797775e+000
1.223520e+003,-8.043976e+000
1.224484e+003,-1.192712e+001
1.225448e+003,-1.354779e+001
1.226412e+003,-1.170451e+001
1.227376e+003,-1.011667e+001
1.228341e+003,-8.450531e+000
1.229305e+003,-7.456924e+000
1.230269e+003,-7.864563e+000
1.231233e+003,-9.158920e+000
1.232198e+003,-1.035648e+001
1.233162e+003,-1.117995e+001
1.234126e+003,-1.165700e+001
1.235090e+003,-1.166882e+001
1.236055e+003,-1.158034e+001
1.237019e+003,-1.177757e+001
1.237983e+003,-1.221431e+001
1.238947e+003,-1.281039e+001
1.239911e+003,-1.347757e+001
1.240876e+003,-1.366330e+001
1.241840e+003,-1.237004e+001
1.242804e+003,-9.425232e+000
1.243768e+003,-8.076096e+000
1.244733e+003,-1.008884e+001
1.245697e+003,-1.142114e+001
1.246661e+003,-1.143347e+001
1.247625e+003,-1.114603e+001
1.248590e+003,-1.143277e+001
1.249554e+003,-1.200615e+001
1.250518e+003,-1.170802e+001
1.251482e+003,-9.963547e+000
1.252447e+003,-8.350616e+000
1.253411e+003,-9.118393e+000
1.254375e+003,-1.107549e+001
1.255339e+003,-1.179700e+001
1.256303e+003,-1.115221e+001
1.257268e+003,-9.940872e+000
1.258232e+003,-8.623749e+000
1.259196e+003,-7.205414e+000
1.260160e+003,-5.174240e+000
1.261125e+003,-2.052872e+000
1.262089e+003,-9.082947e-001
1.263053e+003,-4.879166e+000
1.264017e+003,-7.502747e+000
1.264982e+003,-5.854904e+000
1.265946e+003,-3.181396e+000
1.266910e+003,-2.828354e+000
1.267874e+003,-4.658188e+000
1.268839e+003,-6.052444e+000
1.269803e+003,-5.261093e+000
1.270767e+003,-3.536362e+000
1.271731e+003,-3.290176e+000
1.272695e+003,-4.477417e+000
1.273660e+003,-5.582352e+000
1.274624e+003,-6.830170e+000
1.275588e+003,-7.662720e+000
1.276552e+003,-7.398178e+000
1.277517e+003,-6.529358e+000
1.278481e+003,-5.937180e+000
1.279445e+003,-5.663605e+000
1.280409e+003,-6.185699e+000
1.281374e+003,-8.738739e+000
1.282338e+003,-1.060341e+001
1.283302e+003,-9.624985e+000
1.284266e+003,-7.741714e+000
1.285230e+003,-7.131500e+000
1.286195e+003,-8.107178e+000
1.287159e+003,-9.853943e+000
1.288123e+003,-1.167958e+001
1.289087e+003,-1.297258e+001
1.290052e+003,-1.188406e+001
1.291016e+003,-7.216660e+000
1.291980e+003,-4.779343e+000
1.292944e+003,-6.191940e+000
1.293909e+003,-7.665543e+000
1.294873e+003,-7.426758e+000
1.295837e+003,-6.465195e+000
1.296801e+003,-6.414032e+000
1.297766e+003,-7.393860e+000
1.298730e+003,-7.774567e+000
1.299694e+003,-6.335907e+000
1.300658e+003,-4.809647e+000
1.301622e+003,-5.089615e+000
1.302587e+003,-6.476120e+000
1.303551e+003,-8.170410e+000
1.304515e+003,-9.922836e+000
1.305479e+003,-1.149789e+001
1.306444e+003,-1.294998e+001
1.307408e+003,-1.386087e+001
1.308372e+003,-1.218098e+001
1.309336e+003,-6.156677e+000
1.310301e+003,-3.049225e+000
1.311265e+003,-5.340134e+000
1.312229e+003,-7.784576e+000
1.313193e+003,-9.229324e+000
1.314157e+003,-9.895142e+000
1.315122e+003,-9.810211e+000
1.316086e+003,-9.296082e+000
1.317050e+003,-9.213852e+000
1.318014e+003,-1.012946e+001
1.318979e+003,-1.139230e+001
1.319943e+003,-1.194159e+001
1.320907e+003,-1.177049e+001
1.321871e+003,-1.135358e+001
1.322836e+003,-1.076584e+001
1.323800e+003,-1.011545e+001
1.324764e+003,-9.128830e+000
1.325728e+003,-8.249191e+000
1.326693e+003,-8.662292e+000
1.327657e+003,-1.047795e+001
1.328621e+003,-1.111505e+001
1.329585e+003,-9.034332e+000
1.330549e+003,-6.636093e+000
1.331514e+003,-4.989532e+000
1.332478e+003,-4.120270e+000
1.333442e+003,-4.090179e+000
1.334406e+003,-4.761307e+000
1.335371e+003,-6.001953e+000
1.336335e+003,-7.698975e+000
1.337299e+003,-9.474396e+000
1.338263e+003,-1.067778e+001
1.339228e+003,-1.133722e+001
1.340192e+003,-1.108812e+001
1.341156e+003,-9.251907e+000
1.342120e+003,-7.579956e+000
1.343084e+003,-5.990295e+000
1.344049e+003,-5.092667e+000
1.345013e+003,-5.865479e+000
1.345977e+003,-7.633011e+000
1.346941e+003,-8.319107e+000
1.347906e+003,-7.114563e+000
1.348870e+003,-6.010803e+000
1.349834e+003,-7.455276e+000
1.350798e+003,-9.769440e+000
1.351763e+003,-9.054169e+000
1.352727e+003,-5.953064e+000
1.353691e+003,-4.738449e+000
1.354655e+003,-7.441208e+000
1.355620e+003,-1.075676e+001
1.356584e+003,-1.009607e+001
1.357548e+003,-6.083817e+000
1.358512e+003,-4.983109e+000
1.359476e+003,-8.683456e+000
1.360441e+003,-1.115201e+001
1.361405e+003,-9.707504e+000
1.362369e+003,-7.880219e+000
1.363333e+003,-7.077347e+000
1.364298e+003,-7.117584e+000
1.365262e+003,-7.813370e+000
1.366226e+003,-8.871552e+000
1.367190e+003,-9.614212e+000
1.368155e+003,-9.438614e+000
1.369119e+003,-8.485321e+000
1.370083e+003,-7.087296e+000
1.371047e+003,-4.822098e+000
1.372011e+003,-3.919006e+000
1.372976e+003,-5.731049e+000
1.373940e+003,-7.234192e+000
1.374904e+003,-7.232925e+000
1.375868e+003,-6.306915e+000
1.376833e+003,-4.816971e+000
1.377797e+003,-3.059509e+000
1.378761e+003,-2.243713e+000
1.379725e+003,-3.079269e+000
1.380690e+003,-4.276382e+000
1.381654e+003,-4.590744e+000
1.382618e+003,-4.354691e+000
1.383582e+003,-3.864563e+000
1.384547e+003,-3.216553e+000
1.385511e+003,-2.814270e+000
1.386475e+003,-2.952576e+000
1.387439e+003,-3.257660e+000
1.388403e+003,-3.018570e+000
1.389368e+003,-2.247528e+000
1.390332e+003,-2.023468e+000
1.391296e+003,-2.521225e+000
1.392260e+003,-3.176605e+000
1.393225e+003,-4.418289e+000
1.394189e+003,-5.225616e+000
1.395153e+003,-4.299667e+000
1.396117e+003,-2.854721e+000
1.397082e+003,-3.150406e+000
1.398046e+003,-5.409195e+000
1.399010e+003,-7.350128e+000
1.399974e+003,-6.908569e+000
1.400938e+003,-4.910660e+000
1.401903e+003,-3.642807e+000
1.402867e+003,-2.978577e+000
1.403831e+003,-2.797470e+000
1.404795e+003,-4.067245e+000
1.405760e+003,-4.719635e+000
1.406724e+003,-3.440460e+000
1.407688e+003,-1.876404e+000
1.408652e+003,-2.123718e+000
1.409617e+003,-3.852448e+000
1.410581e+003,-4.723434e+000
1.411545e+003,-3.654663e+000
1.412509e+003,-2.436264e+000
1.413474e+003,-3.167236e+000
1.414438e+003,-4.749710e+000
1.415402e+003,-5.042862e+000
1.416366e+003,-4.154755e+000
1.417330e+003,-3.469955e+000
1.418295e+003,-3.522247e+000
1.419259e+003,-3.947983e+000
1.420223e+003,-4.547958e+000
1.421187e+003,-5.286942e+000
1.422152e+003,-5.547943e+000
1.423116e+003,-5.049713e+000
1.424080e+003,-4.654572e+000
1.425044e+003,-5.245010e+000
1.426009e+003,-5.425430e+000
1.426973e+003,-4.247894e+000
1.427937e+003,-2.563354e+000
1.428901e+003,-1.083664e+000
1.429865e+003,-1.028137e-001
1.430830e+003,-2.235413e-002
1.431794e+003,-1.117310e+000
1.432758e+003,-2.843689e+000
1.433722e+003,-4.072586e+000
1.434687e+003,-4.732452e+000
1.435651e+003,-4.277222e+000
1.436615e+003,-1.383530e+000
1.437579e+003,6.977844e-002
1.438544e+003,-1.706177e+000
1.439508e+003,-3.464432e+000
1.440472e+003,-2.750259e+000
1.441436e+003,-4.202423e-001
1.442401e+003,1.850754e+000
1.443365e+003,3.490448e+000
1.444329e+003,4.049500e+000
1.445293e+003,2.965652e+000
1.446257e+003,1.363342e+000
1.447222e+003,1.649475e+000
1.448186e+003,3.352310e+000
1.449150e+003,3.805908e+000
1.450114e+003,2.423080e+000
1.451079e+003,1.157547e+000
1.452043e+003,1.207275e+000
1.453007e+003,1.897797e+000
1.453971e+003,2.439758e+000
1.454936e+003,2.733521e+000
1.455900e+003,2.332489e+000
1.456864e+003,9.260864e-001
1.457828e+003,-2.415314e-001
1.458792e+003,-1.096802e-001
1.459757e+003,1.315155e-001
1.460721e+003,-6.755524e-001
1.461685e+003,-2.065887e+000
1.462649e+003,-3.227325e+000
1.463614e+003,-3.818237e+000
1.464578e+003,-3.242966e+000
1.465542e+003,-6.207275e-001
1.466506e+003,2.745773e+000
1.467471e+003,2.555252e+000
1.468435e+003,-2.311523e+000
1.469399e+003,-4.556534e+000
1.470363e+003,-1.590134e+000
1.471328e+003,7.118683e-001
1.472292e+003,6.709290e-001
1.473256e+003,-2.366333e-001
1.474220e+003,-1.276230e+000
1.475184e+003,-2.005081e+000
1.476149e+003,-2.087509e+000
1.477113e+003,-1.458282e+000
1.478077e+003,-5.444336e-002
1.479041e+003,2.321335e+000
1.480006e+003,4.981400e+000
1.480970e+003,5.283508e+000
1.481934e+003,2.177353e+000
1.482898e+003,8.012543e-001
1.483863e+003,2.402039e+000
1.484827e+003,3.739120e+000
1.485791e+003,3.470978e+000
1.486755e+003,3.161179e+000
1.487719e+003,4.561401e+000
1.488684e+003,7.028122e+000
1.489648e+003,8.538605e+000
1.490612e+003,8.517380e+000
1.491576e+003,8.406693e+000
1.492541e+003,9.378342e+000
1.493505e+003,1.092311e+001
1.494469e+003,1.210535e+001
1.495433e+003,1.283911e+001
1.496398e+003,1.290051e+001
1.497362e+003,1.207202e+001
1.498326e+003,1.165575e+001
1.499290e+003,1.205365e+001
1.500255e+003,1.340462e+001
1.501219e+003,1.648662e+001
1.502183e+003,2.082845e+001
1.503147e+003,2.369971e+001
1.504111e+003,2.415866e+001
1.505076e+003,2.492990e+001
1.506040e+003,2.788176e+001
1.507004e+003,3.160135e+001
1.507968e+003,3.463034e+001
1.508933e+003,3.730655e+001
1.509897e+003,4.009389e+001
1.510861e+003,4.329480e+001
1.511825e+003,4.786311e+001
1.512790e+003,5.456244e+001
1.513754e+003,6.255409e+001
1.514718e+003,7.064807e+001
1.515682e+003,7.874492e+001
1.516646e+003,8.595438e+001
1.517611e+003,9.210226e+001
1.518575e+003,9.784991e+001
1.519539e+003,1.035924e+002
1.520503e+003,1.089785e+002
1.521468e+003,1.146047e+002
1.522432e+003,1.192619e+002
1.523396e+003,1.209457e+002
1.524360e+003,1.198013e+002
1.525325e+003,1.181861e+002
1.526289e+003,1.176878e+002
1.527253e+003,1.169342e+002
1.528217e+003,1.132552e+002
1.529182e+003,1.066856e+002
1.530146e+003,1.007806e+002
1.531110e+003,9.725266e+001
1.532074e+003,9.088586e+001
1.533039e+003,7.850748e+001
1.534003e+003,6.646475e+001
1.534967e+003,5.773087e+001
1.535931e+003,5.105139e+001
1.536896e+003,4.514427e+001
1.537860e+003,3.956990e+001
1.538824e+003,3.398419e+001
1.539788e+003,2.820737e+001
1.540752e+003,2.274437e+001
1.541717e+003,1.823711e+001
1.542681e+003,1.479730e+001
1.543645e+003,1.273120e+001
1.544609e+003,1.292708e+001
1.545573e+003,1.250980e+001
1.546538e+003,1.064301e+001
1.547502e+003,9.028427e+000
1.548466e+003,8.414108e+000
1.549430e+003,8.452835e+000
1.550395e+003,9.224167e+000
1.551359e+003,1.013580e+001
1.552323e+003,9.471268e+000
1.553287e+003,6.810394e+000
1.554252e+003,4.730927e+000
1.555216e+003,5.632736e+000
1.556180e+003,8.227783e+000
1.557144e+003,9.783493e+000
1.558109e+003,1.026686e+001
1.559073e+003,9.379639e+000
1.560037e+003,6.014374e+000
1.561001e+003,3.342529e+000
1.561966e+003,2.899429e+000
1.562930e+003,3.336182e+000
1.563894e+003,3.535172e+000
1.564858e+003,3.471069e+000
1.565823e+003,3.165344e+000
1.566787e+003,2.663971e+000
1.567751e+003,2.710098e+000
1.568715e+003,3.935776e+000
1.569679e+003,5.333801e+000
1.570644e+003,5.377090e+000
1.571608e+003,4.571259e+000
1.572572e+003,4.537659e+000
1.573536e+003,5.381027e+000
1.574500e+003,6.697311e+000
1.575465e+003,8.866241e+000
1.576429e+003,1.059352e+001
1.577393e+003,1.033586e+001
1.578357e+003,9.046432e+000
1.579322e+003,8.732452e+000
1.580286e+003,9.485428e+000
1.581250e+003,1.014632e+001
1.582214e+003,1.043556e+001
1.583179e+003,1.023944e+001
1.584143e+003,8.824341e+000
1.585107e+003,7.382553e+000
1.586071e+003,8.157578e+000
1.587036e+003,1.035487e+001
1.588000e+003,1.098853e+001
1.588964e+003,9.267395e+000
1.589928e+003,7.437302e+000
1.590893e+003,6.769485e+000
1.591857e+003,7.059387e+000
1.592821e+003,8.492065e+000
1.593785e+003,1.075783e+001
1.594750e+003,1.182794e+001
1.595714e+003,1.123694e+001
1.596678e+003,1.060123e+001
1.597642e+003,1.046941e+001
1.598606e+003,1.065683e+001
1.599571e+003,1.126360e+001
1.600535e+003,1.198242e+001
1.601499e+003,1.243921e+001
1.602463e+003,1.257001e+001
1.603427e+003,1.232866e+001
1.604392e+003,1.165720e+001
1.605356e+003,1.097800e+001
1.606320e+003,1.076682e+001
1.607284e+003,1.086909e+001
1.608249e+003,1.061949e+001
1.609213e+003,9.977493e+000
1.610177e+003,1.058606e+001
1.611141e+003,1.350423e+001
1.612106e+003,1.571777e+001
1.613070e+003,1.498186e+001
1.614034e+003,1.369356e+001
1.614998e+003,1.385109e+001
1.615963e+003,1.454924e+001
1.616927e+003,1.365326e+001
1.617891e+003,1.117065e+001
1.618855e+003,9.761932e+000
1.619820e+003,1.107155e+001
1.620784e+003,1.354034e+001
1.621748e+003,1.568842e+001
1.622712e+003,1.740144e+001
1.623677e+003,1.652954e+001
1.624641e+003,1.228296e+001
1.625605e+003,1.022261e+001
1.626569e+003,1.258403e+001
1.627533e+003,1.511055e+001
1.628498e+003,1.647743e+001
1.629462e+003,1.669823e+001
1.630426e+003,1.480850e+001
1.631390e+003,1.197820e+001
1.632354e+003,1.075020e+001
1.633319e+003,1.162993e+001
1.634283e+003,1.293814e+001
1.635247e+003,1.347600e+001
1.636211e+003,1.354498e+001
1.637176e+003,1.362077e+001
1.638140e+003,1.376097e+001
1.639104e+003,1.438570e+001
1.640068e+003,1.569656e+001
1.641033e+003,1.660800e+001
1.641997e+003,1.683698e+001
1.642961e+003,1.671138e+001
1.643925e+003,1.647264e+001
1.644890e+003,1.593024e+001
1.645854e+003,1.439598e+001
1.646818e+003,1.244662e+001
1.647782e+003,1.165222e+001
1.648747e+003,1.242775e+001
1.649711e+003,1.354959e+001
1.650675e+003,1.408954e+001
1.651639e+003,1.431680e+001
1.652604e+003,1.478383e+001
1.653568e+003,1.541612e+001
1.654532e+003,1.519696e+001
1.655496e+003,1.367235e+001
1.656460e+003,1.277386e+001
1.657425e+003,1.369606e+001
1.658389e+003,1.456117e+001
1.659353e+003,1.430122e+001
1.660317e+003,1.350539e+001
1.661281e+003,1.256905e+001
1.662246e+003,1.166872e+001
1.663210e+003,1.118576e+001
1.664174e+003,1.125334e+001
1.665138e+003,1.139345e+001
1.666103e+003,1.112642e+001
1.667067e+003,1.068063e+001
1.668031e+003,1.069662e+001
1.668995e+003,1.113313e+001
1.669960e+003,1.101234e+001
1.670924e+003,1.015149e+001
1.671888e+003,9.278625e+000
1.672852e+003,8.166489e+000
1.673817e+003,7.670380e+000
1.674781e+003,8.835403e+000
1.675745e+003,1.046106e+001
1.676709e+003,1.140999e+001
1.677674e+003,1.161456e+001
1.678638e+003,1.114070e+001
1.679602e+003,1.002145e+001
1.680566e+003,8.885895e+000
1.681531e+003,8.224762e+000
1.682495e+003,7.935013e+000
1.683459e+003,7.875595e+000
1.684423e+003,7.935455e+000
1.685387e+003,7.591461e+000
1.686352e+003,6.728989e+000
1.687316e+003,6.342834e+000
1.688280e+003,7.187408e+000
1.689244e+003,7.741074e+000
1.690208e+003,6.156677e+000
1.691173e+003,4.137619e+000
1.692137e+003,3.783035e+000
1.693101e+003,4.708786e+000
1.694065e+003,5.228104e+000
1.695030e+003,4.855606e+000
1.695994e+003,4.409729e+000
1.696958e+003,4.448441e+000
1.697922e+003,4.690048e+000
1.698887e+003,4.672119e+000
1.699851e+003,4.603195e+000
1.700815e+003,5.451111e+000
1.701779e+003,7.195297e+000
1.702744e+003,7.121323e+000
1.703708e+003,3.797684e+000
1.704672e+003,1.276825e+000
1.705636e+003,3.213974e+000
1.706601e+003,6.627899e+000
1.707565e+003,7.077881e+000
1.708529e+003,5.449036e+000
1.709493e+003,4.234665e+000
1.710458e+003,3.723328e+000
1.711422e+003,3.443039e+000
1.712386e+003,2.957611e+000
1.713350e+003,3.046616e+000
1.714314e+003,4.838867e+000
1.715279e+003,7.189117e+000
1.716243e+003,8.408447e+000
1.717207e+003,8.413956e+000
1.718171e+003,7.345627e+000
1.719135e+003,5.266541e+000
1.720100e+003,3.581146e+000
1.721064e+003,3.282379e+000
1.722028e+003,3.575439e+000
1.722992e+003,3.417114e+000
1.723957e+003,2.981567e+000
1.724921e+003,2.906082e+000
1.725885e+003,3.204453e+000
1.726849e+003,2.937607e+000
1.727814e+003,1.440704e+000
1.728778e+003,3.414764e-001
1.729742e+003,4.004364e-001
1.730706e+003,1.053467e+000
1.731671e+003,2.091431e+000
1.732635e+003,3.014603e+000
1.733599e+003,2.972488e+000
1.734563e+003,2.037262e+000
1.735528e+003,1.111847e+000
1.736492e+003,6.378174e-001
1.737456e+003,4.977264e-001
1.738420e+003,5.956268e-001
1.739385e+003,7.707672e-001
1.740349e+003,6.280670e-001
1.741313e+003,9.724426e-002
1.742277e+003,-1.025391e-001
1.743241e+003,4.061890e-002
1.744206e+003,5.824432e-001
1.745170e+003,2.328781e+000
1.746134e+003,3.474014e+000
1.747098e+003,2.749680e+000
1.748063e+003,1.087891e+000
1.749027e+003,-8.644562e-001
1.749991e+003,-2.588745e+000
1.750955e+003,-3.325104e+000
1.751919e+003,-2.915131e+000
1.752884e+003,-1.985123e+000
1.753848e+003,-1.041275e+000
1.754812e+003,-2.387238e-001
1.755776e+003,1.605225e-001
1.756741e+003,2.243500e-001
1.757705e+003,-7.916260e-002
1.758669e+003,-1.195511e+000
1.759633e+003,-1.537582e+000
1.760598e+003,-4.875793e-001
1.761562e+003,5.915527e-001
1.762526e+003,1.758591e+000
1.763490e+003,2.486298e+000
1.764455e+003,2.226563e+000
1.765419e+003,1.400055e+000
1.766383e+003,3.304443e-001
1.767347e+003,-7.132263e-001
1.768312e+003,-8.742981e-001
1.769276e+003,2.518005e-001
1.770240e+003,1.376495e+000
1.771204e+003,9.571075e-001
1.772168e+003,8.880615e-003
1.773133e+003,1.153229e+000
1.774097e+003,4.067001e+000
1.775061e+003,5.297760e+000
1.776025e+003,4.204071e+000
1.776990e+003,3.211182e+000
1.777954e+003,3.389114e+000
1.778918e+003,3.479065e+000
1.779882e+003,2.029205e+000
1.780846e+003,2.775421e-001
1.781811e+003,1.857605e-001
1.782775e+003,1.275223e+000
1.783739e+003,1.887909e+000
1.784703e+003,1.789642e+000
1.785668e+003,1.568802e+000
1.786632e+003,1.126724e+000
1.787596e+003,9.065247e-001
1.788560e+003,1.616837e+000
1.789525e+003,2.667679e+000
1.790489e+003,3.181717e+000
1.791453e+003,3.155258e+000
1.792417e+003,2.768173e+000
1.793382e+003,2.142532e+000
1.794346e+003,1.801331e+000
1.795310e+003,2.018066e+000
1.796274e+003,2.577682e+000
1.797239e+003,3.423431e+000
1.798203e+003,4.284210e+000
1.799167e+003,3.895874e+000
1.800131e+003,1.809494e+000
1.801095e+003,4.137726e-001
1.802060e+003,4.646759e-001
1.803024e+003,2.263794e-001
1.803988e+003,-1.006531e+000
1.804952e+003,-2.000717e+000
1.805917e+003,-2.478561e+000
1.806881e+003,-2.184738e+000
1.807845e+003,-8.830261e-002
1.808809e+003,2.690689e+000
1.809773e+003,3.731201e+000
1.810738e+003,2.790390e+000
1.811702e+003,2.058151e+000
1.812666e+003,2.878983e+000
1.813630e+003,3.935074e+000
1.814595e+003,3.378021e+000
1.815559e+003,1.655518e+000
1.816523e+003,6.614838e-001
1.817487e+003,4.529877e-001
1.818452e+003,5.745850e-001
1.819416e+003,1.071609e+000
1.820380e+003,1.965424e+000
1.821344e+003,3.991806e+000
1.822309e+003,5.221054e+000
1.823273e+003,3.469437e+000
1.824237e+003,1.342270e+000
1.825201e+003,2.078461e+000
1.826166e+003,4.487320e+000
1.827130e+003,5.032150e+000
1.828094e+003,3.116989e+000
1.829058e+003,1.131516e+000
1.830022e+003,-8.978271e-002
1.830987e+003,-3.018188e-001
1.831951e+003,1.466080e+000
1.832915e+003,3.811630e+000
1.833879e+003,4.860626e+000
1.834844e+003,4.667496e+000
1.835808e+003,3.203598e+000
1.836772e+003,7.817535e-001
1.837736e+003,-2.480774e-001
1.838700e+003,1.153564e+000
1.839665e+003,2.909134e+000
1.840629e+003,3.145081e+000
1.841593e+003,2.573013e+000
1.842557e+003,2.671295e+000
1.843522e+003,3.422089e+000
1.844486e+003,3.728424e+000
1.845450e+003,3.332336e+000
1.846414e+003,3.167679e+000
1.847379e+003,3.201508e+000
1.848343e+003,3.268509e+000
1.849307e+003,3.701309e+000
1.850271e+003,3.840256e+000
1.851236e+003,2.704376e+000
1.852200e+003,1.372498e+000
1.853164e+003,1.357895e+000
1.854128e+003,2.487427e+000
1.855093e+003,3.802170e+000
1.856057e+003,4.896118e+000
1.857021e+003,5.438416e+000
1.857985e+003,5.043152e+000
1.858949e+003,4.240295e+000
1.859914e+003,3.923080e+000
1.860878e+003,4.056732e+000
1.861842e+003,4.620193e+000
1.862806e+003,5.623825e+000
1.863771e+003,4.815186e+000
1.864735e+003,1.038330e+000
1.865699e+003,-9.727631e-001
1.866663e+003,1.724091e+000
1.867627e+003,5.233780e+000
1.868592e+003,6.064865e+000
1.869556e+003,5.341537e+000
1.870520e+003,5.434097e+000
1.871484e+003,6.128235e+000
1.872449e+003,5.827499e+000
1.873413e+003,4.046494e+000
1.874377e+003,3.381424e+000
1.875341e+003,5.336960e+000
1.876306e+003,7.230438e+000
1.877270e+003,7.746857e+000
1.878234e+003,7.375168e+000
1.879198e+003,6.173050e+000
1.880163e+003,4.753998e+000
1.881127e+003,4.224854e+000
1.882091e+003,4.519333e+000
1.883055e+003,4.519867e+000
1.884020e+003,3.811371e+000
1.884984e+003,3.320465e+000
1.885948e+003,3.908829e+000
1.886912e+003,5.062790e+000
1.887876e+003,5.813004e+000
1.888841e+003,6.172180e+000
1.889805e+003,6.005264e+000
1.890769e+003,5.046219e+000
1.891733e+003,5.171799e+000
1.892698e+003,7.394440e+000
1.893662e+003,8.468033e+000
1.894626e+003,6.327866e+000
1.895590e+003,4.049088e+000
1.896554e+003,3.740402e+000
1.897519e+003,4.526245e+000
1.898483e+003,5.434662e+000
1.899447e+003,6.419403e+000
1.900411e+003,8.151199e+000
1.901376e+003,1.091109e+001
1.902340e+003,1.164641e+001
1.903304e+003,7.397842e+000
1.904268e+003,3.687759e+000
1.905233e+003,4.689575e+000
1.906197e+003,7.132599e+000
1.907161e+003,7.796234e+000
1.908125e+003,7.359573e+000
1.909090e+003,7.394501e+000
1.910054e+003,7.869034e+000
1.911018e+003,7.712769e+000
1.911982e+003,6.692123e+000
1.912947e+003,5.722351e+000
1.913911e+003,5.449631e+000
1.914875e+003,5.985229e+000
1.915839e+003,7.705215e+000
1.916803e+003,9.958969e+000
1.917768e+003,9.269302e+000
1.918732e+003,4.891479e+000
1.919696e+003,2.977158e+000
1.920660e+003,4.773911e+000
1.921625e+003,5.807495e+000
1.922589e+003,4.485306e+000
1.923553e+003,3.177261e+000
1.924517e+003,2.961380e+000
1.925481e+003,3.472900e+000
1.926446e+003,4.798141e+000
1.927410e+003,6.473007e+000
1.928374e+003,7.619675e+000
1.929338e+003,8.143250e+000
1.930303e+003,8.457977e+000
1.931267e+003,8.821014e+000
1.932231e+003,8.851563e+000
1.933195e+003,7.720901e+000
1.934160e+003,6.809250e+000
1.935124e+003,7.309906e+000
1.936088e+003,8.402298e+000
1.937052e+003,9.491974e+000
1.938017e+003,1.028293e+001
1.938981e+003,9.986786e+000
1.939945e+003,8.830994e+000
1.940909e+003,8.359848e+000
1.941874e+003,9.191711e+000
1.942838e+003,1.014714e+001
1.943802e+003,1.018295e+001
1.944766e+003,9.824371e+000
1.945730e+003,1.006735e+001
1.946695e+003,1.071965e+001
1.947659e+003,1.034775e+001
1.948623e+003,8.734543e+000
1.949587e+003,8.724075e+000
1.950552e+003,1.148131e+001
1.951516e+003,1.219022e+001
1.952480e+003,7.888382e+000
1.953444e+003,4.145386e+000
1.954408e+003,5.569489e+000
1.955373e+003,8.866837e+000
1.956337e+003,9.312958e+000
1.957301e+003,7.890488e+000
1.958265e+003,8.037064e+000
1.959230e+003,1.011166e+001
1.960194e+003,1.135808e+001
1.961158e+003,1.062053e+001
1.962122e+003,9.975891e+000
1.963087e+003,1.007462e+001
1.964051e+003,1.029002e+001
1.965015e+003,1.045830e+001
1.965979e+003,1.053250e+001
1.966944e+003,1.035687e+001
1.967908e+003,9.991318e+000
1.968872e+003,9.343765e+000
1.969836e+003,8.700302e+000
1.970801e+003,9.174164e+000
1.971765e+003,1.112529e+001
1.972729e+003,1.268109e+001
1.973693e+003,1.210577e+001
1.974657e+003,1.072304e+001
1.975622e+003,1.050735e+001
1.976586e+003,1.099782e+001
1.977550e+003,1.089841e+001
1.978514e+003,1.038560e+001
1.979479e+003,1.062984e+001
1.980443e+003,1.172458e+001
1.981407e+003,1.245265e+001
1.982371e+003,1.238387e+001
1.983335e+003,1.201756e+001
1.984300e+003,1.163930e+001
1.985264e+003,1.135121e+001
1.986228e+003,1.141017e+001
1.987192e+003,1.168896e+001
1.988157e+003,1.148949e+001
1.989121e+003,1.061922e+001
1.990085e+003,1.047861e+001
1.991049e+003,1.197081e+001
1.992014e+003,1.244012e+001
1.992978e+003,1.031593e+001
1.993942e+003,8.768463e+000
1.994906e+003,8.951370e+000
1.995871e+003,1.000319e+001
1.996835e+003,1.221164e+001
1.997799e+003,1.439139e+001
1.998763e+003,1.446098e+001
1.999728e+003,1.281879e+001
