5.003444e+002,4.114853e+001
5.013087e+002,4.111308e+001
5.022729e+002,4.144197e+001
5.032371e+002,4.188536e+001
5.042014e+002,4.091104e+001
5.051656e+002,3.881396e+001
5.061298e+002,3.696976e+001
5.070941e+002,3.663820e+001
5.080583e+002,3.810823e+001
5.090225e+002,3.906224e+001
5.099868e+002,4.004227e+001
5.109510e+002,4.018826e+001
5.119152e+002,3.851141e+001
5.128795e+002,3.483185e+001
5.138437e+002,3.222549e+001
5.148079e+002,3.285599e+001
5.157722e+002,3.380498e+001
5.167364e+002,3.378378e+001
5.177006e+002,3.264999e+001
5.186649e+002,3.130815e+001
5.196291e+002,3.107040e+001
5.205933e+002,3.140404e+001
5.215576e+002,3.167854e+001
5.225218e+002,3.162732e+001
5.234860e+002,3.098219e+001
5.244503e+002,2.934377e+001
5.254145e+002,2.641719e+001
5.263787e+002,2.493909e+001
5.273430e+002,2.582008e+001
5.283072e+002,2.752422e+001
5.292714e+002,2.772914e+001
5.302357e+002,2.500816e+001
5.311999e+002,2.345775e+001
5.321641e+002,2.484758e+001
5.331284e+002,2.675374e+001
5.340926e+002,2.709444e+001
5.350568e+002,2.495366e+001
5.360211e+002,2.226212e+001
5.369853e+002,2.028708e+001
5.379495e+002,1.921387e+001
5.389138e+002,1.961116e+001
5.398780e+002,2.148891e+001
5.408422e+002,2.409593e+001
5.418065e+002,2.563414e+001
5.427707e+002,2.615529e+001
5.437349e+002,2.530547e+001
5.446992e+002,2.235005e+001
5.456634e+002,1.828659e+001
5.466276e+002,1.672966e+001
5.475919e+002,2.155376e+001
5.485561e+002,2.429103e+001
5.495203e+002,2.360269e+001
5.504846e+002,2.089578e+001
5.514488e+002,1.806488e+001
5.524130e+002,1.541003e+001
5.533773e+002,1.374551e+001
5.543415e+002,1.337193e+001
5.553057e+002,1.391591e+001
5.562700e+002,1.535196e+001
5.572342e+002,1.762106e+001
5.581984e+002,1.981850e+001
5.591627e+002,1.972916e+001
5.601269e+002,1.814143e+001
5.610911e+002,1.611282e+001
5.620554e+002,1.409413e+001
5.630196e+002,1.208342e+001
5.639838e+002,1.055962e+001
5.649481e+002,9.530365e+000
5.659123e+002,8.969360e+000
5.668765e+002,9.272430e+000
5.678408e+002,1.024641e+001
5.688050e+002,1.114388e+001
5.697692e+002,1.163672e+001
5.707335e+002,1.178871e+001
5.716977e+002,1.151051e+001
5.726619e+002,1.107236e+001
5.736262e+002,1.088257e+001
5.745904e+002,1.130597e+001
5.755546e+002,1.180991e+001
5.765189e+002,1.136023e+001
5.774831e+002,1.023296e+001
5.784473e+002,8.956573e+000
5.794116e+002,7.954285e+000
5.803758e+002,7.333298e+000
5.813400e+002,7.517685e+000
5.823043e+002,8.731827e+000
5.832685e+002,9.416336e+000
5.842327e+002,8.842056e+000
5.851970e+002,7.329391e+000
5.861612e+002,6.418427e+000
5.871254e+002,6.581512e+000
5.880897e+002,6.930450e+000
5.890539e+002,7.709610e+000
5.900181e+002,8.412354e+000
5.909824e+002,8.108337e+000
5.919466e+002,5.725922e+000
5.929108e+002,3.453491e+000
5.938751e+002,4.060425e+000
5.948393e+002,6.136871e+000
5.958035e+002,7.439789e+000
5.967678e+002,6.366699e+000
5.977320e+002,3.438507e+000
5.986962e+002,2.431595e+000
5.996605e+002,3.154633e+000
6.006247e+002,3.859192e+000
6.015889e+002,3.681732e+000
6.025532e+002,2.715576e+000
6.035174e+002,2.134995e+000
6.044816e+002,2.072937e+000
6.054459e+002,2.382843e+000
6.064101e+002,3.506363e+000
6.073743e+002,4.908127e+000
6.083386e+002,5.690369e+000
6.093028e+002,5.324524e+000
6.102670e+002,4.357803e+000
6.112313e+002,2.361526e+000
6.121955e+002,4.240265e-001
6.131597e+002,3.256378e-001
6.141240e+002,3.217117e+000
6.150882e+002,7.939087e+000
6.160524e+002,9.466522e+000
6.170167e+002,8.438828e+000
6.179809e+002,6.839371e+000
6.189451e+002,5.316818e+000
6.199094e+002,3.826767e+000
6.208736e+002,2.509857e+000
6.218378e+002,1.277954e+000
6.228021e+002,6.634827e-001
6.237663e+002,1.211563e+000
6.247305e+002,2.325211e+000
6.256948e+002,2.905243e+000
6.266590e+002,2.074677e+000
6.276232e+002,1.437073e+000
6.285875e+002,2.641891e+000
6.295517e+002,4.356888e+000
6.305159e+002,5.073471e+000
6.314802e+002,3.960541e+000
6.324444e+002,1.688385e+000
6.334086e+002,-2.384033e-001
6.343729e+002,-1.680740e+000
6.353371e+002,-1.936569e+000
6.363013e+002,-5.717621e-001
6.372656e+002,1.800339e+000
6.382298e+002,3.078247e+000
6.391940e+002,1.860550e+000
6.401583e+002,1.216217e+000
6.411225e+002,1.639832e+000
6.420867e+002,2.674271e+000
6.430510e+002,3.983536e+000
6.440152e+002,5.825943e+000
6.449794e+002,6.206772e+000
6.459437e+002,2.734863e+000
6.469079e+002,-1.334412e+000
6.478721e+002,-3.202789e+000
6.488364e+002,-2.020966e+000
6.498006e+002,3.998718e-001
6.507648e+002,7.647247e-001
6.517291e+002,-2.322083e-001
6.526933e+002,-8.147278e-001
6.536575e+002,-6.449280e-001
6.546218e+002,-1.466827e-001
6.555860e+002,-1.733704e-001
6.565502e+002,-1.382904e+000
6.575145e+002,-1.635422e+000
6.584787e+002,3.283081e-001
6.594429e+002,2.152725e+000
6.604072e+002,1.496887e+000
6.613714e+002,-2.275665e+000
6.623356e+002,-5.162460e+000
6.632999e+002,-4.597427e+000
6.642641e+002,-3.415024e+000
6.652283e+002,-2.918655e+000
6.661926e+002,-3.167435e+000
6.671568e+002,-3.372726e+000
6.681210e+002,-2.672073e+000
6.690853e+002,-1.294525e+000
6.700495e+002,4.185944e-001
6.710137e+002,2.383636e+000
6.719780e+002,3.735107e+000
6.729422e+002,3.423050e+000
6.739064e+002,9.197388e-001
6.748707e+002,-3.398285e-001
6.758349e+002,3.270416e-001
6.767991e+002,1.005890e+000
6.777634e+002,6.942444e-001
6.787276e+002,-3.188629e-001
6.796918e+002,-3.354187e-001
6.806561e+002,2.623352e+000
6.816203e+002,4.935928e+000
6.825845e+002,4.919464e+000
6.835488e+002,3.364487e+000
6.845130e+002,1.662674e+000
6.854772e+002,8.498230e-001
6.864415e+002,6.055756e-001
6.874057e+002,-3.009186e-001
6.883699e+002,-1.640396e+000
6.893342e+002,-2.347641e+000
6.902984e+002,-1.740112e+000
6.912626e+002,-1.158142e-002
6.922269e+002,1.237213e+000
6.931911e+002,2.251846e+000
6.941553e+002,2.759872e+000
6.951196e+002,1.867661e+000
6.960838e+002,5.198059e-001
6.970480e+002,4.589233e-001
6.980123e+002,2.673126e+000
6.989765e+002,4.771942e+000
6.999407e+002,6.153320e+000
7.009050e+002,6.766205e+000
7.018692e+002,6.274155e+000
7.028334e+002,4.696274e+000
7.037977e+002,2.691269e+000
7.047619e+002,1.135681e+000
7.057261e+002,1.890411e-001
7.066904e+002,2.724762e-001
7.076546e+002,1.449142e+000
7.086188e+002,2.849838e+000
7.095831e+002,3.060745e+000
7.105473e+002,1.517227e+000
7.115115e+002,2.492981e-001
7.124758e+002,-7.401276e-001
7.134400e+002,-1.604355e+000
7.144042e+002,-2.330368e+000
7.153685e+002,-2.885788e+000
7.163327e+002,-3.441986e+000
7.172969e+002,-4.223358e+000
7.182612e+002,-4.844162e+000
7.192254e+002,-5.479523e+000
7.201896e+002,-5.858490e+000
7.211539e+002,-5.271408e+000
7.221181e+002,-2.923798e+000
7.230823e+002,7.586670e-002
7.240466e+002,5.324249e-001
7.250108e+002,-8.813019e-001
7.259750e+002,-2.063370e+000
7.269393e+002,-1.866272e+000
7.279035e+002,-5.994263e-001
7.288677e+002,1.699677e-001
7.298320e+002,5.074310e-001
7.307962e+002,7.135925e-001
7.317604e+002,7.534180e-001
7.327247e+002,7.212524e-001
7.336889e+002,6.078644e-001
7.346531e+002,1.713562e-001
7.356174e+002,-2.997437e-001
7.365816e+002,2.346649e-001
7.375458e+002,6.342010e-001
7.385101e+002,-5.717316e-001
7.394743e+002,-3.383682e+000
7.404385e+002,-6.016602e+000
7.414028e+002,-5.477432e+000
7.423670e+002,-2.694763e+000
7.433312e+002,-1.193436e+000
7.442955e+002,-1.040787e+000
7.452597e+002,-1.663605e+000
7.462239e+002,-2.722961e+000
7.471882e+002,-4.614380e+000
7.481524e+002,-5.359070e+000
7.491166e+002,-4.470917e+000
7.500809e+002,-3.561707e+000
7.510451e+002,-3.273743e+000
7.520093e+002,-3.469528e+000
7.529736e+002,-3.511581e+000
7.539378e+002,-3.014313e+000
7.549020e+002,-2.069565e+000
7.558663e+002,-4.173889e-001
7.568306e+002,1.420914e+000
7.577948e+002,2.684937e+000
7.587590e+002,2.892563e+000
7.597233e+002,2.282806e+000
7.606875e+002,1.559326e+000
7.616517e+002,8.571014e-001
7.626160e+002,1.027161e+000
7.635802e+002,2.765030e+000
7.645444e+002,5.069260e+000
7.655087e+002,5.717529e+000
7.664729e+002,3.762222e+000
7.674371e+002,2.011597e+000
7.684014e+002,1.876221e-001
7.693656e+002,-1.050888e+000
7.703298e+002,-9.481506e-001
7.712941e+002,4.366760e-001
7.722583e+002,1.796921e+000
7.732225e+002,2.238892e+000
7.741868e+002,2.160751e+000
7.751510e+002,1.516861e+000
7.761152e+002,6.411285e-001
7.770795e+002,1.974487e-001
7.780437e+002,7.645416e-001
7.790079e+002,2.148529e+000
7.799722e+002,3.018478e+000
7.809364e+002,3.424667e+000
7.819006e+002,3.504456e+000
7.828649e+002,3.076569e+000
7.838291e+002,2.467072e+000
7.847933e+002,2.634842e+000
7.857576e+002,4.070160e+000
7.867218e+002,5.157715e+000
7.876860e+002,5.994308e+000
7.886503e+002,6.403305e+000
7.896145e+002,6.136139e+000
7.905787e+002,5.166351e+000
7.915430e+002,3.858749e+000
7.925072e+002,1.822433e+000
7.934714e+002,-2.822876e-003
7.944357e+002,-2.028656e-001
7.953999e+002,1.232895e+000
7.963641e+002,3.410324e+000
7.973284e+002,5.321503e+000
7.982926e+002,6.958755e+000
7.992568e+002,8.275299e+000
8.002211e+002,9.323364e+000
8.011853e+002,9.592499e+000
8.021495e+002,8.757645e+000
8.031138e+002,7.298904e+000
8.040780e+002,6.377014e+000
8.050422e+002,6.216248e+000
8.060065e+002,6.250488e+000
8.069707e+002,6.240982e+000
8.079349e+002,6.182556e+000
8.088992e+002,5.978668e+000
8.098634e+002,5.713425e+000
8.108276e+002,5.913071e+000
8.117919e+002,7.823685e+000
8.127561e+002,1.023549e+001
8.137203e+002,1.098061e+001
8.146846e+002,9.958588e+000
8.156488e+002,8.256317e+000
8.166130e+002,7.075928e+000
8.175773e+002,6.449326e+000
8.185415e+002,5.927948e+000
8.195057e+002,4.859756e+000
8.204700e+002,4.405441e+000
8.214342e+002,5.613861e+000
8.223984e+002,7.739517e+000
8.233627e+002,8.687698e+000
8.243269e+002,7.120316e+000
8.252911e+002,5.651474e+000
8.262554e+002,6.321884e+000
8.272196e+002,7.539810e+000
8.281838e+002,7.324280e+000
8.291481e+002,5.164139e+000
8.301123e+002,2.574356e+000
8.310765e+002,2.342255e+000
8.320408e+002,4.305359e+000
8.330050e+002,5.851746e+000
8.339692e+002,7.007370e+000
8.349335e+002,7.365356e+000
8.358977e+002,6.037506e+000
8.368619e+002,2.630096e+000
8.378262e+002,9.897614e-001
8.387904e+002,2.554855e+000
8.397546e+002,4.167252e+000
8.407189e+002,5.256683e+000
8.416831e+002,5.852448e+000
8.426473e+002,6.198196e+000
8.436116e+002,6.434906e+000
8.445758e+002,6.359482e+000
8.455400e+002,4.892838e+000
8.465043e+002,3.170898e+000
8.474685e+002,2.979248e+000
8.484327e+002,4.727692e+000
8.493970e+002,7.187485e+000
8.503612e+002,8.114456e+000
8.513254e+002,7.093155e+000
8.522897e+002,7.099670e+000
8.532539e+002,9.253677e+000
8.542181e+002,1.073248e+001
8.551824e+002,9.198883e+000
8.561466e+002,5.281631e+000
8.571108e+002,3.342850e+000
8.580751e+002,5.379028e+000
8.590393e+002,7.577194e+000
8.600035e+002,8.912598e+000
8.609678e+002,9.847687e+000
8.619320e+002,1.100116e+001
8.628962e+002,1.258879e+001
8.638605e+002,1.421848e+001
8.648247e+002,1.556889e+001
8.657889e+002,1.635461e+001
8.667532e+002,1.553668e+001
8.677174e+002,1.299138e+001
8.686816e+002,1.056123e+001
8.696459e+002,1.052428e+001
8.706101e+002,1.336481e+001
8.715743e+002,1.548203e+001
8.725386e+002,1.692522e+001
8.735028e+002,1.772166e+001
8.744670e+002,1.720250e+001
8.754313e+002,1.601118e+001
8.763955e+002,1.542549e+001
8.773597e+002,1.598074e+001
8.783240e+002,1.702271e+001
8.792882e+002,1.840364e+001
8.802524e+002,1.967311e+001
8.812167e+002,2.041670e+001
8.821809e+002,2.057988e+001
8.831451e+002,2.038062e+001
8.841094e+002,2.009375e+001
8.850736e+002,1.983035e+001
8.860378e+002,1.985954e+001
8.870021e+002,2.001752e+001
8.879663e+002,2.062671e+001
8.889305e+002,2.241960e+001
8.898948e+002,2.491170e+001
8.908590e+002,2.562682e+001
8.918232e+002,2.293103e+001
8.927875e+002,2.107765e+001
8.937517e+002,2.115388e+001
8.947159e+002,2.218044e+001
8.956802e+002,2.360532e+001
8.966444e+002,2.504179e+001
8.976086e+002,2.584212e+001
8.985729e+002,2.492262e+001
8.995371e+002,2.364664e+001
9.005013e+002,2.430208e+001
9.014656e+002,2.669470e+001
9.024298e+002,2.944997e+001
9.033940e+002,3.151195e+001
9.043583e+002,3.280049e+001
9.053225e+002,3.349847e+001
9.062867e+002,3.310931e+001
9.072510e+002,3.251141e+001
9.082152e+002,3.167078e+001
9.091794e+002,3.094525e+001
9.101437e+002,3.075316e+001
9.111079e+002,3.115512e+001
9.120721e+002,3.142630e+001
9.130364e+002,3.083353e+001
9.140006e+002,3.001303e+001
9.149648e+002,2.923289e+001
9.159291e+002,2.870830e+001
9.168933e+002,2.864572e+001
9.178575e+002,2.912704e+001
9.188218e+002,2.998412e+001
9.197860e+002,3.103964e+001
9.207502e+002,3.230200e+001
9.217145e+002,3.238873e+001
9.226787e+002,3.056897e+001
9.236429e+002,2.819258e+001
9.246072e+002,2.700308e+001
9.255714e+002,2.712416e+001
9.265356e+002,2.726320e+001
9.274999e+002,2.717203e+001
9.284641e+002,2.699860e+001
9.294283e+002,2.700513e+001
9.303926e+002,2.700970e+001
9.313568e+002,2.654361e+001
9.323210e+002,2.531584e+001
9.332853e+002,2.395747e+001
9.342495e+002,2.384663e+001
9.352137e+002,2.419579e+001
9.361780e+002,2.386395e+001
9.371422e+002,2.269312e+001
9.381064e+002,2.114037e+001
9.390707e+002,1.959064e+001
9.400349e+002,1.773495e+001
9.409991e+002,1.715843e+001
9.419634e+002,1.888882e+001
9.429276e+002,2.033267e+001
9.438918e+002,2.047441e+001
9.448561e+002,2.006604e+001
9.458203e+002,2.063109e+001
9.467845e+002,2.289026e+001
9.477488e+002,2.480545e+001
9.487130e+002,2.438834e+001
9.496772e+002,2.326694e+001
9.506415e+002,2.242506e+001
9.516057e+002,2.210670e+001
9.525699e+002,2.235876e+001
9.535342e+002,2.323705e+001
9.544984e+002,2.452258e+001
9.554626e+002,2.451854e+001
9.564269e+002,2.306938e+001
9.573911e+002,2.219398e+001
9.583553e+002,2.298875e+001
9.593196e+002,2.434344e+001
9.602838e+002,2.423163e+001
9.612480e+002,2.203984e+001
9.622123e+002,2.048874e+001
9.631765e+002,2.088571e+001
9.641407e+002,2.163168e+001
9.651050e+002,2.252348e+001
9.660692e+002,2.301624e+001
9.670334e+002,2.209462e+001
9.679977e+002,1.914226e+001
9.689619e+002,1.568578e+001
9.699261e+002,1.511983e+001
9.708904e+002,1.650766e+001
9.718546e+002,1.758264e+001
9.728188e+002,1.765086e+001
9.737831e+002,1.793016e+001
9.747473e+002,2.077934e+001
9.757115e+002,2.733510e+001
9.766758e+002,3.038046e+001
9.776400e+002,2.680426e+001
9.786042e+002,2.370010e+001
9.795685e+002,2.297900e+001
9.805327e+002,2.339331e+001
9.814969e+002,2.309755e+001
9.824612e+002,2.155434e+001
9.834254e+002,2.011067e+001
9.843896e+002,2.052362e+001
9.853539e+002,2.125723e+001
9.863181e+002,2.034747e+001
9.872823e+002,1.793298e+001
9.882466e+002,1.570625e+001
9.892108e+002,1.525438e+001
9.901750e+002,1.636678e+001
9.911393e+002,1.633838e+001
9.921035e+002,1.285159e+001
9.930677e+002,1.144275e+001
9.940320e+002,1.396651e+001
9.949962e+002,1.760674e+001
9.959604e+002,1.992343e+001
9.969247e+002,2.074905e+001
9.978889e+002,2.115524e+001
9.988531e+002,2.124657e+001
9.998174e+002,2.110411e+001
1.000782e+003,2.044742e+001
1.001746e+003,1.991959e+001
1.002710e+003,2.075883e+001
1.003674e+003,2.326295e+001
1.004639e+003,2.592563e+001
1.005603e+003,2.594705e+001
1.006567e+003,2.297308e+001
1.007531e+003,2.162784e+001
1.008495e+003,2.234396e+001
1.009460e+003,2.371559e+001
1.010424e+003,2.548825e+001
1.011388e+003,2.737521e+001
1.012352e+003,2.795847e+001
1.013317e+003,2.637189e+001
1.014281e+003,2.468381e+001
1.015245e+003,2.375908e+001
1.016209e+003,2.272932e+001
1.017174e+003,2.098347e+001
1.018138e+003,1.852525e+001
1.019102e+003,1.562405e+001
1.020066e+003,1.241321e+001
1.021031e+003,9.365646e+000
1.021995e+003,7.764877e+000
1.022959e+003,7.237839e+000
1.023923e+003,6.962036e+000
1.024887e+003,6.595352e+000
1.025852e+003,6.436920e+000
1.026816e+003,7.341614e+000
1.027780e+003,9.944656e+000
1.028744e+003,1.099200e+001
1.029709e+003,8.688004e+000
1.030673e+003,6.589386e+000
1.031637e+003,5.764252e+000
1.032601e+003,5.694260e+000
1.033566e+003,5.935867e+000
1.034530e+003,6.301147e+000
1.035494e+003,5.758148e+000
1.036458e+003,1.681519e+000
1.037422e+003,-3.154083e+000
1.038387e+003,-3.238342e+000
1.039351e+003,1.023285e+000
1.040315e+003,4.770615e+000
1.041279e+003,4.306992e+000
1.042244e+003,6.536255e-001
1.043208e+003,-1.378525e+000
1.044172e+003,-9.602509e-001
1.045136e+003,-3.617249e-001
1.046101e+003,9.023895e-001
1.047065e+003,1.898590e+000
1.048029e+003,1.436172e+000
1.048993e+003,4.296875e-002
1.049958e+003,-3.280640e-003
1.050922e+003,3.001984e+000
1.051886e+003,6.173477e+000
1.052850e+003,6.416153e+000
1.053814e+003,5.093842e+000
1.054779e+003,3.627396e+000
1.055743e+003,2.437698e+000
1.056707e+003,1.491791e+000
1.057671e+003,7.323914e-001
1.058636e+003,1.373138e-001
1.059600e+003,3.192139e-001
1.060564e+003,2.651947e+000
1.061528e+003,4.015518e+000
1.062493e+003,2.781693e+000
1.063457e+003,9.657135e-001
1.064421e+003,1.253143e+000
1.065385e+003,3.924133e+000
1.066349e+003,5.853012e+000
1.067314e+003,4.816605e+000
1.068278e+003,3.310074e+000
1.069242e+003,2.830338e+000
1.070206e+003,3.261856e+000
1.071171e+003,4.696457e+000
1.072135e+003,6.893433e+000
1.073099e+003,8.629242e+000
1.074063e+003,7.831940e+000
1.075028e+003,4.221603e+000
1.075992e+003,1.975571e+000
1.076956e+003,1.353821e+000
1.077920e+003,1.149200e+000
1.078885e+003,1.182190e+000
1.079849e+003,1.397934e+000
1.080813e+003,1.602783e+000
1.081777e+003,1.758163e+000
1.082741e+003,2.071426e+000
1.083706e+003,2.378677e+000
1.084670e+003,2.900116e+000
1.085634e+003,4.138657e+000
1.086598e+003,5.634613e+000
1.087563e+003,6.576797e+000
1.088527e+003,6.568161e+000
1.089491e+003,5.979187e+000
1.090455e+003,5.342880e+000
1.091420e+003,4.566071e+000
1.092384e+003,3.715775e+000
1.093348e+003,2.522125e+000
1.094312e+003,1.566147e+000
1.095276e+003,1.380905e+000
1.096241e+003,1.814423e+000
1.097205e+003,2.259842e+000
1.098169e+003,2.648300e+000
1.099133e+003,2.793549e+000
1.100098e+003,2.724823e+000
1.101062e+003,2.432251e+000
1.102026e+003,1.738220e+000
1.102990e+003,8.353424e-001
1.103955e+003,-6.916809e-002
1.104919e+003,-8.521729e-001
1.105883e+003,-1.128555e+000
1.106847e+003,2.969513e-001
1.107812e+003,3.401413e+000
1.108776e+003,4.943512e+000
1.109740e+003,4.352936e+000
1.110704e+003,3.111099e+000
1.111668e+003,1.894119e+000
1.112633e+003,9.585266e-001
1.113597e+003,1.370483e+000
1.114561e+003,3.987885e+000
1.115525e+003,5.949768e+000
1.116490e+003,6.373947e+000
1.117454e+003,5.957993e+000
1.118418e+003,4.694443e+000
1.119382e+003,3.134201e+000
1.120347e+003,2.015915e+000
1.121311e+003,1.711334e+000
1.122275e+003,2.234329e+000
1.123239e+003,4.529404e+000
1.124203e+003,8.357681e+000
1.125168e+003,9.225769e+000
1.126132e+003,5.800507e+000
1.127096e+003,2.101410e+000
1.128060e+003,7.955475e-001
1.129025e+003,1.632233e+000
1.129989e+003,3.970932e+000
1.130953e+003,9.070023e+000
1.131917e+003,1.253935e+001
1.132882e+003,1.274753e+001
1.133846e+003,1.181456e+001
1.134810e+003,1.002113e+001
1.135774e+003,8.318634e+000
1.136739e+003,8.549316e+000
1.137703e+003,1.168088e+001
1.138667e+003,1.563594e+001
1.139631e+003,1.653127e+001
1.140595e+003,1.474251e+001
1.141560e+003,1.430949e+001
1.142524e+003,1.559731e+001
1.143488e+003,1.787224e+001
1.144452e+003,2.059509e+001
1.145417e+003,2.387140e+001
1.146381e+003,2.819617e+001
1.147345e+003,3.392940e+001
1.148309e+003,3.970645e+001
1.149274e+003,4.545097e+001
1.150238e+003,5.100298e+001
1.151202e+003,5.627667e+001
1.152166e+003,6.141090e+001
1.153130e+003,6.663597e+001
1.154095e+003,7.194048e+001
1.155059e+003,7.694200e+001
1.156023e+003,8.161923e+001
1.156987e+003,8.554144e+001
1.157952e+003,8.602536e+001
1.158916e+003,8.265347e+001
1.159880e+003,7.946962e+001
1.160844e+003,7.986299e+001
1.161809e+003,8.113179e+001
1.162773e+003,7.689911e+001
1.163737e+003,6.580067e+001
1.164701e+003,5.532933e+001
1.165666e+003,4.724643e+001
1.166630e+003,4.047130e+001
1.167594e+003,3.455762e+001
1.168558e+003,2.972745e+001
1.169522e+003,2.669623e+001
1.170487e+003,2.544731e+001
1.171451e+003,2.474692e+001
1.172415e+003,2.308719e+001
1.173379e+003,2.088242e+001
1.174344e+003,2.083600e+001
1.175308e+003,2.312460e+001
1.176272e+003,2.462071e+001
1.177236e+003,2.408708e+001
1.178201e+003,2.252684e+001
1.179165e+003,2.082382e+001
1.180129e+003,1.888512e+001
1.181093e+003,1.787544e+001
1.182057e+003,1.910602e+001
1.183022e+003,1.979854e+001
1.183986e+003,1.849332e+001
1.184950e+003,1.655345e+001
1.185914e+003,1.525810e+001
1.186879e+003,1.478038e+001
1.187843e+003,1.447646e+001
1.188807e+003,1.377890e+001
1.189771e+003,1.296904e+001
1.190736e+003,1.313841e+001
1.191700e+003,1.441269e+001
1.192664e+003,1.525043e+001
1.193628e+003,1.534592e+001
1.194593e+003,1.534152e+001
1.195557e+003,1.619595e+001
1.196521e+003,1.731703e+001
1.197485e+003,1.617096e+001
1.198449e+003,1.126881e+001
1.199414e+003,7.719315e+000
1.200378e+003,9.427200e+000
1.201342e+003,1.180139e+001
1.202306e+003,1.203903e+001
1.203271e+003,1.054971e+001
1.204235e+003,8.828232e+000
1.205199e+003,7.678894e+000
1.206163e+003,6.793808e+000
1.207128e+003,5.587769e+000
1.208092e+003,4.030731e+000
1.209056e+003,3.437424e+000
1.210020e+003,4.259109e+000
1.210984e+003,4.960922e+000
1.211949e+003,5.308624e+000
1.212913e+003,5.138351e+000
1.213877e+003,4.154785e+000
1.214841e+003,2.394241e+000
1.215806e+003,4.821472e-001
1.216770e+003,-1.597900e+000
1.217734e+003,-3.410065e+000
1.218698e+003,-4.591904e+000
1.219663e+003,-5.514496e+000
1.220627e+003,-6.634171e+000
1.221591e+003,-8.001831e+000
1.222555e+003,-9.393707e+000
1.223520e+003,-1.060063e+001
1.224484e+003,-1.151443e+001
1.225448e+003,-1.181348e+001
1.226412e+003,-1.142603e+001
1.227376e+003,-1.049411e+001
1.228341e+003,-8.056717e+000
1.229305e+003,-6.231277e+000
1.230269e+003,-6.345993e+000
1.231233e+003,-7.850052e+000
1.232198e+003,-9.838104e+000
1.233162e+003,-1.211197e+001
1.234126e+003,-1.354568e+001
1.235090e+003,-1.276222e+001
1.236055e+003,-1.136934e+001
1.237019e+003,-1.117398e+001
1.237983e+003,-1.184483e+001
1.238947e+003,-1.218217e+001
1.239911e+003,-1.165041e+001
1.240876e+003,-1.110159e+001
1.241840e+003,-1.205658e+001
1.242804e+003,-1.468671e+001
1.243768e+003,-1.558693e+001
1.244733e+003,-1.276263e+001
1.245697e+003,-1.077603e+001
1.246661e+003,-1.083998e+001
1.247625e+003,-1.122714e+001
1.248590e+003,-1.011887e+001
1.249554e+003,-8.056259e+000
1.250518e+003,-7.372681e+000
1.251482e+003,-9.282883e+000
1.252447e+003,-1.168365e+001
1.253411e+003,-1.190213e+001
1.254375e+003,-1.072151e+001
1.255339e+003,-9.886429e+000
1.256303e+003,-9.431519e+000
1.257268e+003,-8.920670e+000
1.258232e+003,-8.177383e+000
1.259196e+003,-7.355469e+000
1.260160e+003,-6.534531e+000
1.261125e+003,-5.563751e+000
1.262089e+003,-5.055374e+000
1.263053e+003,-5.928909e+000
1.264017e+003,-6.373077e+000
1.264982e+003,-5.370621e+000
1.265946e+003,-4.123642e+000
1.266910e+003,-3.899109e+000
1.267874e+003,-4.613434e+000
1.268839e+003,-5.193634e+000
1.269803e+003,-4.918182e+000
1.270767e+003,-4.329529e+000
1.271731e+003,-4.498367e+000
1.272695e+003,-5.372589e+000
1.273660e+003,-6.104263e+000
1.274624e+003,-6.877686e+000
1.275588e+003,-7.345612e+000
1.276552e+003,-7.050888e+000
1.277517e+003,-6.285110e+000
1.278481e+003,-5.568130e+000
1.279445e+003,-4.920822e+000
1.280409e+003,-4.843124e+000
1.281374e+003,-5.848434e+000
1.282338e+003,-6.987411e+000
1.283302e+003,-7.867081e+000
1.284266e+003,-8.557846e+000
1.285230e+003,-9.256882e+000
1.286195e+003,-9.909042e+000
1.287159e+003,-1.008232e+001
1.288123e+003,-9.378174e+000
1.289087e+003,-8.141281e+000
1.290052e+003,-7.591644e+000
1.291016e+003,-7.917282e+000
1.291980e+003,-8.638580e+000
1.292944e+003,-1.020380e+001
1.293909e+003,-1.170346e+001
1.294873e+003,-1.310443e+001
1.295837e+003,-1.393044e+001
1.296801e+003,-1.318738e+001
1.297766e+003,-1.091304e+001
1.298730e+003,-8.988983e+000
1.299694e+003,-8.506393e+000
1.300658e+003,-8.690445e+000
1.301622e+003,-8.763321e+000
1.302587e+003,-8.752350e+000
1.303551e+003,-8.626801e+000
1.304515e+003,-8.399765e+000
1.305479e+003,-8.470413e+000
1.306444e+003,-9.284576e+000
1.307408e+003,-1.059290e+001
1.308372e+003,-1.147000e+001
1.309336e+003,-1.200050e+001
1.310301e+003,-1.182198e+001
1.311265e+003,-1.005608e+001
1.312229e+003,-8.567261e+000
1.313193e+003,-7.677048e+000
1.314157e+003,-7.523163e+000
1.315122e+003,-8.668320e+000
1.316086e+003,-1.077493e+001
1.317050e+003,-1.235925e+001
1.318014e+003,-1.235844e+001
1.318979e+003,-1.176352e+001
1.319943e+003,-1.262492e+001
1.320907e+003,-1.464124e+001
1.321871e+003,-1.543735e+001
1.322836e+003,-1.486162e+001
1.323800e+003,-1.368707e+001
1.324764e+003,-1.180550e+001
1.325728e+003,-9.806580e+000
1.326693e+003,-8.857452e+000
1.327657e+003,-9.054108e+000
1.328621e+003,-9.257401e+000
1.329585e+003,-9.115082e+000
1.330549e+003,-8.528580e+000
1.331514e+003,-7.022293e+000
1.332478e+003,-5.790436e+000
1.333442e+003,-6.320862e+000
1.334406e+003,-8.164001e+000
1.335371e+003,-9.481750e+000
1.336335e+003,-9.187439e+000
1.337299e+003,-8.257950e+000
1.338263e+003,-8.676346e+000
1.339228e+003,-1.075609e+001
1.340192e+003,-1.115604e+001
1.341156e+003,-8.022079e+000
1.342120e+003,-6.057846e+000
1.343084e+003,-7.002823e+000
1.344049e+003,-8.542328e+000
1.345013e+003,-8.385544e+000
1.345977e+003,-7.047150e+000
1.346941e+003,-6.895859e+000
1.347906e+003,-8.870087e+000
1.348870e+003,-1.089584e+001
1.349834e+003,-1.115678e+001
1.350798e+003,-1.016078e+001
1.351763e+003,-8.542145e+000
1.352727e+003,-6.519058e+000
1.353691e+003,-5.498123e+000
1.354655e+003,-6.112549e+000
1.355620e+003,-7.390671e+000
1.356584e+003,-8.138672e+000
1.357548e+003,-8.435059e+000
1.358512e+003,-9.425674e+000
1.359476e+003,-1.195032e+001
1.360441e+003,-1.334666e+001
1.361405e+003,-1.213724e+001
1.362369e+003,-1.046458e+001
1.363333e+003,-9.017746e+000
1.364298e+003,-7.920486e+000
1.365262e+003,-7.158081e+000
1.366226e+003,-6.742844e+000
1.367190e+003,-6.749512e+000
1.368155e+003,-7.245316e+000
1.369119e+003,-8.211746e+000
1.370083e+003,-9.688385e+000
1.371047e+003,-1.216429e+001
1.372011e+003,-1.254117e+001
1.372976e+003,-9.179260e+000
1.373940e+003,-6.177078e+000
1.374904e+003,-5.013046e+000
1.375868e+003,-4.960617e+000
1.376833e+003,-5.423996e+000
1.377797e+003,-6.210602e+000
1.378761e+003,-6.685486e+000
1.379725e+003,-6.462738e+000
1.380690e+003,-6.150848e+000
1.381654e+003,-6.338715e+000
1.382618e+003,-6.817139e+000
1.383582e+003,-7.533905e+000
1.384547e+003,-8.373978e+000
1.385511e+003,-8.759094e+000
1.386475e+003,-8.422684e+000
1.387439e+003,-7.551300e+000
1.388403e+003,-6.188934e+000
1.389368e+003,-4.348907e+000
1.390332e+003,-3.115250e+000
1.391296e+003,-2.343781e+000
1.392260e+003,-2.467697e+000
1.393225e+003,-4.675034e+000
1.394189e+003,-6.575150e+000
1.395153e+003,-6.276932e+000
1.396117e+003,-4.989777e+000
1.397082e+003,-4.909058e+000
1.398046e+003,-6.395752e+000
1.399010e+003,-7.685089e+000
1.399974e+003,-7.183975e+000
1.400938e+003,-5.673752e+000
1.401903e+003,-5.378143e+000
1.402867e+003,-6.487488e+000
1.403831e+003,-6.978119e+000
1.404795e+003,-6.783386e+000
1.405760e+003,-6.320007e+000
1.406724e+003,-5.649963e+000
1.407688e+003,-5.126205e+000
1.408652e+003,-5.286224e+000
1.409617e+003,-5.821808e+000
1.410581e+003,-5.307510e+000
1.411545e+003,-2.956543e+000
1.412509e+003,-6.774292e-001
1.413474e+003,-6.273651e-001
1.414438e+003,-1.817047e+000
1.415402e+003,-2.435501e+000
1.416366e+003,-2.453995e+000
1.417330e+003,-2.503128e+000
1.418295e+003,-2.846176e+000
1.419259e+003,-3.212662e+000
1.420223e+003,-3.354065e+000
1.421187e+003,-3.335434e+000
1.422152e+003,-3.172012e+000
1.423116e+003,-2.655289e+000
1.424080e+003,-2.359421e+000
1.425044e+003,-2.702377e+000
1.426009e+003,-3.205627e+000
1.426973e+003,-4.046021e+000
1.427937e+003,-4.722580e+000
1.428901e+003,-4.469421e+000
1.429865e+003,-3.351654e+000
1.430830e+003,-2.089905e+000
1.431794e+003,-1.212799e+000
1.432758e+003,-7.962952e-001
1.433722e+003,-9.599457e-001
1.434687e+003,-1.698975e+000
1.435651e+003,-1.368317e+000
1.436615e+003,1.145782e+000
1.437579e+003,2.458420e+000
1.438544e+003,1.191666e+000
1.439508e+003,-1.759338e-001
1.440472e+003,4.152374e-001
1.441436e+003,2.092239e+000
1.442401e+003,3.088852e+000
1.443365e+003,2.883408e+000
1.444329e+003,1.495850e+000
1.445293e+003,-1.439362e+000
1.446257e+003,-4.366043e+000
1.447222e+003,-3.724136e+000
1.448186e+003,-3.038177e-001
1.449150e+003,1.539932e+000
1.450114e+003,1.073166e+000
1.451079e+003,4.219055e-001
1.452043e+003,6.719971e-001
1.453007e+003,1.447098e+000
1.453971e+003,2.478226e+000
1.454936e+003,3.577148e+000
1.455900e+003,3.576797e+000
1.456864e+003,1.948410e+000
1.457828e+003,3.835754e-001
1.458792e+003,-2.229614e-001
1.459757e+003,-3.964386e-001
1.460721e+003,-3.773499e-001
1.461685e+003,-2.997284e-001
1.462649e+003,-3.566895e-001
1.463614e+003,-5.624237e-001
1.464578e+003,-8.111115e-001
1.465542e+003,-1.049042e+000
1.466506e+003,-1.305511e+000
1.467471e+003,-1.640198e+000
1.468435e+003,-2.085236e+000
1.469399e+003,-1.942978e+000
1.470363e+003,-1.012146e+000
1.471328e+003,9.973145e-002
1.472292e+003,1.762405e+000
1.473256e+003,2.908447e+000
1.474220e+003,2.795090e+000
1.475184e+003,1.776688e+000
1.476149e+003,1.402435e-001
1.477113e+003,-1.781738e+000
1.478077e+003,-2.938416e+000
1.479041e+003,-2.202759e+000
1.480006e+003,-6.498718e-002
1.480970e+003,1.687042e+000
1.481934e+003,2.932907e+000
1.482898e+003,3.840622e+000
1.483863e+003,4.363785e+000
1.484827e+003,4.612000e+000
1.485791e+003,4.450714e+000
1.486755e+003,4.312363e+000
1.487719e+003,4.495087e+000
1.488684e+003,4.951401e+000
1.489648e+003,5.509109e+000
1.490612e+003,6.166870e+000
1.491576e+003,7.300568e+000
1.492541e+003,9.416763e+000
1.493505e+003,1.175818e+001
1.494469e+003,1.232651e+001
1.495433e+003,1.139754e+001
1.496398e+003,1.139830e+001
1.497362e+003,1.309837e+001
1.498326e+003,1.465602e+001
1.499290e+003,1.494427e+001
1.500255e+003,1.464479e+001
1.501219e+003,1.411978e+001
1.502183e+003,1.366431e+001
1.503147e+003,1.511731e+001
1.504111e+003,1.920877e+001
1.505076e+003,2.350986e+001
1.506040e+003,2.653378e+001
1.507004e+003,2.928421e+001
1.507968e+003,3.255435e+001
1.508933e+003,3.638623e+001
1.509897e+003,4.095734e+001
1.510861e+003,4.640118e+001
1.511825e+003,5.231892e+001
1.512790e+003,5.835333e+001
1.513754e+003,6.454057e+001
1.514718e+003,7.097141e+001
1.515682e+003,7.755644e+001
1.516646e+003,8.515367e+001
1.517611e+003,9.490164e+001
1.518575e+003,1.033274e+002
1.519539e+003,1.092094e+002
1.520503e+003,1.138272e+002
1.521468e+003,1.176704e+002
1.522432e+003,1.206468e+002
1.523396e+003,1.225951e+002
1.524360e+003,1.234677e+002
1.525325e+003,1.234749e+002
1.526289e+003,1.227777e+002
1.527253e+003,1.208590e+002
1.528217e+003,1.166101e+002
1.529182e+003,1.100841e+002
1.530146e+003,1.034672e+002
1.531110e+003,9.668332e+001
1.532074e+003,8.974603e+001
1.533039e+003,8.262570e+001
1.534003e+003,7.498091e+001
1.534967e+003,6.654076e+001
1.535931e+003,5.797621e+001
1.536896e+003,4.985103e+001
1.537860e+003,4.232774e+001
1.538824e+003,3.517410e+001
1.539788e+003,2.827570e+001
1.540752e+003,2.219426e+001
1.541717e+003,1.766675e+001
1.542681e+003,1.473817e+001
1.543645e+003,1.328534e+001
1.544609e+003,1.432129e+001
1.545573e+003,1.451346e+001
1.546538e+003,1.287529e+001
1.547502e+003,1.145511e+001
1.548466e+003,1.125471e+001
1.549430e+003,1.163971e+001
1.550395e+003,1.221133e+001
1.551359e+003,1.260219e+001
1.552323e+003,1.200284e+001
1.553287e+003,1.023178e+001
1.554252e+003,8.617325e+000
1.555216e+003,8.415741e+000
1.556180e+003,8.855942e+000
1.557144e+003,7.946716e+000
1.558109e+003,5.674744e+000
1.559073e+003,4.706879e+000
1.560037e+003,5.556244e+000
1.561001e+003,6.446457e+000
1.561966e+003,7.241623e+000
1.562930e+003,7.669724e+000
1.563894e+003,6.995300e+000
1.564858e+003,5.757111e+000
1.565823e+003,5.479187e+000
1.566787e+003,6.380325e+000
1.567751e+003,7.026047e+000
1.568715e+003,6.564651e+000
1.569679e+003,5.788315e+000
1.570644e+003,5.592087e+000
1.571608e+003,5.795135e+000
1.572572e+003,6.014679e+000
1.573536e+003,6.297180e+000
1.574500e+003,6.742691e+000
1.575465e+003,7.564133e+000
1.576429e+003,8.199921e+000
1.577393e+003,7.937195e+000
1.578357e+003,7.220230e+000
1.579322e+003,7.030045e+000
1.580286e+003,7.422287e+000
1.581250e+003,7.726883e+000
1.582214e+003,7.664444e+000
1.583179e+003,7.766647e+000
1.584143e+003,8.595032e+000
1.585107e+003,9.553375e+000
1.586071e+003,1.004662e+001
1.587036e+003,1.018953e+001
1.588000e+003,9.778656e+000
1.588964e+003,8.618179e+000
1.589928e+003,8.248642e+000
1.590893e+003,1.038336e+001
1.591857e+003,1.323999e+001
1.592821e+003,1.394073e+001
1.593785e+003,1.288243e+001
1.594750e+003,1.239391e+001
1.595714e+003,1.285443e+001
1.596678e+003,1.286879e+001
1.597642e+003,1.125412e+001
1.598606e+003,9.990967e+000
1.599571e+003,1.114125e+001
1.600535e+003,1.331290e+001
1.601499e+003,1.510242e+001
1.602463e+003,1.616843e+001
1.603427e+003,1.571918e+001
1.604392e+003,1.325369e+001
1.605356e+003,1.071132e+001
1.606320e+003,1.006436e+001
1.607284e+003,1.085478e+001
1.608249e+003,1.187404e+001
1.609213e+003,1.312752e+001
1.610177e+003,1.451830e+001
1.611141e+003,1.659602e+001
1.612106e+003,1.739882e+001
1.613070e+003,1.424281e+001
1.614034e+003,1.102843e+001
1.614998e+003,1.087041e+001
1.615963e+003,1.250819e+001
1.616927e+003,1.390123e+001
1.617891e+003,1.456137e+001
1.618855e+003,1.439343e+001
1.619820e+003,1.314627e+001
1.620784e+003,1.175755e+001
1.621748e+003,1.205743e+001
1.622712e+003,1.375963e+001
1.623677e+003,1.416890e+001
1.624641e+003,1.303740e+001
1.625605e+003,1.196764e+001
1.626569e+003,1.063629e+001
1.627533e+003,1.009975e+001
1.628498e+003,1.180519e+001
1.629462e+003,1.384676e+001
1.630426e+003,1.459457e+001
1.631390e+003,1.433742e+001
1.632354e+003,1.384904e+001
1.633319e+003,1.339191e+001
1.634283e+003,1.319182e+001
1.635247e+003,1.347868e+001
1.636211e+003,1.386340e+001
1.637176e+003,1.352638e+001
1.638140e+003,1.258911e+001
1.639104e+003,1.235106e+001
1.640068e+003,1.291566e+001
1.641033e+003,1.380759e+001
1.641997e+003,1.569029e+001
1.642961e+003,1.684125e+001
1.643925e+003,1.582500e+001
1.644890e+003,1.420598e+001
1.645854e+003,1.335625e+001
1.646818e+003,1.324910e+001
1.647782e+003,1.350108e+001
1.648747e+003,1.394624e+001
1.649711e+003,1.438203e+001
1.650675e+003,1.472234e+001
1.651639e+003,1.494798e+001
1.652604e+003,1.481816e+001
1.653568e+003,1.430667e+001
1.654532e+003,1.407713e+001
1.655496e+003,1.431961e+001
1.656460e+003,1.426808e+001
1.657425e+003,1.327917e+001
1.658389e+003,1.260713e+001
1.659353e+003,1.355269e+001
1.660317e+003,1.465620e+001
1.661281e+003,1.414009e+001
1.662246e+003,1.235411e+001
1.663210e+003,1.060077e+001
1.664174e+003,9.383728e+000
1.665138e+003,9.126328e+000
1.666103e+003,1.050774e+001
1.667067e+003,1.242612e+001
1.668031e+003,1.250354e+001
1.668995e+003,1.091165e+001
1.669960e+003,9.849442e+000
1.670924e+003,9.492294e+000
1.671888e+003,9.741333e+000
1.672852e+003,1.119632e+001
1.673817e+003,1.224149e+001
1.674781e+003,1.088666e+001
1.675745e+003,9.302887e+000
1.676709e+003,1.073099e+001
1.677674e+003,1.404053e+001
1.678638e+003,1.495084e+001
1.679602e+003,1.215958e+001
1.680566e+003,9.150253e+000
1.681531e+003,8.734818e+000
1.682495e+003,9.634109e+000
1.683459e+003,9.645050e+000
1.684423e+003,8.855774e+000
1.685387e+003,8.055145e+000
1.686352e+003,7.290756e+000
1.687316e+003,6.961975e+000
1.688280e+003,7.453735e+000
1.689244e+003,7.912842e+000
1.690208e+003,7.531052e+000
1.691173e+003,6.857986e+000
1.692137e+003,6.610138e+000
1.693101e+003,6.679596e+000
1.694065e+003,6.313248e+000
1.695030e+003,5.230362e+000
1.695994e+003,4.493225e+000
1.696958e+003,5.190353e+000
1.697922e+003,6.123596e+000
1.698887e+003,5.445068e+000
1.699851e+003,3.850113e+000
1.700815e+003,3.623413e+000
1.701779e+003,4.882248e+000
1.702744e+003,5.495483e+000
1.703708e+003,4.674042e+000
1.704672e+003,3.985031e+000
1.705636e+003,4.782288e+000
1.706601e+003,5.878754e+000
1.707565e+003,5.543488e+000
1.708529e+003,4.211166e+000
1.709493e+003,2.922516e+000
1.710458e+003,1.735855e+000
1.711422e+003,1.042343e+000
1.712386e+003,1.613922e+000
1.713350e+003,2.124405e+000
1.714314e+003,8.683777e-001
1.715279e+003,-9.221802e-001
1.716243e+003,-9.312286e-001
1.717207e+003,6.662750e-001
1.718171e+003,2.226624e+000
1.719135e+003,3.308868e+000
1.720100e+003,3.809494e+000
1.721064e+003,3.469101e+000
1.722028e+003,2.918259e+000
1.722992e+003,3.273880e+000
1.723957e+003,4.352188e+000
1.724921e+003,4.606430e+000
1.725885e+003,3.817932e+000
1.726849e+003,2.856583e+000
1.727814e+003,1.632965e+000
1.728778e+003,8.498077e-001
1.729742e+003,9.620514e-001
1.730706e+003,1.451721e+000
1.731671e+003,2.143372e+000
1.732635e+003,2.544769e+000
1.733599e+003,1.711441e+000
1.734563e+003,-2.161560e-001
1.735528e+003,-2.042587e+000
1.736492e+003,-3.173676e+000
1.737456e+003,-3.448822e+000
1.738420e+003,-2.584656e+000
1.739385e+003,-9.523163e-001
1.740349e+003,3.461304e-001
1.741313e+003,1.436249e+000
1.742277e+003,1.818558e+000
1.743241e+003,1.374817e+000
1.744206e+003,6.026764e-001
1.745170e+003,-1.361496e+000
1.746134e+003,-2.656815e+000
1.747098e+003,-1.169220e+000
1.748063e+003,7.158966e-001
1.749027e+003,-4.393921e-001
1.749991e+003,-3.613998e+000
1.750955e+003,-5.050858e+000
1.751919e+003,-3.689667e+000
1.752884e+003,-2.121780e+000
1.753848e+003,-2.511322e+000
1.754812e+003,-3.580246e+000
1.755776e+003,-2.496323e+000
1.756741e+003,6.859589e-001
1.757705e+003,1.724747e+000
1.758669e+003,-5.590210e-001
1.759633e+003,-1.694870e+000
1.760598e+003,-3.494415e-001
1.761562e+003,7.891388e-001
1.762526e+003,1.202133e+000
1.763490e+003,1.011383e+000
1.764455e+003,-1.824188e-001
1.765419e+003,-1.644501e+000
1.766383e+003,-2.304291e+000
1.767347e+003,-2.145981e+000
1.768312e+003,-1.879364e+000
1.769276e+003,-1.859360e+000
1.770240e+003,-1.825302e+000
1.771204e+003,-1.398270e+000
1.772168e+003,-6.483765e-001
1.773133e+003,3.629150e-001
1.774097e+003,1.517120e+000
1.775061e+003,1.384842e+000
1.776025e+003,-4.887543e-001
1.776990e+003,-1.844360e+000
1.777954e+003,-1.705933e+000
1.778918e+003,-1.137756e+000
1.779882e+003,-7.542419e-001
1.780846e+003,-6.349945e-001
1.781811e+003,-8.582306e-001
1.782775e+003,-1.324982e+000
1.783739e+003,-1.827011e+000
1.784703e+003,-2.336090e+000
1.785668e+003,-2.583099e+000
1.786632e+003,-2.594498e+000
1.787596e+003,-2.308762e+000
1.788560e+003,-1.225464e+000
1.789525e+003,5.526733e-002
1.790489e+003,6.093750e-001
1.791453e+003,4.705048e-001
1.792417e+003,-7.983398e-002
1.793382e+003,-8.938293e-001
1.794346e+003,-1.431625e+000
1.795310e+003,-1.403946e+000
1.796274e+003,-1.241623e+000
1.797239e+003,-1.437759e+000
1.798203e+003,-1.675781e+000
1.799167e+003,-1.122162e+000
1.800131e+003,3.424377e-001
1.801095e+003,7.154999e-001
1.802060e+003,-9.356995e-001
1.803024e+003,-1.787643e+000
1.803988e+003,-8.240814e-001
1.804952e+003,-3.779602e-002
1.805917e+003,-4.833374e-001
1.806881e+003,-1.466736e+000
1.807845e+003,-2.776520e+000
1.808809e+003,-3.765335e+000
1.809773e+003,-3.157272e+000
1.810738e+003,-9.999847e-001
1.811702e+003,1.112900e+000
1.812666e+003,2.164963e+000
1.813630e+003,2.433563e+000
1.814595e+003,2.263855e+000
1.815559e+003,1.640762e+000
1.816523e+003,3.292084e-001
1.817487e+003,-1.825836e+000
1.818452e+003,-2.494507e+000
1.819416e+003,-8.375854e-001
1.820380e+003,3.341370e-001
1.821344e+003,-4.861603e-001
1.822309e+003,-1.042206e+000
1.823273e+003,9.055786e-001
1.824237e+003,3.144775e+000
1.825201e+003,3.129272e+000
1.826166e+003,1.493683e+000
1.827130e+003,7.351685e-002
1.828094e+003,-8.101807e-001
1.829058e+003,-1.169907e+000
1.830022e+003,-8.105316e-001
1.830987e+003,-2.212219e-001
1.831951e+003,3.688354e-001
1.832915e+003,8.183899e-001
1.833879e+003,8.663788e-001
1.834844e+003,5.935211e-001
1.835808e+003,1.880493e-001
1.836772e+003,-2.653503e-001
1.837736e+003,-5.104828e-001
1.838700e+003,-4.665070e-001
1.839665e+003,-2.768555e-001
1.840629e+003,-1.303101e-002
1.841593e+003,2.669678e-001
1.842557e+003,3.116608e-001
1.843522e+003,1.297302e-001
1.844486e+003,6.931152e-001
1.845450e+003,3.389633e+000
1.846414e+003,4.279358e+000
1.847379e+003,9.309235e-001
1.848343e+003,-1.104660e+000
1.849307e+003,1.658417e+000
1.850271e+003,4.412766e+000
1.851236e+003,3.159637e+000
1.852200e+003,9.770203e-002
1.853164e+003,-1.735504e+000
1.854128e+003,-2.102448e+000
1.855093e+003,-2.057892e+000
1.856057e+003,-1.982910e+000
1.857021e+003,-1.644272e+000
1.857985e+003,-8.693542e-001
1.858949e+003,1.414642e-001
1.859914e+003,1.079926e+000
1.860878e+003,1.993393e+000
1.861842e+003,3.355011e+000
1.862806e+003,5.180222e+000
1.863771e+003,5.005630e+000
1.864735e+003,1.669937e+000
1.865699e+003,-2.073059e-001
1.866663e+003,2.312988e+000
1.867627e+003,5.223083e+000
1.868592e+003,4.607468e+000
1.869556e+003,2.143143e+000
1.870520e+003,1.177917e+000
1.871484e+003,1.463196e+000
1.872449e+003,1.271652e+000
1.873413e+003,2.981110e-001
1.874377e+003,2.031403e-001
1.875341e+003,2.348206e+000
1.876306e+003,3.978088e+000
1.877270e+003,2.724930e+000
1.878234e+003,1.031006e+000
1.879198e+003,1.885361e+000
1.880163e+003,3.981079e+000
1.881127e+003,4.343918e+000
1.882091e+003,3.037949e+000
1.883055e+003,2.657227e+000
1.884020e+003,4.137207e+000
1.884984e+003,5.293411e+000
1.885948e+003,4.101929e+000
1.886912e+003,1.879272e+000
1.887876e+003,1.279007e+000
1.888841e+003,2.185471e+000
1.889805e+003,3.138397e+000
1.890769e+003,4.147980e+000
1.891733e+003,5.240570e+000
1.892698e+003,6.781006e+000
1.893662e+003,7.332230e+000
1.894626e+003,5.658585e+000
1.895590e+003,3.887405e+000
1.896554e+003,3.760391e+000
1.897519e+003,4.219131e+000
1.898483e+003,3.863174e+000
1.899447e+003,2.872986e+000
1.900411e+003,2.297714e+000
1.901376e+003,2.359695e+000
1.902340e+003,2.347122e+000
1.903304e+003,1.812210e+000
1.904268e+003,1.392654e+000
1.905233e+003,1.689407e+000
1.906197e+003,2.141922e+000
1.907161e+003,1.908249e+000
1.908125e+003,1.567108e+000
1.909090e+003,2.569641e+000
1.910054e+003,4.471848e+000
1.911018e+003,5.029678e+000
1.911982e+003,3.705124e+000
1.912947e+003,2.475891e+000
1.913911e+003,2.771622e+000
1.914875e+003,3.841324e+000
1.915839e+003,4.539658e+000
1.916803e+003,4.839752e+000
1.917768e+003,4.877304e+000
1.918732e+003,4.690506e+000
1.919696e+003,4.242462e+000
1.920660e+003,3.230682e+000
1.921625e+003,2.969955e+000
1.922589e+003,3.953125e+000
1.923553e+003,5.286652e+000
1.924517e+003,7.144531e+000
1.925481e+003,8.590378e+000
1.926446e+003,8.464157e+000
1.927410e+003,7.467667e+000
1.928374e+003,6.851089e+000
1.929338e+003,6.692719e+000
1.930303e+003,6.985092e+000
1.931267e+003,8.139023e+000
1.932231e+003,8.787903e+000
1.933195e+003,7.739685e+000
1.934160e+003,6.497635e+000
1.935124e+003,6.047104e+000
1.936088e+003,6.066437e+000
1.937052e+003,6.406616e+000
1.938017e+003,6.875244e+000
1.938981e+003,7.171082e+000
1.939945e+003,7.178268e+000
1.940909e+003,6.675690e+000
1.941874e+003,5.633209e+000
1.942838e+003,4.839462e+000
1.943802e+003,5.107056e+000
1.944766e+003,5.976227e+000
1.945730e+003,6.409790e+000
1.946695e+003,6.400223e+000
1.947659e+003,6.133530e+000
1.948623e+003,5.493454e+000
1.949587e+003,5.965515e+000
1.950552e+003,8.308624e+000
1.951516e+003,9.285095e+000
1.952480e+003,6.926376e+000
1.953444e+003,4.910797e+000
1.954408e+003,6.366714e+000
1.955373e+003,8.919952e+000
1.956337e+003,9.241196e+000
1.957301e+003,8.002823e+000
1.958265e+003,7.283783e+000
1.959230e+003,7.183350e+000
1.960194e+003,7.233017e+000
1.961158e+003,7.160553e+000
1.962122e+003,7.310455e+000
1.963087e+003,8.186981e+000
1.964051e+003,8.840912e+000
1.965015e+003,8.813660e+000
1.965979e+003,8.362732e+000
1.966944e+003,7.250397e+000
1.967908e+003,6.047363e+000
1.968872e+003,5.756805e+000
1.969836e+003,6.444748e+000
1.970801e+003,7.629333e+000
1.971765e+003,9.038452e+000
1.972729e+003,1.003325e+001
1.973693e+003,1.006140e+001
1.974657e+003,9.413589e+000
1.975622e+003,8.004654e+000
1.976586e+003,6.395004e+000
1.977550e+003,6.318893e+000
1.978514e+003,7.610840e+000
1.979479e+003,9.216568e+000
1.980443e+003,1.088628e+001
1.981407e+003,1.170485e+001
1.982371e+003,1.132614e+001
1.983335e+003,1.076794e+001
1.984300e+003,1.076859e+001
1.985264e+003,1.085347e+001
1.986228e+003,1.031476e+001
1.987192e+003,9.297699e+000
1.988157e+003,8.552780e+000
1.989121e+003,8.084503e+000
1.990085e+003,8.075867e+000
1.991049e+003,9.182144e+000
1.992014e+003,9.495483e+000
1.992978e+003,7.570496e+000
1.993942e+003,6.417664e+000
1.994906e+003,7.627716e+000
1.995871e+003,9.381287e+000
1.996835e+003,1.048515e+001
1.997799e+003,1.125012e+001
1.998763e+003,1.228677e+001
1.999728e+003,1.343738e+001
