5.003444e+002,4.440588e+001
5.013087e+002,4.245668e+001
5.022729e+002,4.104089e+001
5.032371e+002,4.035522e+001
5.042014e+002,4.056712e+001
5.051656e+002,4.150775e+001
5.061298e+002,4.195396e+001
5.070941e+002,4.063516e+001
5.080583e+002,3.690852e+001
5.090225e+002,3.474263e+001
5.099868e+002,3.427318e+001
5.109510e+002,3.459926e+001
5.119152e+002,3.561195e+001
5.128795e+002,3.737111e+001
5.138437e+002,3.867137e+001
5.148079e+002,3.936993e+001
5.157722e+002,3.937914e+001
5.167364e+002,3.809988e+001
5.177006e+002,3.574673e+001
5.186649e+002,3.340335e+001
5.196291e+002,3.254625e+001
5.205933e+002,3.266727e+001
5.215576e+002,3.335796e+001
5.225218e+002,3.430486e+001
5.234860e+002,3.493272e+001
5.244503e+002,3.431009e+001
5.254145e+002,3.209698e+001
5.263787e+002,3.051959e+001
5.273430e+002,2.975668e+001
5.283072e+002,2.949411e+001
5.292714e+002,2.927246e+001
5.302357e+002,2.884476e+001
5.311999e+002,2.864609e+001
5.321641e+002,2.964082e+001
5.331284e+002,3.048987e+001
5.340926e+002,2.978207e+001
5.350568e+002,2.682338e+001
5.360211e+002,2.373944e+001
5.369853e+002,2.261099e+001
5.379495e+002,2.245401e+001
5.389138e+002,2.259785e+001
5.398780e+002,2.270900e+001
5.408422e+002,2.285368e+001
5.418065e+002,2.335718e+001
5.427707e+002,2.415509e+001
5.437349e+002,2.483623e+001
5.446992e+002,2.527425e+001
5.456634e+002,2.549403e+001
5.466276e+002,2.564825e+001
5.475919e+002,2.643144e+001
5.485561e+002,2.621220e+001
5.495203e+002,2.384183e+001
5.504846e+002,2.070723e+001
5.514488e+002,1.906250e+001
5.524130e+002,2.065160e+001
5.533773e+002,2.175783e+001
5.543415e+002,1.988750e+001
5.553057e+002,1.695612e+001
5.562700e+002,1.486839e+001
5.572342e+002,1.477364e+001
5.581984e+002,1.588239e+001
5.591627e+002,1.659383e+001
5.601269e+002,1.706857e+001
5.610911e+002,1.744003e+001
5.620554e+002,1.774245e+001
5.630196e+002,1.791240e+001
5.639838e+002,1.776952e+001
5.649481e+002,1.696965e+001
5.659123e+002,1.637170e+001
5.668765e+002,1.677884e+001
5.678408e+002,1.768452e+001
5.688050e+002,1.727560e+001
5.697692e+002,1.304294e+001
5.707335e+002,1.003745e+001
5.716977e+002,1.081651e+001
5.726619e+002,1.340211e+001
5.736262e+002,1.506088e+001
5.745904e+002,1.385182e+001
5.755546e+002,1.154826e+001
5.765189e+002,1.079851e+001
5.774831e+002,1.101210e+001
5.784473e+002,1.139964e+001
5.794116e+002,1.147339e+001
5.803758e+002,1.133907e+001
5.813400e+002,1.134750e+001
5.823043e+002,1.125685e+001
5.832685e+002,1.138785e+001
5.842327e+002,1.208829e+001
5.851970e+002,1.333353e+001
5.861612e+002,1.449356e+001
5.871254e+002,1.603989e+001
5.880897e+002,1.659494e+001
5.890539e+002,1.519814e+001
5.900181e+002,1.269693e+001
5.909824e+002,1.048088e+001
5.919466e+002,9.456497e+000
5.929108e+002,9.057449e+000
5.938751e+002,8.520966e+000
5.948393e+002,7.992294e+000
5.958035e+002,7.776169e+000
5.967678e+002,8.100784e+000
5.977320e+002,8.887909e+000
5.986962e+002,9.008560e+000
5.996605e+002,8.264587e+000
6.006247e+002,7.921631e+000
6.015889e+002,9.256500e+000
6.025532e+002,1.203755e+001
6.035174e+002,1.268956e+001
6.044816e+002,8.494919e+000
6.054459e+002,4.968643e+000
6.064101e+002,2.622604e+000
6.073743e+002,1.505676e+000
6.083386e+002,1.758530e+000
6.093028e+002,4.264648e+000
6.102670e+002,6.616714e+000
6.112313e+002,6.638565e+000
6.121955e+002,5.480408e+000
6.131597e+002,4.585403e+000
6.141240e+002,4.945663e+000
6.150882e+002,6.280106e+000
6.160524e+002,7.858902e+000
6.170167e+002,9.679367e+000
6.179809e+002,1.077022e+001
6.189451e+002,1.043633e+001
6.199094e+002,8.838577e+000
6.208736e+002,7.639847e+000
6.218378e+002,7.343231e+000
6.228021e+002,7.144058e+000
6.237663e+002,7.294830e+000
6.247305e+002,7.457764e+000
6.256948e+002,6.903305e+000
6.266590e+002,4.758469e+000
6.276232e+002,2.997925e+000
6.285875e+002,3.244843e+000
6.295517e+002,4.331573e+000
6.305159e+002,5.009201e+000
6.314802e+002,4.570282e+000
6.324444e+002,3.442230e+000
6.334086e+002,2.497253e+000
6.343729e+002,1.928284e+000
6.353371e+002,2.890793e+000
6.363013e+002,6.233963e+000
6.372656e+002,1.070198e+001
6.382298e+002,1.182001e+001
6.391940e+002,5.342880e+000
6.401583e+002,7.807922e-001
6.411225e+002,-1.385742e+000
6.420867e+002,-1.604538e+000
6.430510e+002,1.265259e-001
6.440152e+002,4.726318e+000
6.449794e+002,7.799301e+000
6.459437e+002,6.258942e+000
6.469079e+002,3.230850e+000
6.478721e+002,9.422455e-001
6.488364e+002,2.727661e-001
6.498006e+002,4.852753e-001
6.507648e+002,2.406921e-001
6.517291e+002,-2.017975e-001
6.526933e+002,1.355133e-001
6.536575e+002,1.498199e+000
6.546218e+002,2.996887e+000
6.555860e+002,2.877228e+000
6.565502e+002,1.438904e-002
6.575145e+002,-2.238815e+000
6.584787e+002,-3.926239e+000
6.594429e+002,-5.060349e+000
6.604072e+002,-5.492950e+000
6.613714e+002,-5.132263e+000
6.623356e+002,-4.754410e+000
6.632999e+002,-5.300537e+000
6.642641e+002,-5.579224e+000
6.652283e+002,-4.446274e+000
6.661926e+002,-2.126678e+000
6.671568e+002,6.744385e-002
6.681210e+002,4.124756e-001
6.690853e+002,-5.883179e-001
6.700495e+002,-1.267624e+000
6.710137e+002,-1.588135e+000
6.719780e+002,-1.805618e+000
6.729422e+002,-2.272736e+000
6.739064e+002,-3.231339e+000
6.748707e+002,-3.064209e+000
6.758349e+002,-5.289459e-001
6.767991e+002,1.343140e+000
6.777634e+002,7.662811e-001
6.787276e+002,-1.791992e+000
6.796918e+002,-3.242981e+000
6.806561e+002,-1.273010e+000
6.816203e+002,5.393829e-001
6.825845e+002,5.085754e-001
6.835488e+002,-5.735016e-001
6.845130e+002,-1.198593e+000
6.854772e+002,-1.764984e-001
6.864415e+002,1.704346e+000
6.874057e+002,2.543015e+000
6.883699e+002,2.499298e+000
6.893342e+002,2.129486e+000
6.902984e+002,1.764191e+000
6.912626e+002,1.391678e+000
6.922269e+002,6.997070e-001
6.931911e+002,-9.124603e-001
6.941553e+002,-1.705307e+000
6.951196e+002,-1.343491e+000
6.960838e+002,-3.339996e-001
6.970480e+002,7.036133e-001
6.980123e+002,1.876724e+000
6.989765e+002,2.574921e+000
6.999407e+002,2.473480e+000
7.009050e+002,1.971817e+000
7.018692e+002,1.299011e+000
7.028334e+002,5.601501e-001
7.037977e+002,-2.418518e-001
7.047619e+002,-1.167404e+000
7.057261e+002,-1.973190e+000
7.066904e+002,-2.289490e+000
7.076546e+002,-2.058075e+000
7.086188e+002,-1.435684e+000
7.095831e+002,-6.303101e-001
7.105473e+002,4.898834e-001
7.115115e+002,1.134735e+000
7.124758e+002,1.543503e+000
7.134400e+002,1.320847e+000
7.144042e+002,-2.291107e-001
7.153685e+002,-2.993195e+000
7.163327e+002,-4.852951e+000
7.172969e+002,-3.888901e+000
7.182612e+002,-2.599564e+000
7.192254e+002,-1.862259e+000
7.201896e+002,-1.668716e+000
7.211539e+002,-1.715393e+000
7.221181e+002,-1.767334e+000
7.230823e+002,-1.784576e+000
7.240466e+002,-1.873520e+000
7.250108e+002,-1.857910e+000
7.259750e+002,-1.004242e+000
7.269393e+002,1.276016e+000
7.279035e+002,4.502975e+000
7.288677e+002,5.555679e+000
7.298320e+002,1.305222e+000
7.307962e+002,-7.867126e-001
7.317604e+002,1.490036e+000
7.327247e+002,5.534973e+000
7.336889e+002,7.457031e+000
7.346531e+002,5.519485e+000
7.356174e+002,3.381744e+000
7.365816e+002,3.618439e+000
7.375458e+002,4.494919e+000
7.385101e+002,4.539093e+000
7.394743e+002,3.476349e+000
7.404385e+002,2.342804e+000
7.414028e+002,2.889099e+000
7.423670e+002,4.425354e+000
7.433312e+002,4.578705e+000
7.442955e+002,3.250961e+000
7.452597e+002,1.589828e+000
7.462239e+002,8.426361e-001
7.471882e+002,1.263687e+000
7.481524e+002,1.316284e+000
7.491166e+002,4.069824e-001
7.500809e+002,-4.172668e-001
7.510451e+002,-6.086273e-001
7.520093e+002,-3.442841e-001
7.529736e+002,-3.665466e-001
7.539378e+002,-1.194916e+000
7.549020e+002,-1.833435e+000
7.558663e+002,-1.766815e+000
7.568306e+002,-1.150925e+000
7.577948e+002,-8.226013e-002
7.587590e+002,1.296906e+000
7.597233e+002,2.651962e+000
7.606875e+002,3.071365e+000
7.616517e+002,2.738007e+000
7.626160e+002,2.242050e+000
7.635802e+002,1.558746e+000
7.645444e+002,1.000443e+000
7.655087e+002,1.375916e+000
7.664729e+002,3.667221e+000
7.674371e+002,4.566956e+000
7.684014e+002,2.917526e+000
7.693656e+002,9.474335e-001
7.703298e+002,-2.607727e-002
7.712941e+002,2.020416e-001
7.722583e+002,1.021362e+000
7.732225e+002,2.303513e+000
7.741868e+002,3.748108e+000
7.751510e+002,5.457382e+000
7.761152e+002,7.130020e+000
7.770795e+002,7.980698e+000
7.780437e+002,7.279068e+000
7.790079e+002,5.347290e+000
7.799722e+002,5.816071e+000
7.809364e+002,9.069031e+000
7.819006e+002,1.101656e+001
7.828649e+002,9.260681e+000
7.838291e+002,5.094452e+000
7.847933e+002,2.801071e+000
7.857576e+002,3.875137e+000
7.867218e+002,4.250046e+000
7.876860e+002,2.456100e+000
7.886503e+002,4.922028e-001
7.896145e+002,2.758636e-001
7.905787e+002,2.202866e+000
7.915430e+002,4.417206e+000
7.925072e+002,4.437515e+000
7.934714e+002,3.793274e+000
7.944357e+002,4.792282e+000
7.953999e+002,7.272781e+000
7.963641e+002,9.131134e+000
7.973284e+002,7.846100e+000
7.982926e+002,3.105560e+000
7.992568e+002,1.506500e+000
8.002211e+002,4.321091e+000
8.011853e+002,6.708115e+000
8.021495e+002,6.782608e+000
8.031138e+002,5.277176e+000
8.040780e+002,4.429001e+000
8.050422e+002,5.021576e+000
8.060065e+002,5.333145e+000
8.069707e+002,4.234695e+000
8.079349e+002,2.837112e+000
8.088992e+002,2.403641e+000
8.098634e+002,3.354233e+000
8.108276e+002,4.807266e+000
8.117919e+002,5.563293e+000
8.127561e+002,5.593704e+000
8.137203e+002,5.050797e+000
8.146846e+002,4.077347e+000
8.156488e+002,3.106110e+000
8.166130e+002,2.579132e+000
8.175773e+002,2.489655e+000
8.185415e+002,2.739746e+000
8.195057e+002,3.727051e+000
8.204700e+002,4.325272e+000
8.214342e+002,3.735184e+000
8.223984e+002,2.475967e+000
8.233627e+002,1.998398e+000
8.243269e+002,3.182373e+000
8.252911e+002,4.544739e+000
8.262554e+002,5.267334e+000
8.272196e+002,5.626328e+000
8.281838e+002,5.823624e+000
8.291481e+002,5.969528e+000
8.301123e+002,6.128357e+000
8.310765e+002,6.466248e+000
8.320408e+002,6.900269e+000
8.330050e+002,6.913208e+000
8.339692e+002,6.400925e+000
8.349335e+002,5.790436e+000
8.358977e+002,5.636734e+000
8.368619e+002,6.113510e+000
8.378262e+002,6.176559e+000
8.387904e+002,5.228775e+000
8.397546e+002,4.354965e+000
8.407189e+002,3.473175e+000
8.416831e+002,2.949570e+000
8.426473e+002,3.485855e+000
8.436116e+002,5.603210e+000
8.445758e+002,8.033310e+000
8.455400e+002,9.770279e+000
8.465043e+002,1.068037e+001
8.474685e+002,1.036475e+001
8.484327e+002,8.953201e+000
8.493970e+002,7.205734e+000
8.503612e+002,6.247726e+000
8.513254e+002,6.126663e+000
8.522897e+002,6.599838e+000
8.532539e+002,8.088226e+000
8.542181e+002,9.419617e+000
8.551824e+002,9.929688e+000
8.561466e+002,9.810822e+000
8.571108e+002,9.844147e+000
8.580751e+002,9.887405e+000
8.590393e+002,1.000644e+001
8.600035e+002,1.040213e+001
8.609678e+002,1.096289e+001
8.619320e+002,1.154982e+001
8.628962e+002,1.208841e+001
8.638605e+002,1.260800e+001
8.648247e+002,1.325601e+001
8.657889e+002,1.386382e+001
8.667532e+002,1.393153e+001
8.677174e+002,1.339833e+001
8.686816e+002,1.304315e+001
8.696459e+002,1.394652e+001
8.706101e+002,1.648717e+001
8.715743e+002,1.776764e+001
8.725386e+002,1.679639e+001
8.735028e+002,1.598718e+001
8.744670e+002,1.545956e+001
8.754313e+002,1.546184e+001
8.763955e+002,1.685832e+001
8.773597e+002,2.063300e+001
8.783240e+002,2.355289e+001
8.792882e+002,2.257489e+001
8.802524e+002,2.018918e+001
8.812167e+002,1.826657e+001
8.821809e+002,1.735269e+001
8.831451e+002,1.709378e+001
8.841094e+002,1.707350e+001
8.850736e+002,1.737900e+001
8.860378e+002,1.784978e+001
8.870021e+002,1.824153e+001
8.879663e+002,1.926122e+001
8.889305e+002,2.193529e+001
8.898948e+002,2.569789e+001
8.908590e+002,2.762442e+001
8.918232e+002,2.617751e+001
8.927875e+002,2.523415e+001
8.937517e+002,2.614468e+001
8.947159e+002,2.745811e+001
8.956802e+002,2.758485e+001
8.966444e+002,2.632849e+001
8.976086e+002,2.534775e+001
8.985729e+002,2.692598e+001
8.995371e+002,2.946956e+001
9.005013e+002,2.989124e+001
9.014656e+002,2.854100e+001
9.024298e+002,2.727887e+001
9.033940e+002,2.745863e+001
9.043583e+002,2.880717e+001
9.053225e+002,2.977510e+001
9.062867e+002,3.005884e+001
9.072510e+002,3.014134e+001
9.082152e+002,3.009270e+001
9.091794e+002,3.003725e+001
9.101437e+002,2.994138e+001
9.111079e+002,2.978290e+001
9.120721e+002,3.003485e+001
9.130364e+002,3.173955e+001
9.140006e+002,3.307248e+001
9.149648e+002,3.277863e+001
9.159291e+002,3.140382e+001
9.168933e+002,3.002919e+001
9.178575e+002,2.937479e+001
9.188218e+002,2.926315e+001
9.197860e+002,2.935266e+001
9.207502e+002,2.959261e+001
9.217145e+002,2.993452e+001
9.226787e+002,3.078233e+001
9.236429e+002,3.159302e+001
9.246072e+002,3.138301e+001
9.255714e+002,2.981999e+001
9.265356e+002,2.856801e+001
9.274999e+002,2.855786e+001
9.284641e+002,2.809686e+001
9.294283e+002,2.620097e+001
9.303926e+002,2.359438e+001
9.313568e+002,2.143414e+001
9.323210e+002,2.027812e+001
9.332853e+002,2.000682e+001
9.342495e+002,2.116542e+001
9.352137e+002,2.291489e+001
9.361780e+002,2.407515e+001
9.371422e+002,2.446301e+001
9.381064e+002,2.442613e+001
9.390707e+002,2.429195e+001
9.400349e+002,2.392053e+001
9.409991e+002,2.366374e+001
9.419634e+002,2.383069e+001
9.429276e+002,2.365747e+001
9.438918e+002,2.242844e+001
9.448561e+002,2.093810e+001
9.458203e+002,2.078894e+001
9.467845e+002,2.277875e+001
9.477488e+002,2.446944e+001
9.487130e+002,2.326204e+001
9.496772e+002,2.149211e+001
9.506415e+002,2.109076e+001
9.516057e+002,2.205148e+001
9.525699e+002,2.316731e+001
9.535342e+002,2.324644e+001
9.544984e+002,2.236676e+001
9.554626e+002,2.146921e+001
9.564269e+002,2.065816e+001
9.573911e+002,2.002423e+001
9.583553e+002,1.959058e+001
9.593196e+002,1.928976e+001
9.602838e+002,1.910922e+001
9.612480e+002,1.912068e+001
9.622123e+002,1.877344e+001
9.631765e+002,1.751598e+001
9.641407e+002,1.633073e+001
9.651050e+002,1.552390e+001
9.660692e+002,1.511432e+001
9.670334e+002,1.519904e+001
9.679977e+002,1.591434e+001
9.689619e+002,1.683842e+001
9.699261e+002,1.659355e+001
9.708904e+002,1.554530e+001
9.718546e+002,1.490584e+001
9.728188e+002,1.487315e+001
9.737831e+002,1.540848e+001
9.747473e+002,1.664557e+001
9.757115e+002,1.881203e+001
9.766758e+002,2.062521e+001
9.776400e+002,2.225739e+001
9.786042e+002,2.348564e+001
9.795685e+002,2.402016e+001
9.805327e+002,2.406544e+001
9.814969e+002,2.403947e+001
9.824612e+002,2.414572e+001
9.834254e+002,2.396193e+001
9.843896e+002,2.241263e+001
9.853539e+002,2.056253e+001
9.863181e+002,1.998538e+001
9.872823e+002,2.038100e+001
9.882466e+002,2.009578e+001
9.892108e+002,1.779057e+001
9.901750e+002,1.397308e+001
9.911393e+002,1.148656e+001
9.921035e+002,1.060022e+001
9.930677e+002,1.024957e+001
9.940320e+002,1.113342e+001
9.949962e+002,1.217712e+001
9.959604e+002,1.187067e+001
9.969247e+002,1.026813e+001
9.978889e+002,1.021838e+001
9.988531e+002,1.433195e+001
9.998174e+002,1.852782e+001
1.000782e+003,2.061813e+001
1.001746e+003,2.121220e+001
1.002710e+003,2.111530e+001
1.003674e+003,2.077542e+001
1.004639e+003,2.034691e+001
1.005603e+003,2.010269e+001
1.006567e+003,2.002991e+001
1.007531e+003,2.017767e+001
1.008495e+003,2.098897e+001
1.009460e+003,2.120621e+001
1.010424e+003,1.952014e+001
1.011388e+003,1.657594e+001
1.012352e+003,1.504691e+001
1.013317e+003,1.598643e+001
1.014281e+003,1.675323e+001
1.015245e+003,1.628755e+001
1.016209e+003,1.549324e+001
1.017174e+003,1.532742e+001
1.018138e+003,1.560675e+001
1.019102e+003,1.509923e+001
1.020066e+003,1.267033e+001
1.021031e+003,9.344101e+000
1.021995e+003,8.088394e+000
1.022959e+003,8.389114e+000
1.023923e+003,8.568893e+000
1.024887e+003,8.050400e+000
1.025852e+003,7.179962e+000
1.026816e+003,6.627762e+000
1.027780e+003,6.647018e+000
1.028744e+003,6.122314e+000
1.029709e+003,4.162216e+000
1.030673e+003,2.555328e+000
1.031637e+003,1.903046e+000
1.032601e+003,1.839264e+000
1.033566e+003,2.039246e+000
1.034530e+003,2.378418e+000
1.035494e+003,2.310913e+000
1.036458e+003,3.327789e-001
1.037422e+003,-1.898285e+000
1.038387e+003,-9.800720e-001
1.039351e+003,2.782654e+000
1.040315e+003,6.073059e+000
1.041279e+003,6.370163e+000
1.042244e+003,4.381821e+000
1.043208e+003,3.433792e+000
1.044172e+003,4.404892e+000
1.045136e+003,4.763824e+000
1.046101e+003,4.259644e+000
1.047065e+003,3.468567e+000
1.048029e+003,2.405426e+000
1.048993e+003,1.305542e+000
1.049958e+003,1.012985e+000
1.050922e+003,2.310486e+000
1.051886e+003,3.669586e+000
1.052850e+003,3.326355e+000
1.053814e+003,2.170380e+000
1.054779e+003,1.004013e+000
1.055743e+003,1.544189e-001
1.056707e+003,1.692657e-001
1.057671e+003,1.833694e+000
1.058636e+003,5.145828e+000
1.059600e+003,6.541672e+000
1.060564e+003,4.354431e+000
1.061528e+003,3.011261e+000
1.062493e+003,3.625137e+000
1.063457e+003,4.823853e+000
1.064421e+003,5.032364e+000
1.065385e+003,4.132751e+000
1.066349e+003,3.615524e+000
1.067314e+003,4.654144e+000
1.068278e+003,5.815460e+000
1.069242e+003,6.205765e+000
1.070206e+003,6.033783e+000
1.071171e+003,5.401306e+000
1.072135e+003,4.440872e+000
1.073099e+003,3.694977e+000
1.074063e+003,4.203491e+000
1.075028e+003,6.167938e+000
1.075992e+003,7.366272e+000
1.076956e+003,7.812561e+000
1.077920e+003,7.542847e+000
1.078885e+003,6.311371e+000
1.079849e+003,4.591644e+000
1.080813e+003,3.051865e+000
1.081777e+003,1.714249e+000
1.082741e+003,1.016159e+000
1.083706e+003,1.828003e+000
1.084670e+003,2.629120e+000
1.085634e+003,2.322464e+000
1.086598e+003,1.396820e+000
1.087563e+003,1.134766e+000
1.088527e+003,2.206131e+000
1.089491e+003,3.657349e+000
1.090455e+003,3.374496e+000
1.091420e+003,1.045868e+000
1.092384e+003,-2.774353e-001
1.093348e+003,-3.067474e-001
1.094312e+003,-3.749084e-002
1.095276e+003,4.814148e-002
1.096241e+003,8.964539e-002
1.097205e+003,4.429779e-001
1.098169e+003,1.327011e+000
1.099133e+003,1.794113e+000
1.100098e+003,1.327652e+000
1.101062e+003,6.071472e-001
1.102026e+003,-2.752533e-001
1.102990e+003,-1.011581e+000
1.103955e+003,-1.080750e+000
1.104919e+003,-1.936951e-001
1.105883e+003,1.241898e+000
1.106847e+003,2.509964e+000
1.107812e+003,3.560043e+000
1.108776e+003,4.098846e+000
1.109740e+003,4.182022e+000
1.110704e+003,3.618408e+000
1.111668e+003,1.807709e+000
1.112633e+003,-7.504272e-001
1.113597e+003,-1.994873e+000
1.114561e+003,-1.337585e+000
1.115525e+003,-4.223022e-001
1.116490e+003,-2.619934e-002
1.117454e+003,6.139679e-001
1.118418e+003,2.748596e+000
1.119382e+003,5.611923e+000
1.120347e+003,7.016830e+000
1.121311e+003,5.567337e+000
1.122275e+003,2.795349e+000
1.123239e+003,2.144348e+000
1.124203e+003,3.539398e+000
1.125168e+003,4.103104e+000
1.126132e+003,3.206238e+000
1.127096e+003,2.660812e+000
1.128060e+003,4.251175e+000
1.129025e+003,7.381393e+000
1.129989e+003,9.308243e+000
1.130953e+003,9.507553e+000
1.131917e+003,9.128677e+000
1.132882e+003,7.926605e+000
1.133846e+003,6.953918e+000
1.134810e+003,7.195480e+000
1.135774e+003,8.182251e+000
1.136739e+003,8.510681e+000
1.137703e+003,7.413071e+000
1.138667e+003,6.165710e+000
1.139631e+003,7.332535e+000
1.140595e+003,1.056053e+001
1.141560e+003,1.231520e+001
1.142524e+003,1.190373e+001
1.143488e+003,1.219716e+001
1.144452e+003,1.560286e+001
1.145417e+003,2.125293e+001
1.146381e+003,2.590210e+001
1.147345e+003,2.900035e+001
1.148309e+003,3.225861e+001
1.149274e+003,3.555527e+001
1.150238e+003,3.973180e+001
1.151202e+003,4.631738e+001
1.152166e+003,5.394762e+001
1.153130e+003,6.021671e+001
1.154095e+003,6.392184e+001
1.155059e+003,6.577670e+001
1.156023e+003,6.692531e+001
1.156987e+003,6.725018e+001
1.157952e+003,6.626329e+001
1.158916e+003,6.411382e+001
1.159880e+003,6.093387e+001
1.160844e+003,5.625027e+001
1.161809e+003,5.042612e+001
1.162773e+003,4.430449e+001
1.163737e+003,3.757095e+001
1.164701e+003,3.202519e+001
1.165666e+003,2.887378e+001
1.166630e+003,2.639163e+001
1.167594e+003,2.406798e+001
1.168558e+003,2.196606e+001
1.169522e+003,2.036969e+001
1.170487e+003,1.930403e+001
1.171451e+003,1.844476e+001
1.172415e+003,1.744133e+001
1.173379e+003,1.625740e+001
1.174344e+003,1.473222e+001
1.175308e+003,1.284975e+001
1.176272e+003,1.131747e+001
1.177236e+003,1.075519e+001
1.178201e+003,1.040620e+001
1.179165e+003,9.014847e+000
1.180129e+003,6.498474e+000
1.181093e+003,4.643082e+000
1.182057e+003,3.876175e+000
1.183022e+003,3.889267e+000
1.183986e+003,4.801620e+000
1.184950e+003,6.162888e+000
1.185914e+003,7.887726e+000
1.186879e+003,9.704407e+000
1.187843e+003,1.099672e+001
1.188807e+003,1.123721e+001
1.189771e+003,1.059325e+001
1.190736e+003,9.459702e+000
1.191700e+003,7.708496e+000
1.192664e+003,6.890442e+000
1.193628e+003,7.663742e+000
1.194593e+003,8.808090e+000
1.195557e+003,9.844711e+000
1.196521e+003,1.054785e+001
1.197485e+003,9.868027e+000
1.198449e+003,7.016327e+000
1.199414e+003,4.845474e+000
1.200378e+003,5.586868e+000
1.201342e+003,6.586563e+000
1.202306e+003,5.787277e+000
1.203271e+003,3.925308e+000
1.204235e+003,3.185226e+000
1.205199e+003,4.498978e+000
1.206163e+003,6.119095e+000
1.207128e+003,4.980270e+000
1.208092e+003,8.961182e-001
1.209056e+003,-1.844177e+000
1.210020e+003,-3.298080e+000
1.210984e+003,-3.649734e+000
1.211949e+003,-1.753983e+000
1.212913e+003,4.444733e-001
1.213877e+003,1.418762e-001
1.214841e+003,-2.742065e+000
1.215806e+003,-5.326462e+000
1.216770e+003,-6.502243e+000
1.217734e+003,-7.130127e+000
1.218698e+003,-7.550385e+000
1.219663e+003,-8.088623e+000
1.220627e+003,-9.488464e+000
1.221591e+003,-1.158226e+001
1.222555e+003,-1.302116e+001
1.223520e+003,-1.249428e+001
1.224484e+003,-1.055070e+001
1.225448e+003,-9.981720e+000
1.226412e+003,-1.168141e+001
1.227376e+003,-1.287653e+001
1.228341e+003,-1.353369e+001
1.229305e+003,-1.380038e+001
1.230269e+003,-1.357271e+001
1.231233e+003,-1.306781e+001
1.232198e+003,-1.267812e+001
1.233162e+003,-1.247772e+001
1.234126e+003,-1.221606e+001
1.235090e+003,-1.163551e+001
1.236055e+003,-1.109109e+001
1.237019e+003,-1.108809e+001
1.237983e+003,-1.143037e+001
1.238947e+003,-1.136768e+001
1.239911e+003,-1.056612e+001
1.240876e+003,-9.883591e+000
1.241840e+003,-1.082576e+001
1.242804e+003,-1.355544e+001
1.243768e+003,-1.482880e+001
1.244733e+003,-1.315605e+001
1.245697e+003,-1.191205e+001
1.246661e+003,-1.166656e+001
1.247625e+003,-1.176744e+001
1.248590e+003,-1.163310e+001
1.249554e+003,-1.130716e+001
1.250518e+003,-1.126685e+001
1.251482e+003,-1.178964e+001
1.252447e+003,-1.246208e+001
1.253411e+003,-1.272386e+001
1.254375e+003,-1.269955e+001
1.255339e+003,-1.295793e+001
1.256303e+003,-1.343217e+001
1.257268e+003,-1.292198e+001
1.258232e+003,-1.032693e+001
1.259196e+003,-7.093887e+000
1.260160e+003,-6.347488e+000
1.261125e+003,-8.577881e+000
1.262089e+003,-9.865814e+000
1.263053e+003,-9.178024e+000
1.264017e+003,-8.405090e+000
1.264982e+003,-7.698578e+000
1.265946e+003,-7.266876e+000
1.266910e+003,-7.639084e+000
1.267874e+003,-8.490112e+000
1.268839e+003,-8.468674e+000
1.269803e+003,-6.642227e+000
1.270767e+003,-4.506470e+000
1.271731e+003,-5.282913e+000
1.272695e+003,-8.825958e+000
1.273660e+003,-1.077689e+001
1.274624e+003,-1.066447e+001
1.275588e+003,-1.023540e+001
1.276552e+003,-1.019220e+001
1.277517e+003,-1.041469e+001
1.278481e+003,-1.088210e+001
1.279445e+003,-1.165897e+001
1.280409e+003,-1.200496e+001
1.281374e+003,-1.079358e+001
1.282338e+003,-1.032727e+001
1.283302e+003,-1.322484e+001
1.284266e+003,-1.659592e+001
1.285230e+003,-1.663744e+001
1.286195e+003,-1.334091e+001
1.287159e+003,-9.766479e+000
1.288123e+003,-8.401001e+000
1.289087e+003,-8.750473e+000
1.290052e+003,-9.507462e+000
1.291016e+003,-1.109575e+001
1.291980e+003,-1.166225e+001
1.292944e+003,-1.032733e+001
1.293909e+003,-9.324646e+000
1.294873e+003,-9.758865e+000
1.295837e+003,-1.076900e+001
1.296801e+003,-1.103127e+001
1.297766e+003,-1.044417e+001
1.298730e+003,-1.028067e+001
1.299694e+003,-1.139215e+001
1.300658e+003,-1.294566e+001
1.301622e+003,-1.461250e+001
1.302587e+003,-1.580852e+001
1.303551e+003,-1.511877e+001
1.304515e+003,-1.247368e+001
1.305479e+003,-9.844833e+000
1.306444e+003,-8.821732e+000
1.307408e+003,-9.094894e+000
1.308372e+003,-9.649612e+000
1.309336e+003,-1.073189e+001
1.310301e+003,-1.133740e+001
1.311265e+003,-1.095964e+001
1.312229e+003,-1.060185e+001
1.313193e+003,-1.076329e+001
1.314157e+003,-1.097455e+001
1.315122e+003,-1.040483e+001
1.316086e+003,-9.283707e+000
1.317050e+003,-9.020599e+000
1.318014e+003,-1.059366e+001
1.318979e+003,-1.273648e+001
1.319943e+003,-1.321947e+001
1.320907e+003,-1.213731e+001
1.321871e+003,-1.088336e+001
1.322836e+003,-9.385147e+000
1.323800e+003,-8.472763e+000
1.324764e+003,-9.192352e+000
1.325728e+003,-1.043550e+001
1.326693e+003,-9.997772e+000
1.327657e+003,-7.818451e+000
1.328621e+003,-6.706268e+000
1.329585e+003,-7.875824e+000
1.330549e+003,-9.037888e+000
1.331514e+003,-9.636383e+000
1.332478e+003,-9.509705e+000
1.333442e+003,-7.676956e+000
1.334406e+003,-4.831787e+000
1.335371e+003,-3.312531e+000
1.336335e+003,-4.476517e+000
1.337299e+003,-6.730270e+000
1.338263e+003,-6.967026e+000
1.339228e+003,-4.786896e+000
1.340192e+003,-4.368668e+000
1.341156e+003,-7.482010e+000
1.342120e+003,-9.637390e+000
1.343084e+003,-9.781631e+000
1.344049e+003,-9.241745e+000
1.345013e+003,-8.664307e+000
1.345977e+003,-8.287094e+000
1.346941e+003,-8.772339e+000
1.347906e+003,-1.044655e+001
1.348870e+003,-1.169469e+001
1.349834e+003,-1.067194e+001
1.350798e+003,-8.553116e+000
1.351763e+003,-7.422882e+000
1.352727e+003,-7.216049e+000
1.353691e+003,-7.609055e+000
1.354655e+003,-8.570053e+000
1.355620e+003,-9.759949e+000
1.356584e+003,-1.109535e+001
1.357548e+003,-1.241924e+001
1.358512e+003,-1.228728e+001
1.359476e+003,-9.966537e+000
1.360441e+003,-8.208786e+000
1.361405e+003,-7.978485e+000
1.362369e+003,-8.091629e+000
1.363333e+003,-7.953445e+000
1.364298e+003,-7.799179e+000
1.365262e+003,-8.205887e+000
1.366226e+003,-9.159576e+000
1.367190e+003,-9.908981e+000
1.368155e+003,-9.782120e+000
1.369119e+003,-8.980759e+000
1.370083e+003,-8.048996e+000
1.371047e+003,-6.683990e+000
1.372011e+003,-6.552811e+000
1.372976e+003,-9.398178e+000
1.373940e+003,-1.127409e+001
1.374904e+003,-9.837753e+000
1.375868e+003,-7.167343e+000
1.376833e+003,-5.771332e+000
1.377797e+003,-5.867996e+000
1.378761e+003,-6.784714e+000
1.379725e+003,-8.650452e+000
1.380690e+003,-9.866745e+000
1.381654e+003,-7.688721e+000
1.382618e+003,-4.334717e+000
1.383582e+003,-3.174805e+000
1.384547e+003,-4.093811e+000
1.385511e+003,-4.430573e+000
1.386475e+003,-2.615646e+000
1.387439e+003,-5.517578e-001
1.388403e+003,-1.511002e+000
1.389368e+003,-5.487823e+000
1.390332e+003,-8.420166e+000
1.391296e+003,-1.035885e+001
1.392260e+003,-1.074835e+001
1.393225e+003,-8.193680e+000
1.394189e+003,-5.652832e+000
1.395153e+003,-4.935715e+000
1.396117e+003,-5.289169e+000
1.397082e+003,-5.240616e+000
1.398046e+003,-4.467453e+000
1.399010e+003,-4.019989e+000
1.399974e+003,-4.933548e+000
1.400938e+003,-6.646484e+000
1.401903e+003,-7.102798e+000
1.402867e+003,-5.651062e+000
1.403831e+003,-4.960297e+000
1.404795e+003,-5.797546e+000
1.405760e+003,-6.492889e+000
1.406724e+003,-6.516724e+000
1.407688e+003,-6.295395e+000
1.408652e+003,-6.255646e+000
1.409617e+003,-6.295731e+000
1.410581e+003,-5.930969e+000
1.411545e+003,-4.894165e+000
1.412509e+003,-3.848206e+000
1.413474e+003,-3.600769e+000
1.414438e+003,-3.772522e+000
1.415402e+003,-3.513260e+000
1.416366e+003,-2.849670e+000
1.417330e+003,-2.368439e+000
1.418295e+003,-2.249466e+000
1.419259e+003,-2.556259e+000
1.420223e+003,-3.697647e+000
1.421187e+003,-5.492126e+000
1.422152e+003,-6.547195e+000
1.423116e+003,-6.740433e+000
1.424080e+003,-6.242599e+000
1.425044e+003,-4.052185e+000
1.426009e+003,-2.446869e+000
1.426973e+003,-2.983322e+000
1.427937e+003,-4.277390e+000
1.428901e+003,-4.566177e+000
1.429865e+003,-3.744980e+000
1.430830e+003,-2.938599e+000
1.431794e+003,-2.923264e+000
1.432758e+003,-3.339890e+000
1.433722e+003,-3.387421e+000
1.434687e+003,-2.928864e+000
1.435651e+003,-2.589523e+000
1.436615e+003,-2.863495e+000
1.437579e+003,-2.975525e+000
1.438544e+003,-2.387741e+000
1.439508e+003,-2.036804e+000
1.440472e+003,-2.945724e+000
1.441436e+003,-4.325851e+000
1.442401e+003,-4.688477e+000
1.443365e+003,-3.728348e+000
1.444329e+003,-2.150894e+000
1.445293e+003,-2.176666e-001
1.446257e+003,1.397980e+000
1.447222e+003,9.407959e-001
1.448186e+003,-1.149750e+000
1.449150e+003,-2.356888e+000
1.450114e+003,-2.303696e+000
1.451079e+003,-2.146011e+000
1.452043e+003,-2.494583e+000
1.453007e+003,-2.955017e+000
1.453971e+003,-2.908661e+000
1.454936e+003,-2.481720e+000
1.455900e+003,-2.592468e+000
1.456864e+003,-3.669891e+000
1.457828e+003,-4.316956e+000
1.458792e+003,-3.222122e+000
1.459757e+003,-1.901764e+000
1.460721e+003,-1.603546e+000
1.461685e+003,-2.029968e+000
1.462649e+003,-2.594711e+000
1.463614e+003,-3.049454e+000
1.464578e+003,-3.087646e+000
1.465542e+003,-2.391815e+000
1.466506e+003,-1.266464e+000
1.467471e+003,-4.646759e-001
1.468435e+003,1.329193e-001
1.469399e+003,2.082825e-001
1.470363e+003,-9.533691e-001
1.471328e+003,-1.820679e+000
1.472292e+003,-2.314682e+000
1.473256e+003,-2.306473e+000
1.474220e+003,-1.104095e+000
1.475184e+003,6.136169e-001
1.476149e+003,1.324631e+000
1.477113e+003,6.740570e-001
1.478077e+003,1.296844e-001
1.479041e+003,1.200073e+000
1.480006e+003,3.263794e+000
1.480970e+003,4.097137e+000
1.481934e+003,3.375351e+000
1.482898e+003,2.368286e+000
1.483863e+003,5.892944e-001
1.484827e+003,-7.821350e-001
1.485791e+003,-1.346527e+000
1.486755e+003,-1.336807e+000
1.487719e+003,-9.486389e-001
1.488684e+003,-2.549744e-001
1.489648e+003,7.146454e-001
1.490612e+003,1.987000e+000
1.491576e+003,3.660431e+000
1.492541e+003,5.984726e+000
1.493505e+003,8.406952e+000
1.494469e+003,9.523010e+000
1.495433e+003,9.501068e+000
1.496398e+003,9.833664e+000
1.497362e+003,1.096078e+001
1.498326e+003,1.196297e+001
1.499290e+003,1.193118e+001
1.500255e+003,1.178761e+001
1.501219e+003,1.293951e+001
1.502183e+003,1.515681e+001
1.503147e+003,1.698289e+001
1.504111e+003,1.799025e+001
1.505076e+003,1.911577e+001
1.506040e+003,2.039461e+001
1.507004e+003,2.267982e+001
1.507968e+003,2.775368e+001
1.508933e+003,3.406294e+001
1.509897e+003,3.792079e+001
1.510861e+003,3.892903e+001
1.511825e+003,4.081496e+001
1.512790e+003,4.632687e+001
1.513754e+003,5.376968e+001
1.514718e+003,6.023701e+001
1.515682e+003,6.565642e+001
1.516646e+003,7.021387e+001
1.517611e+003,7.339474e+001
1.518575e+003,7.717880e+001
1.519539e+003,8.384491e+001
1.520503e+003,8.968260e+001
1.521468e+003,9.279370e+001
1.522432e+003,9.375140e+001
1.523396e+003,9.314688e+001
1.524360e+003,9.140900e+001
1.525325e+003,8.930441e+001
1.526289e+003,8.736790e+001
1.527253e+003,8.509369e+001
1.528217e+003,8.149985e+001
1.529182e+003,7.663692e+001
1.530146e+003,7.126912e+001
1.531110e+003,6.497798e+001
1.532074e+003,5.879947e+001
1.533039e+003,5.247342e+001
1.534003e+003,4.635503e+001
1.534967e+003,4.108029e+001
1.535931e+003,3.605174e+001
1.536896e+003,3.008540e+001
1.537860e+003,2.364655e+001
1.538824e+003,1.843633e+001
1.539788e+003,1.528668e+001
1.540752e+003,1.352245e+001
1.541717e+003,1.239575e+001
1.542681e+003,1.180046e+001
1.543645e+003,1.080161e+001
1.544609e+003,9.170547e+000
1.545573e+003,7.925064e+000
1.546538e+003,6.794647e+000
1.547502e+003,6.185745e+000
1.548466e+003,6.882370e+000
1.549430e+003,7.831070e+000
1.550395e+003,7.440536e+000
1.551359e+003,6.294510e+000
1.552323e+003,6.819901e+000
1.553287e+003,9.710114e+000
1.554252e+003,1.216235e+001
1.555216e+003,1.163385e+001
1.556180e+003,9.202545e+000
1.557144e+003,7.121811e+000
1.558109e+003,5.450851e+000
1.559073e+003,4.743118e+000
1.560037e+003,5.551880e+000
1.561001e+003,5.949860e+000
1.561966e+003,4.986954e+000
1.562930e+003,3.836990e+000
1.563894e+003,3.409012e+000
1.564858e+003,3.611282e+000
1.565823e+003,4.306885e+000
1.566787e+003,5.403824e+000
1.567751e+003,6.257248e+000
1.568715e+003,6.507843e+000
1.569679e+003,6.449570e+000
1.570644e+003,6.401123e+000
1.571608e+003,6.256516e+000
1.572572e+003,5.831909e+000
1.573536e+003,5.163574e+000
1.574500e+003,4.455635e+000
1.575465e+003,3.461098e+000
1.576429e+003,2.887260e+000
1.577393e+003,3.872299e+000
1.578357e+003,5.398773e+000
1.579322e+003,5.050018e+000
1.580286e+003,2.922211e+000
1.581250e+003,2.304909e+000
1.582214e+003,4.655495e+000
1.583179e+003,6.943794e+000
1.584143e+003,6.682411e+000
1.585107e+003,5.299911e+000
1.586071e+003,4.487549e+000
1.587036e+003,4.378983e+000
1.588000e+003,5.327568e+000
1.588964e+003,7.426109e+000
1.589928e+003,9.549858e+000
1.590893e+003,1.142692e+001
1.591857e+003,1.247839e+001
1.592821e+003,1.110219e+001
1.593785e+003,7.915009e+000
1.594750e+003,6.543549e+000
1.595714e+003,7.586113e+000
1.596678e+003,9.289009e+000
1.597642e+003,1.177872e+001
1.598606e+003,1.349987e+001
1.599571e+003,1.249954e+001
1.600535e+003,1.053169e+001
1.601499e+003,9.882858e+000
1.602463e+003,1.050580e+001
1.603427e+003,1.108648e+001
1.604392e+003,1.107906e+001
1.605356e+003,1.104295e+001
1.606320e+003,1.161687e+001
1.607284e+003,1.258379e+001
1.608249e+003,1.341200e+001
1.609213e+003,1.410768e+001
1.610177e+003,1.428371e+001
1.611141e+003,1.363207e+001
1.612106e+003,1.307548e+001
1.613070e+003,1.329458e+001
1.614034e+003,1.353662e+001
1.614998e+003,1.303584e+001
1.615963e+003,1.227794e+001
1.616927e+003,1.213341e+001
1.617891e+003,1.268026e+001
1.618855e+003,1.342406e+001
1.619820e+003,1.411941e+001
1.620784e+003,1.442653e+001
1.621748e+003,1.355089e+001
1.622712e+003,1.193956e+001
1.623677e+003,1.218637e+001
1.624641e+003,1.483315e+001
1.625605e+003,1.621355e+001
1.626569e+003,1.456487e+001
1.627533e+003,1.283611e+001
1.628498e+003,1.246970e+001
1.629462e+003,1.277145e+001
1.630426e+003,1.333270e+001
1.631390e+003,1.401109e+001
1.632354e+003,1.472416e+001
1.633319e+003,1.541102e+001
1.634283e+003,1.583210e+001
1.635247e+003,1.576538e+001
1.636211e+003,1.543051e+001
1.637176e+003,1.526137e+001
1.638140e+003,1.527287e+001
1.639104e+003,1.511529e+001
1.640068e+003,1.454162e+001
1.641033e+003,1.463506e+001
1.641997e+003,1.652187e+001
1.642961e+003,1.796629e+001
1.643925e+003,1.774150e+001
1.644890e+003,1.668993e+001
1.645854e+003,1.509464e+001
1.646818e+003,1.346893e+001
1.647782e+003,1.295708e+001
1.648747e+003,1.383454e+001
1.649711e+003,1.497418e+001
1.650675e+003,1.554620e+001
1.651639e+003,1.570238e+001
1.652604e+003,1.561659e+001
1.653568e+003,1.525829e+001
1.654532e+003,1.474961e+001
1.655496e+003,1.396253e+001
1.656460e+003,1.355111e+001
1.657425e+003,1.438484e+001
1.658389e+003,1.475519e+001
1.659353e+003,1.303455e+001
1.660317e+003,1.093582e+001
1.661281e+003,1.033407e+001
1.662246e+003,1.099194e+001
1.663210e+003,1.193349e+001
1.664174e+003,1.280672e+001
1.665138e+003,1.299696e+001
1.666103e+003,1.162253e+001
1.667067e+003,9.740036e+000
1.668031e+003,9.913445e+000
1.668995e+003,1.194456e+001
1.669960e+003,1.240116e+001
1.670924e+003,1.050169e+001
1.671888e+003,9.468872e+000
1.672852e+003,1.100262e+001
1.673817e+003,1.253072e+001
1.674781e+003,1.215248e+001
1.675745e+003,1.111047e+001
1.676709e+003,1.083265e+001
1.677674e+003,1.111262e+001
1.678638e+003,1.092937e+001
1.679602e+003,9.973083e+000
1.680566e+003,8.781876e+000
1.681531e+003,7.716888e+000
1.682495e+003,6.818748e+000
1.683459e+003,5.846092e+000
1.684423e+003,4.931000e+000
1.685387e+003,5.502983e+000
1.686352e+003,8.005661e+000
1.687316e+003,9.515793e+000
1.688280e+003,8.755341e+000
1.689244e+003,7.448990e+000
1.690208e+003,6.628365e+000
1.691173e+003,6.061546e+000
1.692137e+003,5.486832e+000
1.693101e+003,5.023682e+000
1.694065e+003,5.058685e+000
1.695030e+003,5.660538e+000
1.695994e+003,5.981003e+000
1.696958e+003,5.286301e+000
1.697922e+003,4.371391e+000
1.698887e+003,4.223793e+000
1.699851e+003,4.681557e+000
1.700815e+003,5.462288e+000
1.701779e+003,6.471016e+000
1.702744e+003,6.325523e+000
1.703708e+003,4.312660e+000
1.704672e+003,2.473541e+000
1.705636e+003,2.214241e+000
1.706601e+003,2.866570e+000
1.707565e+003,3.936142e+000
1.708529e+003,5.172234e+000
1.709493e+003,5.438820e+000
1.710458e+003,4.467751e+000
1.711422e+003,3.764244e+000
1.712386e+003,4.340263e+000
1.713350e+003,5.018448e+000
1.714314e+003,4.584862e+000
1.715279e+003,3.682388e+000
1.716243e+003,3.432564e+000
1.717207e+003,3.836761e+000
1.718171e+003,4.410530e+000
1.719135e+003,5.030289e+000
1.720100e+003,5.766861e+000
1.721064e+003,6.873528e+000
1.722028e+003,7.357971e+000
1.722992e+003,5.310776e+000
1.723957e+003,1.498810e+000
1.724921e+003,1.414795e-001
1.725885e+003,1.504532e+000
1.726849e+003,2.646408e+000
1.727814e+003,3.338524e+000
1.728778e+003,3.653091e+000
1.729742e+003,3.454109e+000
1.730706e+003,2.998940e+000
1.731671e+003,2.379631e+000
1.732635e+003,1.647629e+000
1.733599e+003,1.038582e+000
1.734563e+003,5.968246e-001
1.735528e+003,-8.811951e-003
1.736492e+003,-9.822617e-001
1.737456e+003,-1.978065e+000
1.738420e+003,-2.623962e+000
1.739385e+003,-2.923683e+000
1.740349e+003,-2.722366e+000
1.741313e+003,-1.969589e+000
1.742277e+003,-7.443161e-001
1.743241e+003,1.860207e+000
1.744206e+003,3.588448e+000
1.745170e+003,3.971840e+000
1.746134e+003,3.562935e+000
1.747098e+003,1.807175e+000
1.748063e+003,5.414581e-002
1.749027e+003,1.286392e-001
1.749991e+003,1.533699e+000
1.750955e+003,2.459785e+000
1.751919e+003,2.292313e+000
1.752884e+003,1.845131e+000
1.753848e+003,1.793114e+000
1.754812e+003,1.859787e+000
1.755776e+003,1.527878e+000
1.756741e+003,8.578491e-001
1.757705e+003,1.425247e-001
1.758669e+003,-7.080002e-001
1.759633e+003,-1.485039e+000
1.760598e+003,-2.564720e+000
1.761562e+003,-3.048920e+000
1.762526e+003,-1.952927e+000
1.763490e+003,-8.178177e-001
1.764455e+003,-8.507385e-001
1.765419e+003,-1.495453e+000
1.766383e+003,-1.935074e+000
1.767347e+003,-2.013474e+000
1.768312e+003,-1.752533e+000
1.769276e+003,-1.168732e+000
1.770240e+003,-6.334686e-001
1.771204e+003,-4.760666e-001
1.772168e+003,-5.251160e-001
1.773133e+003,-4.692459e-001
1.774097e+003,-3.430328e-001
1.775061e+003,-6.208420e-001
1.776025e+003,-1.542114e+000
1.776990e+003,-1.768875e+000
1.777954e+003,-4.554520e-001
1.778918e+003,9.490662e-001
1.779882e+003,1.385864e+000
1.780846e+003,1.230133e+000
1.781811e+003,8.099823e-001
1.782775e+003,3.310013e-001
1.783739e+003,6.163101e-001
1.784703e+003,1.916397e+000
1.785668e+003,2.599312e+000
1.786632e+003,1.488075e+000
1.787596e+003,9.674835e-002
1.788560e+003,-1.827698e-001
1.789525e+003,-1.287155e-001
1.790489e+003,-1.584930e+000
1.791453e+003,-3.702736e+000
1.792417e+003,-3.043159e+000
1.793382e+003,7.535858e-001
1.794346e+003,3.659752e+000
1.795310e+003,3.514488e+000
1.796274e+003,1.947449e+000
1.797239e+003,6.647110e-001
1.798203e+003,-1.499634e-001
1.799167e+003,-4.824066e-002
1.800131e+003,1.032684e+000
1.801095e+003,1.816780e+000
1.802060e+003,2.933708e+000
1.803024e+003,3.004005e+000
1.803988e+003,6.206436e-001
1.804952e+003,-1.345482e+000
1.805917e+003,-1.157112e+000
1.806881e+003,-2.264481e-001
1.807845e+003,1.388168e-001
1.808809e+003,4.043579e-003
1.809773e+003,-2.830048e-001
1.810738e+003,-4.923859e-001
1.811702e+003,-2.208710e-001
1.812666e+003,7.672958e-001
1.813630e+003,2.132072e+000
1.814595e+003,3.588058e+000
1.815559e+003,4.800491e+000
1.816523e+003,4.095367e+000
1.817487e+003,1.213394e+000
1.818452e+003,-3.558426e-001
1.819416e+003,9.307861e-002
1.820380e+003,4.189377e-001
1.821344e+003,-1.478729e-001
1.822309e+003,-8.126984e-001
1.823273e+003,-1.256325e+000
1.824237e+003,-1.377022e+000
1.825201e+003,-9.187546e-001
1.826166e+003,-1.234283e-001
1.827130e+003,4.468384e-001
1.828094e+003,6.726990e-001
1.829058e+003,6.862488e-001
1.830022e+003,5.009308e-001
1.830987e+003,3.164825e-001
1.831951e+003,6.372070e-001
1.832915e+003,8.173599e-001
1.833879e+003,-9.739685e-001
1.834844e+003,-3.603432e+000
1.835808e+003,-2.798859e+000
1.836772e+003,1.572945e+000
1.837736e+003,3.956375e+000
1.838700e+003,1.824745e+000
1.839665e+003,-6.062469e-001
1.840629e+003,7.354507e-001
1.841593e+003,3.748123e+000
1.842557e+003,3.814079e+000
1.843522e+003,9.809723e-001
1.844486e+003,-8.310013e-001
1.845450e+003,-1.532623e+000
1.846414e+003,-1.159142e+000
1.847379e+003,1.702255e+000
1.848343e+003,3.496857e+000
1.849307e+003,2.247864e+000
1.850271e+003,6.316223e-001
1.851236e+003,9.342957e-001
1.852200e+003,1.935966e+000
1.853164e+003,1.270233e+000
1.854128e+003,-6.551132e-001
1.855093e+003,-1.259232e+000
1.856057e+003,3.488159e-001
1.857021e+003,2.298302e+000
1.857985e+003,3.043510e+000
1.858949e+003,3.002647e+000
1.859914e+003,2.794228e+000
1.860878e+003,2.463158e+000
1.861842e+003,2.162872e+000
1.862806e+003,1.875908e+000
1.863771e+003,1.660332e+000
1.864735e+003,1.531029e+000
1.865699e+003,1.273064e+000
1.866663e+003,5.522461e-001
1.867627e+003,2.531128e-001
1.868592e+003,1.585274e+000
1.869556e+003,3.483238e+000
1.870520e+003,3.950592e+000
1.871484e+003,3.179085e+000
1.872449e+003,2.390083e+000
1.873413e+003,1.681702e+000
1.874377e+003,1.628906e+000
1.875341e+003,2.973160e+000
1.876306e+003,3.999763e+000
1.877270e+003,3.157578e+000
1.878234e+003,2.108948e+000
1.879198e+003,3.076775e+000
1.880163e+003,4.893318e+000
1.881127e+003,4.960648e+000
1.882091e+003,3.378525e+000
1.883055e+003,2.388802e+000
1.884020e+003,2.879295e+000
1.884984e+003,3.565849e+000
1.885948e+003,3.266624e+000
1.886912e+003,2.631706e+000
1.887876e+003,3.035179e+000
1.888841e+003,4.373383e+000
1.889805e+003,5.282784e+000
1.890769e+003,5.724083e+000
1.891733e+003,5.966972e+000
1.892698e+003,6.086853e+000
1.893662e+003,5.749977e+000
1.894626e+003,4.411674e+000
1.895590e+003,3.195381e+000
1.896554e+003,3.120552e+000
1.897519e+003,3.469650e+000
1.898483e+003,3.230942e+000
1.899447e+003,2.584793e+000
1.900411e+003,2.484985e+000
1.901376e+003,3.139160e+000
1.902340e+003,3.715324e+000
1.903304e+003,3.958771e+000
1.904268e+003,3.939468e+000
1.905233e+003,3.497925e+000
1.906197e+003,3.046272e+000
1.907161e+003,2.945702e+000
1.908125e+003,3.202881e+000
1.909090e+003,3.924042e+000
1.910054e+003,4.889641e+000
1.911018e+003,5.461235e+000
1.911982e+003,5.487389e+000
1.912947e+003,5.450668e+000
1.913911e+003,5.691132e+000
1.914875e+003,5.983597e+000
1.915839e+003,5.910500e+000
1.916803e+003,5.603600e+000
1.917768e+003,6.138977e+000
1.918732e+003,7.869537e+000
1.919696e+003,8.288795e+000
1.920660e+003,6.857346e+000
1.921625e+003,5.613510e+000
1.922589e+003,4.655869e+000
1.923553e+003,4.426826e+000
1.924517e+003,6.032677e+000
1.925481e+003,7.716682e+000
1.926446e+003,7.831306e+000
1.927410e+003,6.953056e+000
1.928374e+003,6.160530e+000
1.929338e+003,5.519058e+000
1.930303e+003,4.798645e+000
1.931267e+003,3.794456e+000
1.932231e+003,3.441307e+000
1.933195e+003,4.475876e+000
1.934160e+003,5.813820e+000
1.935124e+003,6.763412e+000
1.936088e+003,7.460526e+000
1.937052e+003,8.520058e+000
1.938017e+003,9.425171e+000
1.938981e+003,8.675476e+000
1.939945e+003,6.398743e+000
1.940909e+003,3.986122e+000
1.941874e+003,2.247437e+000
1.942838e+003,2.417488e+000
1.943802e+003,5.884758e+000
1.944766e+003,1.021997e+001
1.945730e+003,1.008258e+001
1.946695e+003,6.130760e+000
1.947659e+003,4.039345e+000
1.948623e+003,3.868675e+000
1.949587e+003,4.988014e+000
1.950552e+003,8.019562e+000
1.951516e+003,9.528450e+000
1.952480e+003,7.674118e+000
1.953444e+003,5.505333e+000
1.954408e+003,4.737381e+000
1.955373e+003,5.155190e+000
1.956337e+003,7.232323e+000
1.957301e+003,1.032101e+001
1.958265e+003,1.199619e+001
1.959230e+003,1.214713e+001
1.960194e+003,1.137856e+001
1.961158e+003,8.029701e+000
1.962122e+003,6.251335e+000
1.963087e+003,8.732086e+000
1.964051e+003,1.111148e+001
1.965015e+003,1.044219e+001
1.965979e+003,8.962418e+000
1.966944e+003,8.991234e+000
1.967908e+003,9.978668e+000
1.968872e+003,1.062082e+001
1.969836e+003,1.066128e+001
1.970801e+003,1.039182e+001
1.971765e+003,9.963081e+000
1.972729e+003,9.444534e+000
1.973693e+003,8.799370e+000
1.974657e+003,8.354591e+000
1.975622e+003,8.784355e+000
1.976586e+003,9.698166e+000
1.977550e+003,1.000497e+001
1.978514e+003,9.844345e+000
1.979479e+003,1.017245e+001
1.980443e+003,1.106537e+001
1.981407e+003,1.147890e+001
1.982371e+003,1.103011e+001
1.983335e+003,1.034085e+001
1.984300e+003,9.806572e+000
1.985264e+003,9.436966e+000
1.986228e+003,9.298813e+000
1.987192e+003,9.368965e+000
1.988157e+003,9.565727e+000
1.989121e+003,1.001791e+001
1.990085e+003,1.000240e+001
1.991049e+003,9.044922e+000
1.992014e+003,8.640923e+000
1.992978e+003,9.136986e+000
1.993942e+003,9.925346e+000
1.994906e+003,1.121131e+001
1.995871e+003,1.229636e+001
1.996835e+003,1.246388e+001
1.997799e+003,1.225959e+001
1.998763e+003,1.263491e+001
1.999728e+003,1.338058e+001
