5.003444e+002,2.212462e+002
5.013087e+002,2.159688e+002
5.022729e+002,2.138008e+002
5.032371e+002,2.144102e+002
5.042014e+002,2.136404e+002
5.051656e+002,2.118126e+002
5.061298e+002,2.094113e+002
5.070941e+002,2.065298e+002
5.080583e+002,2.023690e+002
5.090225e+002,2.005142e+002
5.099868e+002,2.031158e+002
5.109510e+002,2.050056e+002
5.119152e+002,2.029081e+002
5.128795e+002,1.964468e+002
5.138437e+002,1.912773e+002
5.148079e+002,1.905861e+002
5.157722e+002,1.907283e+002
5.167364e+002,1.903185e+002
5.177006e+002,1.888330e+002
5.186649e+002,1.864669e+002
5.196291e+002,1.834630e+002
5.205933e+002,1.810739e+002
5.215576e+002,1.801590e+002
5.225218e+002,1.801057e+002
5.234860e+002,1.795606e+002
5.244503e+002,1.767190e+002
5.254145e+002,1.715447e+002
5.263787e+002,1.673549e+002
5.273430e+002,1.640850e+002
5.283072e+002,1.618085e+002
5.292714e+002,1.607229e+002
5.302357e+002,1.611736e+002
5.311999e+002,1.598438e+002
5.321641e+002,1.566337e+002
5.331284e+002,1.531410e+002
5.340926e+002,1.503831e+002
5.350568e+002,1.484606e+002
5.360211e+002,1.457735e+002
5.369853e+002,1.407280e+002
5.379495e+002,1.356467e+002
5.389138e+002,1.324918e+002
5.398780e+002,1.317623e+002
5.408422e+002,1.322373e+002
5.418065e+002,1.308000e+002
5.427707e+002,1.277004e+002
5.437349e+002,1.242095e+002
5.446992e+002,1.200894e+002
5.456634e+002,1.159539e+002
5.466276e+002,1.142446e+002
5.475919e+002,1.192834e+002
5.485561e+002,1.219107e+002
5.495203e+002,1.201918e+002
5.504846e+002,1.159166e+002
5.514488e+002,1.117971e+002
5.524130e+002,1.089701e+002
5.533773e+002,1.069037e+002
5.543415e+002,1.053947e+002
5.553057e+002,1.042254e+002
5.562700e+002,1.030906e+002
5.572342e+002,1.017180e+002
5.581984e+002,1.000939e+002
5.591627e+002,9.866193e+001
5.601269e+002,9.768420e+001
5.610911e+002,9.708026e+001
5.620554e+002,9.669165e+001
5.630196e+002,9.615002e+001
5.639838e+002,9.415479e+001
5.649481e+002,9.020764e+001
5.659123e+002,8.565472e+001
5.668765e+002,8.027197e+001
5.678408e+002,7.518549e+001
5.688050e+002,7.278833e+001
5.697692e+002,7.470453e+001
5.707335e+002,7.629138e+001
5.716977e+002,7.677594e+001
5.726619e+002,7.636487e+001
5.736262e+002,7.545740e+001
5.745904e+002,7.438696e+001
5.755546e+002,7.312646e+001
5.765189e+002,7.045313e+001
5.774831e+002,6.686530e+001
5.784473e+002,6.413873e+001
5.794116e+002,6.373395e+001
5.803758e+002,6.578040e+001
5.813400e+002,6.698578e+001
5.823043e+002,6.682520e+001
5.832685e+002,6.532562e+001
5.842327e+002,6.216931e+001
5.851970e+002,5.814545e+001
5.861612e+002,5.592969e+001
5.871254e+002,5.633826e+001
5.880897e+002,5.744836e+001
5.890539e+002,6.006921e+001
5.900181e+002,6.260181e+001
5.909824e+002,6.245148e+001
5.919466e+002,5.720764e+001
5.929108e+002,5.111591e+001
5.938751e+002,4.872211e+001
5.948393e+002,4.861908e+001
5.958035e+002,4.894971e+001
5.967678e+002,4.840649e+001
5.977320e+002,4.729065e+001
5.986962e+002,4.576636e+001
5.996605e+002,4.308636e+001
6.006247e+002,4.078271e+001
6.015889e+002,3.912695e+001
6.025532e+002,3.829572e+001
6.035174e+002,3.969800e+001
6.044816e+002,4.803186e+001
6.054459e+002,5.370630e+001
6.064101e+002,5.449365e+001
6.073743e+002,5.173877e+001
6.083386e+002,4.787494e+001
6.093028e+002,4.351654e+001
6.102670e+002,3.994080e+001
6.112313e+002,3.737970e+001
6.121955e+002,3.598730e+001
6.131597e+002,3.640985e+001
6.141240e+002,3.899805e+001
6.150882e+002,4.271930e+001
6.160524e+002,4.296338e+001
6.170167e+002,4.064258e+001
6.179809e+002,3.895422e+001
6.189451e+002,3.936194e+001
6.199094e+002,4.117981e+001
6.208736e+002,4.121240e+001
6.218378e+002,3.740936e+001
6.228021e+002,3.534192e+001
6.237663e+002,3.700330e+001
6.247305e+002,4.049597e+001
6.256948e+002,4.247211e+001
6.266590e+002,4.083282e+001
6.276232e+002,3.786469e+001
6.285875e+002,3.486261e+001
6.295517e+002,3.256116e+001
6.305159e+002,3.186060e+001
6.314802e+002,3.299054e+001
6.324444e+002,3.470740e+001
6.334086e+002,3.413306e+001
6.343729e+002,3.234991e+001
6.353371e+002,3.080865e+001
6.363013e+002,2.997040e+001
6.372656e+002,2.930756e+001
6.382298e+002,2.736621e+001
6.391940e+002,2.216986e+001
6.401583e+002,1.784070e+001
6.411225e+002,1.570795e+001
6.420867e+002,1.495154e+001
6.430510e+002,1.406628e+001
6.440152e+002,1.195496e+001
6.449794e+002,1.022687e+001
6.459437e+002,9.929260e+000
6.469079e+002,1.014935e+001
6.478721e+002,1.083594e+001
6.488364e+002,1.182367e+001
6.498006e+002,1.233539e+001
6.507648e+002,9.637878e+000
6.517291e+002,5.128113e+000
6.526933e+002,3.079651e+000
6.536575e+002,4.377136e+000
6.546218e+002,7.113525e+000
6.555860e+002,7.605713e+000
6.565502e+002,4.246704e+000
6.575145e+002,1.714233e+000
6.584787e+002,-1.468506e-001
6.594429e+002,-1.126099e+000
6.604072e+002,-5.541382e-001
6.613714e+002,1.913147e+000
6.623356e+002,3.590393e+000
6.632999e+002,1.962341e+000
6.642641e+002,-3.986206e-001
6.652283e+002,-2.421509e+000
6.661926e+002,-3.364990e+000
6.671568e+002,-2.595825e+000
6.681210e+002,8.662109e-001
6.690853e+002,5.822632e+000
6.700495e+002,9.827332e+000
6.710137e+002,1.282336e+001
6.719780e+002,1.476660e+001
6.729422e+002,1.552258e+001
6.739064e+002,1.476813e+001
6.748707e+002,1.331097e+001
6.758349e+002,1.046735e+001
6.767991e+002,7.705627e+000
6.777634e+002,6.187744e+000
6.787276e+002,6.109070e+000
6.796918e+002,6.312500e+000
6.806561e+002,5.595276e+000
6.816203e+002,4.951599e+000
6.825845e+002,4.709229e+000
6.835488e+002,4.860229e+000
6.845130e+002,5.525269e+000
6.854772e+002,6.977417e+000
6.864415e+002,8.951904e+000
6.874057e+002,1.014954e+001
6.883699e+002,1.017108e+001
6.893342e+002,9.039856e+000
6.902984e+002,6.824097e+000
6.912626e+002,3.931824e+000
6.922269e+002,2.028992e+000
6.931911e+002,2.556946e+000
6.941553e+002,3.690308e+000
6.951196e+002,4.585571e+000
6.960838e+002,5.323669e+000
6.970480e+002,6.777832e+000
6.980123e+002,1.025079e+001
6.989765e+002,1.215729e+001
6.999407e+002,9.973938e+000
7.009050e+002,6.623779e+000
7.018692e+002,4.087524e+000
7.028334e+002,3.118286e+000
7.037977e+002,3.252014e+000
7.047619e+002,4.617310e+000
7.057261e+002,7.002197e+000
7.066904e+002,9.331909e+000
7.076546e+002,1.138538e+001
7.086188e+002,1.288739e+001
7.095831e+002,1.334644e+001
7.105473e+002,1.221088e+001
7.115115e+002,1.062885e+001
7.124758e+002,7.576538e+000
7.134400e+002,4.815125e+000
7.144042e+002,4.154297e+000
7.153685e+002,5.741333e+000
7.163327e+002,6.541138e+000
7.172969e+002,4.988953e+000
7.182612e+002,2.503723e+000
7.192254e+002,-1.963867e+000
7.201896e+002,-7.118103e+000
7.211539e+002,-1.041406e+001
7.221181e+002,-9.451538e+000
7.230823e+002,-5.913635e+000
7.240466e+002,-4.870178e+000
7.250108e+002,-5.259949e+000
7.259750e+002,-4.404358e+000
7.269393e+002,-9.965210e-001
7.279035e+002,4.001648e+000
7.288677e+002,7.068909e+000
7.298320e+002,9.659729e+000
7.307962e+002,1.036407e+001
7.317604e+002,7.443054e+000
7.327247e+002,3.341431e+000
7.336889e+002,9.618530e-001
7.346531e+002,4.265747e-001
7.356174e+002,4.348755e-001
7.365816e+002,2.436096e+000
7.375458e+002,4.855835e+000
7.385101e+002,6.091919e+000
7.394743e+002,5.926758e+000
7.404385e+002,5.733765e+000
7.414028e+002,7.785339e+000
7.423670e+002,1.023920e+001
7.433312e+002,9.702942e+000
7.442955e+002,6.556152e+000
7.452597e+002,2.897034e+000
7.462239e+002,1.472778e-001
7.471882e+002,-2.594116e+000
7.481524e+002,-1.015320e+000
7.491166e+002,8.958984e+000
7.500809e+002,1.634540e+001
7.510451e+002,1.564703e+001
7.520093e+002,8.673340e+000
7.529736e+002,2.652832e+000
7.539378e+002,1.909607e+000
7.549020e+002,2.890137e+000
7.558663e+002,3.038391e+000
7.568306e+002,3.033264e+000
7.577948e+002,4.045654e+000
7.587590e+002,6.512146e+000
7.597233e+002,9.215698e+000
7.606875e+002,9.495300e+000
7.616517e+002,7.992554e+000
7.626160e+002,5.537292e+000
7.635802e+002,1.739502e+000
7.645444e+002,-2.084167e+000
7.655087e+002,-3.204041e+000
7.664729e+002,-6.898804e-001
7.674371e+002,2.460754e+000
7.684014e+002,7.036743e+000
7.693656e+002,1.105792e+001
7.703298e+002,1.276477e+001
7.712941e+002,1.231561e+001
7.722583e+002,1.256622e+001
7.732225e+002,1.703668e+001
7.741868e+002,2.153455e+001
7.751510e+002,2.215491e+001
7.761152e+002,1.995746e+001
7.770795e+002,1.786407e+001
7.780437e+002,1.838422e+001
7.790079e+002,2.101532e+001
7.799722e+002,2.287628e+001
7.809364e+002,2.405511e+001
7.819006e+002,2.458527e+001
7.828649e+002,2.477081e+001
7.838291e+002,2.486365e+001
7.847933e+002,2.479291e+001
7.857576e+002,2.375360e+001
7.867218e+002,2.223779e+001
7.876860e+002,2.019940e+001
7.886503e+002,1.887494e+001
7.896145e+002,1.952356e+001
7.905787e+002,2.234174e+001
7.915430e+002,2.578674e+001
7.925072e+002,2.832013e+001
7.934714e+002,2.947729e+001
7.944357e+002,2.912109e+001
7.953999e+002,2.773712e+001
7.963641e+002,2.597455e+001
7.973284e+002,2.427655e+001
7.982926e+002,2.259186e+001
7.992568e+002,2.259100e+001
8.002211e+002,2.338208e+001
8.011853e+002,2.432568e+001
8.021495e+002,2.781549e+001
8.031138e+002,3.301141e+001
8.040780e+002,3.396271e+001
8.050422e+002,2.480573e+001
8.060065e+002,1.760034e+001
8.069707e+002,1.676495e+001
8.079349e+002,1.849316e+001
8.088992e+002,1.949902e+001
8.098634e+002,1.872870e+001
8.108276e+002,1.752783e+001
8.117919e+002,1.673083e+001
8.127561e+002,1.607434e+001
8.137203e+002,1.754065e+001
8.146846e+002,2.180713e+001
8.156488e+002,2.624390e+001
8.166130e+002,2.698743e+001
8.175773e+002,2.285205e+001
8.185415e+002,2.129584e+001
8.195057e+002,2.403528e+001
8.204700e+002,2.574536e+001
8.214342e+002,2.365582e+001
8.223984e+002,1.922156e+001
8.233627e+002,1.651581e+001
8.243269e+002,1.766333e+001
8.252911e+002,1.976587e+001
8.262554e+002,2.077069e+001
8.272196e+002,2.161456e+001
8.281838e+002,2.358997e+001
8.291481e+002,2.690576e+001
8.301123e+002,3.027411e+001
8.310765e+002,3.147827e+001
8.320408e+002,3.026776e+001
8.330050e+002,2.749933e+001
8.339692e+002,2.268665e+001
8.349335e+002,1.839227e+001
8.358977e+002,1.825134e+001
8.368619e+002,2.352002e+001
8.378262e+002,2.580072e+001
8.387904e+002,2.051489e+001
8.397546e+002,1.637823e+001
8.407189e+002,1.575879e+001
8.416831e+002,1.779047e+001
8.426473e+002,2.100043e+001
8.436116e+002,2.519147e+001
8.445758e+002,2.886938e+001
8.455400e+002,2.861670e+001
8.465043e+002,2.678809e+001
8.474685e+002,2.737433e+001
8.484327e+002,3.150183e+001
8.493970e+002,3.658710e+001
8.503612e+002,3.751654e+001
8.513254e+002,3.304388e+001
8.522897e+002,3.145563e+001
8.532539e+002,3.407629e+001
8.542181e+002,3.676819e+001
8.551824e+002,3.685437e+001
8.561466e+002,3.539136e+001
8.571108e+002,3.711047e+001
8.580751e+002,4.435626e+001
8.590393e+002,5.054926e+001
8.600035e+002,5.450140e+001
8.609678e+002,5.681744e+001
8.619320e+002,5.754559e+001
8.628962e+002,5.685870e+001
8.638605e+002,5.628894e+001
8.648247e+002,5.870551e+001
8.657889e+002,6.283783e+001
8.667532e+002,6.658771e+001
8.677174e+002,6.966034e+001
8.686816e+002,7.143860e+001
8.696459e+002,7.087817e+001
8.706101e+002,6.752661e+001
8.715743e+002,6.760126e+001
8.725386e+002,7.325360e+001
8.735028e+002,7.930762e+001
8.744670e+002,8.479034e+001
8.754313e+002,8.899908e+001
8.763955e+002,9.073328e+001
8.773597e+002,8.880780e+001
8.783240e+002,8.828925e+001
8.792882e+002,9.417657e+001
8.802524e+002,1.016094e+002
8.812167e+002,1.067750e+002
8.821809e+002,1.087605e+002
8.831451e+002,1.086550e+002
8.841094e+002,1.077855e+002
8.850736e+002,1.066830e+002
8.860378e+002,1.075563e+002
8.870021e+002,1.101400e+002
8.879663e+002,1.138500e+002
8.889305e+002,1.192935e+002
8.898948e+002,1.255888e+002
8.908590e+002,1.288135e+002
8.918232e+002,1.271436e+002
8.927875e+002,1.257289e+002
8.937517e+002,1.249035e+002
8.947159e+002,1.253032e+002
8.956802e+002,1.277177e+002
8.966444e+002,1.316623e+002
8.976086e+002,1.350262e+002
8.985729e+002,1.361119e+002
8.995371e+002,1.359809e+002
9.005013e+002,1.355765e+002
9.014656e+002,1.353452e+002
9.024298e+002,1.360489e+002
9.033940e+002,1.380208e+002
9.043583e+002,1.406448e+002
9.053225e+002,1.424118e+002
9.062867e+002,1.418854e+002
9.072510e+002,1.415304e+002
9.082152e+002,1.423843e+002
9.091794e+002,1.439869e+002
9.101437e+002,1.459833e+002
9.111079e+002,1.482733e+002
9.120721e+002,1.498724e+002
9.130364e+002,1.486441e+002
9.140006e+002,1.468867e+002
9.149648e+002,1.466091e+002
9.159291e+002,1.475938e+002
9.168933e+002,1.485986e+002
9.178575e+002,1.484967e+002
9.188218e+002,1.471969e+002
9.197860e+002,1.451063e+002
9.207502e+002,1.419623e+002
9.217145e+002,1.387980e+002
9.226787e+002,1.363338e+002
9.236429e+002,1.347085e+002
9.246072e+002,1.339530e+002
9.255714e+002,1.340308e+002
9.265356e+002,1.329412e+002
9.274999e+002,1.289167e+002
9.284641e+002,1.247911e+002
9.294283e+002,1.211718e+002
9.303926e+002,1.186451e+002
9.313568e+002,1.180065e+002
9.323210e+002,1.197166e+002
9.332853e+002,1.222421e+002
9.342495e+002,1.241403e+002
9.352137e+002,1.248359e+002
9.361780e+002,1.228600e+002
9.371422e+002,1.183716e+002
9.381064e+002,1.137357e+002
9.390707e+002,1.116683e+002
9.400349e+002,1.119971e+002
9.409991e+002,1.122187e+002
9.419634e+002,1.117916e+002
9.429276e+002,1.116813e+002
9.438918e+002,1.133502e+002
9.448561e+002,1.153204e+002
9.458203e+002,1.147205e+002
9.467845e+002,1.103909e+002
9.477488e+002,1.062369e+002
9.487130e+002,1.051382e+002
9.496772e+002,1.052294e+002
9.506415e+002,1.053620e+002
9.516057e+002,1.052862e+002
9.525699e+002,1.051429e+002
9.535342e+002,1.049999e+002
9.544984e+002,1.046638e+002
9.554626e+002,1.043817e+002
9.564269e+002,1.051972e+002
9.573911e+002,1.052305e+002
9.583553e+002,1.030236e+002
9.593196e+002,9.982654e+001
9.602838e+002,9.779364e+001
9.612480e+002,9.707355e+001
9.622123e+002,9.645709e+001
9.631765e+002,9.633386e+001
9.641407e+002,9.586755e+001
9.651050e+002,9.392365e+001
9.660692e+002,9.104034e+001
9.670334e+002,8.876874e+001
9.679977e+002,8.837122e+001
9.689619e+002,8.935968e+001
9.699261e+002,8.845984e+001
9.708904e+002,8.672351e+001
9.718546e+002,8.958722e+001
9.728188e+002,9.847748e+001
9.737831e+002,1.104394e+002
9.747473e+002,1.224719e+002
9.757115e+002,1.351595e+002
9.766758e+002,1.456150e+002
9.776400e+002,1.559282e+002
9.786042e+002,1.623412e+002
9.795685e+002,1.631853e+002
9.805327e+002,1.590571e+002
9.814969e+002,1.501325e+002
9.824612e+002,1.367798e+002
9.834254e+002,1.233316e+002
9.843896e+002,1.138047e+002
9.853539e+002,1.055695e+002
9.863181e+002,9.543152e+001
9.872823e+002,8.348395e+001
9.882466e+002,7.227173e+001
9.892108e+002,6.442670e+001
9.901750e+002,6.053705e+001
9.911393e+002,6.026678e+001
9.921035e+002,6.498993e+001
9.930677e+002,6.849091e+001
9.940320e+002,7.047278e+001
9.949962e+002,7.221173e+001
9.959604e+002,7.451501e+001
9.969247e+002,7.759735e+001
9.978889e+002,8.206415e+001
9.988531e+002,8.886755e+001
9.998174e+002,9.476233e+001
1.000782e+003,9.879523e+001
1.001746e+003,1.012187e+002
1.002710e+003,1.017798e+002
1.003674e+003,1.005611e+002
1.004639e+003,9.879163e+001
1.005603e+003,9.881165e+001
1.006567e+003,1.006382e+002
1.007531e+003,1.006769e+002
1.008495e+003,9.856531e+001
1.009460e+003,9.573126e+001
1.010424e+003,9.278357e+001
1.011388e+003,8.996387e+001
1.012352e+003,8.791809e+001
1.013317e+003,8.699371e+001
1.014281e+003,8.564362e+001
1.015245e+003,8.423914e+001
1.016209e+003,8.123724e+001
1.017174e+003,7.451135e+001
1.018138e+003,6.504822e+001
1.019102e+003,5.647742e+001
1.020066e+003,5.201941e+001
1.021031e+003,5.031982e+001
1.021995e+003,4.658643e+001
1.022959e+003,4.077576e+001
1.023923e+003,3.447900e+001
1.024887e+003,2.756445e+001
1.025852e+003,2.129858e+001
1.026816e+003,1.838159e+001
1.027780e+003,2.019031e+001
1.028744e+003,2.064417e+001
1.029709e+003,1.778394e+001
1.030673e+003,1.508618e+001
1.031637e+003,1.350885e+001
1.032601e+003,1.243591e+001
1.033566e+003,1.079541e+001
1.034530e+003,8.395813e+000
1.035494e+003,6.933533e+000
1.036458e+003,8.952148e+000
1.037422e+003,1.233215e+001
1.038387e+003,1.346881e+001
1.039351e+003,1.231372e+001
1.040315e+003,1.090332e+001
1.041279e+003,1.090460e+001
1.042244e+003,1.222681e+001
1.043208e+003,1.355255e+001
1.044172e+003,1.518286e+001
1.045136e+003,1.513141e+001
1.046101e+003,1.110876e+001
1.047065e+003,8.164124e+000
1.048029e+003,1.070868e+001
1.048993e+003,1.720239e+001
1.049958e+003,2.164679e+001
1.050922e+003,2.108429e+001
1.051886e+003,1.895813e+001
1.052850e+003,1.840594e+001
1.053814e+003,1.860315e+001
1.054779e+003,1.843555e+001
1.055743e+003,1.763135e+001
1.056707e+003,1.689429e+001
1.057671e+003,1.718457e+001
1.058636e+003,1.841547e+001
1.059600e+003,1.783392e+001
1.060564e+003,1.243250e+001
1.061528e+003,1.083173e+001
1.062493e+003,1.686536e+001
1.063457e+003,2.458649e+001
1.064421e+003,2.774426e+001
1.065385e+003,2.584784e+001
1.066349e+003,2.281885e+001
1.067314e+003,2.000366e+001
1.068278e+003,1.736835e+001
1.069242e+003,1.419800e+001
1.070206e+003,1.160760e+001
1.071171e+003,1.139606e+001
1.072135e+003,1.395831e+001
1.073099e+003,1.775146e+001
1.074063e+003,2.063995e+001
1.075028e+003,2.281055e+001
1.075992e+003,2.323975e+001
1.076956e+003,2.067468e+001
1.077920e+003,1.803522e+001
1.078885e+003,1.718341e+001
1.079849e+003,1.731805e+001
1.080813e+003,1.628973e+001
1.081777e+003,1.347107e+001
1.082741e+003,1.186481e+001
1.083706e+003,1.350385e+001
1.084670e+003,1.541852e+001
1.085634e+003,1.650037e+001
1.086598e+003,1.651392e+001
1.087563e+003,1.520135e+001
1.088527e+003,1.277258e+001
1.089491e+003,1.059155e+001
1.090455e+003,1.084448e+001
1.091420e+003,1.349677e+001
1.092384e+003,1.445398e+001
1.093348e+003,1.245740e+001
1.094312e+003,1.040179e+001
1.095276e+003,1.071899e+001
1.096241e+003,1.280188e+001
1.097205e+003,1.375891e+001
1.098169e+003,1.226990e+001
1.099133e+003,1.147290e+001
1.100098e+003,1.469672e+001
1.101062e+003,1.740875e+001
1.102026e+003,1.545990e+001
1.102990e+003,1.072620e+001
1.103955e+003,8.160217e+000
1.104919e+003,1.063184e+001
1.105883e+003,1.541418e+001
1.106847e+003,1.674829e+001
1.107812e+003,1.450214e+001
1.108776e+003,1.422906e+001
1.109740e+003,1.744702e+001
1.110704e+003,1.999292e+001
1.111668e+003,1.819885e+001
1.112633e+003,1.362933e+001
1.113597e+003,1.212396e+001
1.114561e+003,1.521509e+001
1.115525e+003,1.815350e+001
1.116490e+003,1.963495e+001
1.117454e+003,2.024609e+001
1.118418e+003,1.970514e+001
1.119382e+003,1.919525e+001
1.120347e+003,2.081036e+001
1.121311e+003,2.546252e+001
1.122275e+003,3.096771e+001
1.123239e+003,3.437549e+001
1.124203e+003,3.620410e+001
1.125168e+003,3.630328e+001
1.126132e+003,3.381653e+001
1.127096e+003,3.215680e+001
1.128060e+003,3.462079e+001
1.129025e+003,3.992987e+001
1.129989e+003,4.244946e+001
1.130953e+003,4.000909e+001
1.131917e+003,3.842200e+001
1.132882e+003,3.917493e+001
1.133846e+003,4.153674e+001
1.134810e+003,4.615399e+001
1.135774e+003,5.194861e+001
1.136739e+003,5.661273e+001
1.137703e+003,5.884125e+001
1.138667e+003,6.016272e+001
1.139631e+003,6.301697e+001
1.140595e+003,6.753516e+001
1.141560e+003,7.399054e+001
1.142524e+003,8.232239e+001
1.143488e+003,9.425000e+001
1.144452e+003,1.121911e+002
1.145417e+003,1.345535e+002
1.146381e+003,1.551691e+002
1.147345e+003,1.723589e+002
1.148309e+003,1.915833e+002
1.149274e+003,2.153271e+002
1.150238e+003,2.405688e+002
1.151202e+003,2.692001e+002
1.152166e+003,2.978199e+002
1.153130e+003,3.205742e+002
1.154095e+003,3.344303e+002
1.155059e+003,3.417567e+002
1.156023e+003,3.472579e+002
1.156987e+003,3.498359e+002
1.157952e+003,3.424510e+002
1.158916e+003,3.247388e+002
1.159880e+003,3.047788e+002
1.160844e+003,2.858872e+002
1.161809e+003,2.662568e+002
1.162773e+003,2.425948e+002
1.163737e+003,2.136066e+002
1.164701e+003,1.865827e+002
1.165666e+003,1.628269e+002
1.166630e+003,1.427699e+002
1.167594e+003,1.270660e+002
1.168558e+003,1.148990e+002
1.169522e+003,1.056395e+002
1.170487e+003,9.887195e+001
1.171451e+003,9.434888e+001
1.172415e+003,9.191779e+001
1.173379e+003,9.104590e+001
1.174344e+003,8.978174e+001
1.175308e+003,8.840094e+001
1.176272e+003,8.604309e+001
1.177236e+003,8.147839e+001
1.178201e+003,7.682129e+001
1.179165e+003,7.545068e+001
1.180129e+003,7.711230e+001
1.181093e+003,7.496631e+001
1.182057e+003,6.389148e+001
1.183022e+003,5.492560e+001
1.183986e+003,5.244379e+001
1.184950e+003,5.354175e+001
1.185914e+003,5.702332e+001
1.186879e+003,6.147931e+001
1.187843e+003,6.405554e+001
1.188807e+003,6.221960e+001
1.189771e+003,5.773792e+001
1.190736e+003,5.675012e+001
1.191700e+003,5.972949e+001
1.192664e+003,6.077991e+001
1.193628e+003,5.865753e+001
1.194593e+003,5.604956e+001
1.195557e+003,5.575433e+001
1.196521e+003,5.642438e+001
1.197485e+003,5.259094e+001
1.198449e+003,4.134204e+001
1.199414e+003,3.258459e+001
1.200378e+003,3.447467e+001
1.201342e+003,3.704755e+001
1.202306e+003,3.285266e+001
1.203271e+003,2.422559e+001
1.204235e+003,1.754224e+001
1.205199e+003,1.594922e+001
1.206163e+003,1.676135e+001
1.207128e+003,1.542090e+001
1.208092e+003,1.184119e+001
1.209056e+003,8.409607e+000
1.210020e+003,5.742432e+000
1.210984e+003,2.122314e+000
1.211949e+003,-3.147827e+000
1.212913e+003,-9.705811e+000
1.213877e+003,-1.765643e+001
1.214841e+003,-2.674628e+001
1.215806e+003,-3.392072e+001
1.216770e+003,-3.784027e+001
1.217734e+003,-3.986530e+001
1.218698e+003,-4.058643e+001
1.219663e+003,-4.092950e+001
1.220627e+003,-4.192261e+001
1.221591e+003,-4.372424e+001
1.222555e+003,-4.586670e+001
1.223520e+003,-4.785382e+001
1.224484e+003,-4.959106e+001
1.225448e+003,-5.145264e+001
1.226412e+003,-5.420496e+001
1.227376e+003,-5.536493e+001
1.228341e+003,-5.350769e+001
1.229305e+003,-5.199261e+001
1.230269e+003,-5.303693e+001
1.231233e+003,-5.565094e+001
1.232198e+003,-5.774139e+001
1.233162e+003,-5.862524e+001
1.234126e+003,-5.832220e+001
1.235090e+003,-5.613354e+001
1.236055e+003,-5.397760e+001
1.237019e+003,-5.411859e+001
1.237983e+003,-5.600183e+001
1.238947e+003,-5.785651e+001
1.239911e+003,-5.874066e+001
1.240876e+003,-5.862646e+001
1.241840e+003,-5.739624e+001
1.242804e+003,-5.485187e+001
1.243768e+003,-5.435217e+001
1.244733e+003,-5.876636e+001
1.245697e+003,-6.139880e+001
1.246661e+003,-6.222565e+001
1.247625e+003,-6.143433e+001
1.248590e+003,-5.779492e+001
1.249554e+003,-5.223364e+001
1.250518e+003,-4.764240e+001
1.251482e+003,-4.550854e+001
1.252447e+003,-4.504126e+001
1.253411e+003,-4.562152e+001
1.254375e+003,-4.647314e+001
1.255339e+003,-4.610229e+001
1.256303e+003,-4.434387e+001
1.257268e+003,-4.279840e+001
1.258232e+003,-4.313159e+001
1.259196e+003,-4.409985e+001
1.260160e+003,-4.206433e+001
1.261125e+003,-3.593951e+001
1.262089e+003,-3.146857e+001
1.263053e+003,-3.240112e+001
1.264017e+003,-3.179712e+001
1.264982e+003,-2.569501e+001
1.265946e+003,-1.876270e+001
1.266910e+003,-1.513556e+001
1.267874e+003,-1.519086e+001
1.268839e+003,-1.738373e+001
1.269803e+003,-2.071350e+001
1.270767e+003,-2.440442e+001
1.271731e+003,-2.684686e+001
1.272695e+003,-2.788043e+001
1.273660e+003,-2.909296e+001
1.274624e+003,-3.110791e+001
1.275588e+003,-3.339386e+001
1.276552e+003,-3.569263e+001
1.277517e+003,-3.740039e+001
1.278481e+003,-3.733337e+001
1.279445e+003,-3.533356e+001
1.280409e+003,-3.482245e+001
1.281374e+003,-3.828558e+001
1.282338e+003,-4.148230e+001
1.283302e+003,-4.161011e+001
1.284266e+003,-4.076276e+001
1.285230e+003,-4.176990e+001
1.286195e+003,-4.466913e+001
1.287159e+003,-4.682770e+001
1.288123e+003,-4.591010e+001
1.289087e+003,-4.303021e+001
1.290052e+003,-4.237805e+001
1.291016e+003,-4.516479e+001
1.291980e+003,-4.698444e+001
1.292944e+003,-4.756873e+001
1.293909e+003,-4.829999e+001
1.294873e+003,-4.934857e+001
1.295837e+003,-5.045325e+001
1.296801e+003,-5.123199e+001
1.297766e+003,-5.169861e+001
1.298730e+003,-5.292542e+001
1.299694e+003,-5.646741e+001
1.300658e+003,-5.966949e+001
1.301622e+003,-5.916901e+001
1.302587e+003,-5.629242e+001
1.303551e+003,-5.244702e+001
1.304515e+003,-4.805640e+001
1.305479e+003,-4.493658e+001
1.306444e+003,-4.494733e+001
1.307408e+003,-4.732269e+001
1.308372e+003,-4.903943e+001
1.309336e+003,-5.013373e+001
1.310301e+003,-5.050287e+001
1.311265e+003,-4.980884e+001
1.312229e+003,-4.840143e+001
1.313193e+003,-4.624951e+001
1.314157e+003,-4.367480e+001
1.315122e+003,-4.003137e+001
1.316086e+003,-3.622339e+001
1.317050e+003,-3.536139e+001
1.318014e+003,-3.953217e+001
1.318979e+003,-4.572760e+001
1.319943e+003,-4.920789e+001
1.320907e+003,-4.984149e+001
1.321871e+003,-4.880225e+001
1.322836e+003,-4.619281e+001
1.323800e+003,-4.344916e+001
1.324764e+003,-4.034320e+001
1.325728e+003,-3.792560e+001
1.326693e+003,-3.915033e+001
1.327657e+003,-4.437994e+001
1.328621e+003,-4.700226e+001
1.329585e+003,-4.227277e+001
1.330549e+003,-3.769440e+001
1.331514e+003,-3.891791e+001
1.332478e+003,-4.225830e+001
1.333442e+003,-4.447211e+001
1.334406e+003,-4.483655e+001
1.335371e+003,-4.351758e+001
1.336335e+003,-4.071320e+001
1.337299e+003,-3.724072e+001
1.338263e+003,-3.466394e+001
1.339228e+003,-3.285004e+001
1.340192e+003,-3.311890e+001
1.341156e+003,-3.805139e+001
1.342120e+003,-4.117773e+001
1.343084e+003,-4.090784e+001
1.344049e+003,-3.976910e+001
1.345013e+003,-3.925336e+001
1.345977e+003,-3.920111e+001
1.346941e+003,-3.910883e+001
1.347906e+003,-3.883850e+001
1.348870e+003,-3.841260e+001
1.349834e+003,-3.810925e+001
1.350798e+003,-3.773120e+001
1.351763e+003,-3.627216e+001
1.352727e+003,-3.390393e+001
1.353691e+003,-3.228253e+001
1.354655e+003,-3.210370e+001
1.355620e+003,-3.232288e+001
1.356584e+003,-3.154517e+001
1.357548e+003,-2.980695e+001
1.358512e+003,-2.856592e+001
1.359476e+003,-2.843689e+001
1.360441e+003,-2.862640e+001
1.361405e+003,-2.833911e+001
1.362369e+003,-2.854291e+001
1.363333e+003,-3.007977e+001
1.364298e+003,-3.220868e+001
1.365262e+003,-3.402069e+001
1.366226e+003,-3.518976e+001
1.367190e+003,-3.581769e+001
1.368155e+003,-3.600476e+001
1.369119e+003,-3.563220e+001
1.370083e+003,-3.412360e+001
1.371047e+003,-3.066693e+001
1.372011e+003,-2.886353e+001
1.372976e+003,-3.026428e+001
1.373940e+003,-3.198529e+001
1.374904e+003,-3.337573e+001
1.375868e+003,-3.393152e+001
1.376833e+003,-3.278070e+001
1.377797e+003,-3.022040e+001
1.378761e+003,-2.788098e+001
1.379725e+003,-2.620734e+001
1.380690e+003,-2.537939e+001
1.381654e+003,-2.650684e+001
1.382618e+003,-2.798541e+001
1.383582e+003,-2.725293e+001
1.384547e+003,-2.450806e+001
1.385511e+003,-2.236829e+001
1.386475e+003,-2.247852e+001
1.387439e+003,-2.327698e+001
1.388403e+003,-2.194684e+001
1.389368e+003,-1.853790e+001
1.390332e+003,-1.662091e+001
1.391296e+003,-1.670605e+001
1.392260e+003,-1.696545e+001
1.393225e+003,-1.682190e+001
1.394189e+003,-1.705096e+001
1.395153e+003,-1.839337e+001
1.396117e+003,-2.024518e+001
1.397082e+003,-2.176483e+001
1.398046e+003,-2.254956e+001
1.399010e+003,-2.250970e+001
1.399974e+003,-2.173785e+001
1.400938e+003,-2.103632e+001
1.401903e+003,-2.187476e+001
1.402867e+003,-2.404602e+001
1.403831e+003,-2.388214e+001
1.404795e+003,-1.983978e+001
1.405760e+003,-1.658917e+001
1.406724e+003,-1.694165e+001
1.407688e+003,-1.931799e+001
1.408652e+003,-2.165393e+001
1.409617e+003,-2.316333e+001
1.410581e+003,-2.330225e+001
1.411545e+003,-2.178387e+001
1.412509e+003,-1.928052e+001
1.413474e+003,-1.558044e+001
1.414438e+003,-1.255872e+001
1.415402e+003,-1.308228e+001
1.416366e+003,-1.632904e+001
1.417330e+003,-1.912891e+001
1.418295e+003,-2.039441e+001
1.419259e+003,-2.024524e+001
1.420223e+003,-1.819025e+001
1.421187e+003,-1.498315e+001
1.422152e+003,-1.425818e+001
1.423116e+003,-1.669916e+001
1.424080e+003,-1.819604e+001
1.425044e+003,-1.824884e+001
1.426009e+003,-1.714313e+001
1.426973e+003,-1.421265e+001
1.427937e+003,-1.065735e+001
1.428901e+003,-6.827759e+000
1.429865e+003,-3.445007e+000
1.430830e+003,-3.076721e+000
1.431794e+003,-7.452942e+000
1.432758e+003,-1.328253e+001
1.433722e+003,-1.336945e+001
1.434687e+003,-6.589478e+000
1.435651e+003,-1.570435e+000
1.436615e+003,-9.226685e-001
1.437579e+003,-6.784058e-001
1.438544e+003,-6.226807e-001
1.439508e+003,-4.261475e-001
1.440472e+003,5.968628e-001
1.441436e+003,2.226685e+000
1.442401e+003,3.846619e+000
1.443365e+003,5.119934e+000
1.444329e+003,5.728210e+000
1.445293e+003,5.505676e+000
1.446257e+003,4.758179e+000
1.447222e+003,3.266418e+000
1.448186e+003,1.371704e+000
1.449150e+003,1.749207e+000
1.450114e+003,5.167908e+000
1.451079e+003,8.105286e+000
1.452043e+003,9.234192e+000
1.453007e+003,9.075928e+000
1.453971e+003,7.530640e+000
1.454936e+003,4.720520e+000
1.455900e+003,2.585754e+000
1.456864e+003,1.761963e+000
1.457828e+003,1.551636e+000
1.458792e+003,1.919189e+000
1.459757e+003,1.912048e+000
1.460721e+003,3.224487e-001
1.461685e+003,-2.104370e+000
1.462649e+003,-3.905762e+000
1.463614e+003,-4.486145e+000
1.464578e+003,-3.770813e+000
1.465542e+003,-1.618774e+000
1.466506e+003,1.209839e+000
1.467471e+003,2.759155e+000
1.468435e+003,3.041260e+000
1.469399e+003,4.251099e+000
1.470363e+003,7.066406e+000
1.471328e+003,9.055969e+000
1.472292e+003,9.404175e+000
1.473256e+003,8.323975e+000
1.474220e+003,5.284668e+000
1.475184e+003,2.040649e+000
1.476149e+003,1.566895e+000
1.477113e+003,4.208252e+000
1.478077e+003,6.811523e+000
1.479041e+003,6.570435e+000
1.480006e+003,4.896851e+000
1.480970e+003,5.767395e+000
1.481934e+003,9.673218e+000
1.482898e+003,1.236566e+001
1.483863e+003,1.327490e+001
1.484827e+003,1.373413e+001
1.485791e+003,1.385168e+001
1.486755e+003,1.449396e+001
1.487719e+003,1.610669e+001
1.488684e+003,1.853210e+001
1.489648e+003,2.172021e+001
1.490612e+003,2.582135e+001
1.491576e+003,3.054602e+001
1.492541e+003,3.562549e+001
1.493505e+003,4.078717e+001
1.494469e+003,4.569769e+001
1.495433e+003,4.992554e+001
1.496398e+003,5.293262e+001
1.497362e+003,5.458868e+001
1.498326e+003,5.730963e+001
1.499290e+003,6.215887e+001
1.500255e+003,6.876367e+001
1.501219e+003,7.679309e+001
1.502183e+003,8.597308e+001
1.503147e+003,9.524115e+001
1.504111e+003,1.040190e+002
1.505076e+003,1.146993e+002
1.506040e+003,1.297166e+002
1.507004e+003,1.464287e+002
1.507968e+003,1.608933e+002
1.508933e+003,1.752712e+002
1.509897e+003,1.946737e+002
1.510861e+003,2.204402e+002
1.511825e+003,2.482364e+002
1.512790e+003,2.746008e+002
1.513754e+003,3.006728e+002
1.514718e+003,3.299984e+002
1.515682e+003,3.621497e+002
1.516646e+003,3.914233e+002
1.517611e+003,4.178268e+002
1.518575e+003,4.414496e+002
1.519539e+003,4.638109e+002
1.520503e+003,4.826625e+002
1.521468e+003,4.980575e+002
1.522432e+003,5.080533e+002
1.523396e+003,5.095750e+002
1.524360e+003,5.028766e+002
1.525325e+003,4.913850e+002
1.526289e+003,4.775092e+002
1.527253e+003,4.606370e+002
1.528217e+003,4.392138e+002
1.529182e+003,4.135422e+002
1.530146e+003,3.861197e+002
1.531110e+003,3.566927e+002
1.532074e+003,3.250048e+002
1.533039e+003,2.890754e+002
1.534003e+003,2.518189e+002
1.534967e+003,2.120828e+002
1.535931e+003,1.749358e+002
1.536896e+003,1.458186e+002
1.537860e+003,1.246952e+002
1.538824e+003,1.081883e+002
1.539788e+003,9.424457e+001
1.540752e+003,8.301068e+001
1.541717e+003,7.512915e+001
1.542681e+003,7.023248e+001
1.543645e+003,6.450177e+001
1.544609e+003,5.718640e+001
1.545573e+003,5.221527e+001
1.546538e+003,4.975964e+001
1.547502e+003,4.820258e+001
1.548466e+003,4.777325e+001
1.549430e+003,4.829510e+001
1.550395e+003,4.983698e+001
1.551359e+003,5.163489e+001
1.552323e+003,5.223303e+001
1.553287e+003,5.120624e+001
1.554252e+003,4.955975e+001
1.555216e+003,4.833282e+001
1.556180e+003,4.641821e+001
1.557144e+003,4.027863e+001
1.558109e+003,2.993439e+001
1.559073e+003,2.452051e+001
1.560037e+003,2.577716e+001
1.561001e+003,2.744421e+001
1.561966e+003,2.834149e+001
1.562930e+003,2.903107e+001
1.563894e+003,2.925305e+001
1.564858e+003,2.938373e+001
1.565823e+003,3.083319e+001
1.566787e+003,3.371063e+001
1.567751e+003,3.620905e+001
1.568715e+003,3.766443e+001
1.569679e+003,3.769781e+001
1.570644e+003,3.401917e+001
1.571608e+003,2.864490e+001
1.572572e+003,2.874585e+001
1.573536e+003,3.491071e+001
1.574500e+003,3.999854e+001
1.575465e+003,4.083124e+001
1.576429e+003,4.095746e+001
1.577393e+003,4.343951e+001
1.578357e+003,4.683197e+001
1.579322e+003,4.864606e+001
1.580286e+003,4.886133e+001
1.581250e+003,4.832202e+001
1.582214e+003,4.710626e+001
1.583179e+003,4.566846e+001
1.584143e+003,4.301196e+001
1.585107e+003,4.118988e+001
1.586071e+003,4.452765e+001
1.587036e+003,5.153943e+001
1.588000e+003,5.607227e+001
1.588964e+003,5.643939e+001
1.589928e+003,5.594482e+001
1.590893e+003,5.649884e+001
1.591857e+003,5.780267e+001
1.592821e+003,6.005231e+001
1.593785e+003,6.289459e+001
1.594750e+003,6.312311e+001
1.595714e+003,5.938611e+001
1.596678e+003,5.834943e+001
1.597642e+003,6.483124e+001
1.598606e+003,7.173480e+001
1.599571e+003,7.327301e+001
1.600535e+003,7.218854e+001
1.601499e+003,7.097784e+001
1.602463e+003,7.021747e+001
1.603427e+003,7.143518e+001
1.604392e+003,7.547681e+001
1.605356e+003,8.008057e+001
1.606320e+003,8.361890e+001
1.607284e+003,8.579047e+001
1.608249e+003,8.487506e+001
1.609213e+003,8.071051e+001
1.610177e+003,7.920636e+001
1.611141e+003,8.299805e+001
1.612106e+003,8.535822e+001
1.613070e+003,8.052637e+001
1.614034e+003,7.529944e+001
1.614998e+003,7.523932e+001
1.615963e+003,7.797510e+001
1.616927e+003,7.862622e+001
1.617891e+003,7.676465e+001
1.618855e+003,7.658417e+001
1.619820e+003,8.076318e+001
1.620784e+003,8.552332e+001
1.621748e+003,8.557928e+001
1.622712e+003,8.235254e+001
1.623677e+003,8.162323e+001
1.624641e+003,8.399652e+001
1.625605e+003,8.572479e+001
1.626569e+003,8.416052e+001
1.627533e+003,8.300067e+001
1.628498e+003,8.586768e+001
1.629462e+003,8.917163e+001
1.630426e+003,8.935370e+001
1.631390e+003,8.744922e+001
1.632354e+003,8.605731e+001
1.633319e+003,8.587335e+001
1.634283e+003,8.649506e+001
1.635247e+003,8.770941e+001
1.636211e+003,8.904279e+001
1.637176e+003,9.012634e+001
1.638140e+003,9.105713e+001
1.639104e+003,9.035529e+001
1.640068e+003,8.710718e+001
1.641033e+003,8.486621e+001
1.641997e+003,8.516766e+001
1.642961e+003,8.612445e+001
1.643925e+003,8.674475e+001
1.644890e+003,8.745319e+001
1.645854e+003,8.858374e+001
1.646818e+003,9.006329e+001
1.647782e+003,9.236957e+001
1.648747e+003,9.535950e+001
1.649711e+003,9.599902e+001
1.650675e+003,9.126526e+001
1.651639e+003,8.453442e+001
1.652604e+003,8.247467e+001
1.653568e+003,8.471472e+001
1.654532e+003,8.727460e+001
1.655496e+003,9.059491e+001
1.656460e+003,9.193866e+001
1.657425e+003,8.955902e+001
1.658389e+003,8.659332e+001
1.659353e+003,8.478345e+001
1.660317e+003,8.321429e+001
1.661281e+003,8.080145e+001
1.662246e+003,7.760577e+001
1.663210e+003,7.406366e+001
1.664174e+003,7.051416e+001
1.665138e+003,6.824799e+001
1.666103e+003,6.848859e+001
1.667067e+003,6.994971e+001
1.668031e+003,7.043396e+001
1.668995e+003,7.005579e+001
1.669960e+003,6.904889e+001
1.670924e+003,6.727704e+001
1.671888e+003,6.596368e+001
1.672852e+003,6.526398e+001
1.673817e+003,6.502771e+001
1.674781e+003,6.565527e+001
1.675745e+003,6.624042e+001
1.676709e+003,6.590479e+001
1.677674e+003,6.459265e+001
1.678638e+003,6.211963e+001
1.679602e+003,5.847693e+001
1.680566e+003,5.528406e+001
1.681531e+003,5.401526e+001
1.682495e+003,5.411761e+001
1.683459e+003,5.467664e+001
1.684423e+003,5.530463e+001
1.685387e+003,5.482776e+001
1.686352e+003,5.321820e+001
1.687316e+003,5.078290e+001
1.688280e+003,4.693665e+001
1.689244e+003,4.351990e+001
1.690208e+003,4.225037e+001
1.691173e+003,4.172656e+001
1.692137e+003,4.064655e+001
1.693101e+003,3.938013e+001
1.694065e+003,3.825226e+001
1.695030e+003,3.699469e+001
1.695994e+003,3.683777e+001
1.696958e+003,4.002063e+001
1.697922e+003,4.325854e+001
1.698887e+003,4.183136e+001
1.699851e+003,3.729254e+001
1.700815e+003,3.361615e+001
1.701779e+003,3.105103e+001
1.702744e+003,3.064240e+001
1.703708e+003,3.369287e+001
1.704672e+003,3.659979e+001
1.705636e+003,3.564325e+001
1.706601e+003,3.325006e+001
1.707565e+003,3.463403e+001
1.708529e+003,3.833807e+001
1.709493e+003,3.845667e+001
1.710458e+003,3.387744e+001
1.711422e+003,2.939636e+001
1.712386e+003,2.693207e+001
1.713350e+003,2.584052e+001
1.714314e+003,2.551520e+001
1.715279e+003,2.562689e+001
1.716243e+003,2.641730e+001
1.717207e+003,2.754175e+001
1.718171e+003,2.697144e+001
1.719135e+003,2.422571e+001
1.720100e+003,2.235754e+001
1.721064e+003,2.356543e+001
1.722028e+003,2.569470e+001
1.722992e+003,2.633319e+001
1.723957e+003,2.573260e+001
1.724921e+003,2.284979e+001
1.725885e+003,1.627924e+001
1.726849e+003,1.255188e+001
1.727814e+003,1.578693e+001
1.728778e+003,1.905817e+001
1.729742e+003,1.876556e+001
1.730706e+003,1.751398e+001
1.731671e+003,1.750146e+001
1.732635e+003,1.806079e+001
1.733599e+003,1.847369e+001
1.734563e+003,1.866595e+001
1.735528e+003,1.730164e+001
1.736492e+003,1.354736e+001
1.737456e+003,1.126385e+001
1.738420e+003,1.556091e+001
1.739385e+003,2.356982e+001
1.740349e+003,2.553876e+001
1.741313e+003,2.037054e+001
1.742277e+003,1.597278e+001
1.743241e+003,1.241803e+001
1.744206e+003,9.998840e+000
1.745170e+003,8.418030e+000
1.746134e+003,8.026184e+000
1.747098e+003,1.030756e+001
1.748063e+003,1.286951e+001
1.749027e+003,1.267255e+001
1.749991e+003,1.041730e+001
1.750955e+003,8.704041e+000
1.751919e+003,8.381714e+000
1.752884e+003,8.336426e+000
1.753848e+003,7.634155e+000
1.754812e+003,6.927063e+000
1.755776e+003,7.939209e+000
1.756741e+003,1.086481e+001
1.757705e+003,1.255975e+001
1.758669e+003,1.251031e+001
1.759633e+003,1.190192e+001
1.760598e+003,9.519592e+000
1.761562e+003,8.024414e+000
1.762526e+003,9.795044e+000
1.763490e+003,1.169391e+001
1.764455e+003,1.142981e+001
1.765419e+003,9.929932e+000
1.766383e+003,8.133789e+000
1.767347e+003,6.468323e+000
1.768312e+003,6.329895e+000
1.769276e+003,8.333374e+000
1.770240e+003,9.826660e+000
1.771204e+003,7.985962e+000
1.772168e+003,4.730652e+000
1.773133e+003,3.861145e+000
1.774097e+003,5.136292e+000
1.775061e+003,6.208862e+000
1.776025e+003,6.429810e+000
1.776990e+003,7.275879e+000
1.777954e+003,1.009546e+001
1.778918e+003,1.285034e+001
1.779882e+003,1.371655e+001
1.780846e+003,1.335541e+001
1.781811e+003,1.326062e+001
1.782775e+003,1.314923e+001
1.783739e+003,1.139331e+001
1.784703e+003,7.636658e+000
1.785668e+003,5.043762e+000
1.786632e+003,4.503723e+000
1.787596e+003,5.275696e+000
1.788560e+003,8.524597e+000
1.789525e+003,1.240143e+001
1.790489e+003,1.367529e+001
1.791453e+003,1.269934e+001
1.792417e+003,1.128754e+001
1.793382e+003,1.005298e+001
1.794346e+003,1.021942e+001
1.795310e+003,1.254785e+001
1.796274e+003,1.428271e+001
1.797239e+003,1.206311e+001
1.798203e+003,8.062317e+000
1.799167e+003,8.300537e+000
1.800131e+003,1.315857e+001
1.801095e+003,1.503430e+001
1.802060e+003,1.223401e+001
1.803024e+003,1.072137e+001
1.803988e+003,1.221198e+001
1.804952e+003,1.321954e+001
1.805917e+003,1.067450e+001
1.806881e+003,8.035828e+000
1.807845e+003,9.743286e+000
1.808809e+003,1.409100e+001
1.809773e+003,1.693567e+001
1.810738e+003,1.729309e+001
1.811702e+003,1.670685e+001
1.812666e+003,1.614630e+001
1.813630e+003,1.581958e+001
1.814595e+003,1.610431e+001
1.815559e+003,1.665076e+001
1.816523e+003,1.620935e+001
1.817487e+003,1.468854e+001
1.818452e+003,1.435876e+001
1.819416e+003,1.647821e+001
1.820380e+003,1.725641e+001
1.821344e+003,1.426984e+001
1.822309e+003,1.103876e+001
1.823273e+003,8.767883e+000
1.824237e+003,8.377075e+000
1.825201e+003,1.251898e+001
1.826166e+003,1.875171e+001
1.827130e+003,2.030994e+001
1.828094e+003,1.606781e+001
1.829058e+003,1.257910e+001
1.830022e+003,1.353448e+001
1.830987e+003,1.541107e+001
1.831951e+003,1.534485e+001
1.832915e+003,1.440692e+001
1.833879e+003,1.391980e+001
1.834844e+003,1.392236e+001
1.835808e+003,1.436188e+001
1.836772e+003,1.522632e+001
1.837736e+003,1.626746e+001
1.838700e+003,1.723602e+001
1.839665e+003,1.793744e+001
1.840629e+003,1.829584e+001
1.841593e+003,1.858356e+001
1.842557e+003,1.920697e+001
1.843522e+003,2.013733e+001
1.844486e+003,2.039600e+001
1.845450e+003,1.990338e+001
1.846414e+003,1.968176e+001
1.847379e+003,1.947760e+001
1.848343e+003,1.883124e+001
1.849307e+003,1.672742e+001
1.850271e+003,1.541748e+001
1.851236e+003,1.800806e+001
1.852200e+003,2.175494e+001
1.853164e+003,2.180817e+001
1.854128e+003,1.862933e+001
1.855093e+003,1.685394e+001
1.856057e+003,1.835004e+001
1.857021e+003,2.020294e+001
1.857985e+003,1.976288e+001
1.858949e+003,1.828876e+001
1.859914e+003,1.808417e+001
1.860878e+003,1.899286e+001
1.861842e+003,1.958502e+001
1.862806e+003,1.973047e+001
1.863771e+003,1.997656e+001
1.864735e+003,2.008783e+001
1.865699e+003,2.135791e+001
1.866663e+003,2.556860e+001
1.867627e+003,2.932452e+001
1.868592e+003,2.854639e+001
1.869556e+003,2.541675e+001
1.870520e+003,2.476782e+001
1.871484e+003,2.615955e+001
1.872449e+003,2.687292e+001
1.873413e+003,2.734991e+001
1.874377e+003,2.808704e+001
1.875341e+003,2.846637e+001
1.876306e+003,2.853351e+001
1.877270e+003,2.776971e+001
1.878234e+003,2.699799e+001
1.879198e+003,2.744092e+001
1.880163e+003,2.855573e+001
1.881127e+003,2.936511e+001
1.882091e+003,2.971289e+001
1.883055e+003,2.971661e+001
1.884020e+003,2.944122e+001
1.884984e+003,2.908429e+001
1.885948e+003,2.883551e+001
1.886912e+003,2.879468e+001
1.887876e+003,2.943512e+001
1.888841e+003,3.059009e+001
1.889805e+003,2.897388e+001
1.890769e+003,2.320636e+001
1.891733e+003,2.277179e+001
1.892698e+003,3.175543e+001
1.893662e+003,3.754047e+001
1.894626e+003,3.327197e+001
1.895590e+003,2.821356e+001
1.896554e+003,2.906787e+001
1.897519e+003,3.271436e+001
1.898483e+003,3.590662e+001
1.899447e+003,3.812921e+001
1.900411e+003,3.919440e+001
1.901376e+003,3.915125e+001
1.902340e+003,3.847278e+001
1.903304e+003,3.657190e+001
1.904268e+003,3.515350e+001
1.905233e+003,3.588391e+001
1.906197e+003,3.724298e+001
1.907161e+003,3.755353e+001
1.908125e+003,3.751978e+001
1.909090e+003,3.867004e+001
1.910054e+003,4.049591e+001
1.911018e+003,4.094873e+001
1.911982e+003,3.961963e+001
1.912947e+003,3.804034e+001
1.913911e+003,3.723694e+001
1.914875e+003,3.723090e+001
1.915839e+003,3.801996e+001
1.916803e+003,3.922388e+001
1.917768e+003,4.029407e+001
1.918732e+003,4.161353e+001
1.919696e+003,4.157147e+001
1.920660e+003,3.945496e+001
1.921625e+003,3.855725e+001
1.922589e+003,4.003021e+001
1.923553e+003,4.166016e+001
1.924517e+003,4.190027e+001
1.925481e+003,4.223566e+001
1.926446e+003,4.460748e+001
1.927410e+003,4.781415e+001
1.928374e+003,4.913953e+001
1.929338e+003,4.838000e+001
1.930303e+003,4.805695e+001
1.931267e+003,4.940985e+001
1.932231e+003,5.083850e+001
1.933195e+003,5.141809e+001
1.934160e+003,5.137817e+001
1.935124e+003,5.079303e+001
1.936088e+003,4.958075e+001
1.937052e+003,4.751837e+001
1.938017e+003,4.531677e+001
1.938981e+003,4.425653e+001
1.939945e+003,4.426556e+001
1.940909e+003,4.407068e+001
1.941874e+003,4.304797e+001
1.942838e+003,4.183368e+001
1.943802e+003,4.122339e+001
1.944766e+003,4.171826e+001
1.945730e+003,4.394257e+001
1.946695e+003,4.741351e+001
1.947659e+003,5.019727e+001
1.948623e+003,5.235687e+001
1.949587e+003,5.176929e+001
1.950552e+003,4.734259e+001
1.951516e+003,4.451160e+001
1.952480e+003,4.556384e+001
1.953444e+003,4.750934e+001
1.954408e+003,4.818280e+001
1.955373e+003,4.831927e+001
1.956337e+003,4.979358e+001
1.957301e+003,5.220837e+001
1.958265e+003,5.284753e+001
1.959230e+003,5.148169e+001
1.960194e+003,5.017438e+001
1.961158e+003,4.755121e+001
1.962122e+003,4.648682e+001
1.963087e+003,4.970227e+001
1.964051e+003,5.242847e+001
1.965015e+003,5.123889e+001
1.965979e+003,4.943604e+001
1.966944e+003,5.071960e+001
1.967908e+003,5.334137e+001
1.968872e+003,5.372083e+001
1.969836e+003,5.172229e+001
1.970801e+003,4.929156e+001
1.971765e+003,4.746191e+001
1.972729e+003,4.762585e+001
1.973693e+003,5.141760e+001
1.974657e+003,5.633191e+001
1.975622e+003,5.835449e+001
1.976586e+003,5.842902e+001
1.977550e+003,5.976965e+001
1.978514e+003,6.213000e+001
1.979479e+003,6.284247e+001
1.980443e+003,6.155078e+001
1.981407e+003,6.052905e+001
1.982371e+003,6.075781e+001
1.983335e+003,6.101764e+001
1.984300e+003,6.008441e+001
1.985264e+003,5.913074e+001
1.986228e+003,6.034662e+001
1.987192e+003,6.313666e+001
1.988157e+003,6.439130e+001
1.989121e+003,6.383771e+001
1.990085e+003,6.380530e+001
1.991049e+003,6.488318e+001
1.992014e+003,6.565912e+001
1.992978e+003,6.548053e+001
1.993942e+003,6.528455e+001
1.994906e+003,6.554321e+001
1.995871e+003,6.577032e+001
1.996835e+003,6.522687e+001
1.997799e+003,6.485864e+001
1.998763e+003,6.625372e+001
1.999728e+003,6.885132e+001
