5.003444e+002,2.306370e+002
5.013087e+002,2.283889e+002
5.022729e+002,2.228076e+002
5.032371e+002,2.162563e+002
5.042014e+002,2.132919e+002
5.051656e+002,2.136208e+002
5.061298e+002,2.154974e+002
5.070941e+002,2.174126e+002
5.080583e+002,2.193387e+002
5.090225e+002,2.182810e+002
5.099868e+002,2.123918e+002
5.109510e+002,2.064127e+002
5.119152e+002,2.032463e+002
5.128795e+002,2.032899e+002
5.138437e+002,2.024038e+002
5.148079e+002,1.972992e+002
5.157722e+002,1.930693e+002
5.167364e+002,1.923094e+002
5.177006e+002,1.946002e+002
5.186649e+002,1.968757e+002
5.196291e+002,1.967817e+002
5.205933e+002,1.951543e+002
5.215576e+002,1.905157e+002
5.225218e+002,1.827257e+002
5.234860e+002,1.738143e+002
5.244503e+002,1.682064e+002
5.254145e+002,1.680674e+002
5.263787e+002,1.694467e+002
5.273430e+002,1.743096e+002
5.283072e+002,1.794066e+002
5.292714e+002,1.795085e+002
5.302357e+002,1.703829e+002
5.311999e+002,1.624453e+002
5.321641e+002,1.580006e+002
5.331284e+002,1.559719e+002
5.340926e+002,1.556575e+002
5.350568e+002,1.565269e+002
5.360211e+002,1.565481e+002
5.369853e+002,1.552668e+002
5.379495e+002,1.532345e+002
5.389138e+002,1.496481e+002
5.398780e+002,1.444711e+002
5.408422e+002,1.390746e+002
5.418065e+002,1.383647e+002
5.427707e+002,1.415868e+002
5.437349e+002,1.436130e+002
5.446992e+002,1.425859e+002
5.456634e+002,1.395604e+002
5.466276e+002,1.386141e+002
5.475919e+002,1.435255e+002
5.485561e+002,1.465100e+002
5.495203e+002,1.465486e+002
5.504846e+002,1.441139e+002
5.514488e+002,1.397792e+002
5.524130e+002,1.328440e+002
5.533773e+002,1.273468e+002
5.543415e+002,1.251051e+002
5.553057e+002,1.250112e+002
5.562700e+002,1.266544e+002
5.572342e+002,1.296145e+002
5.581984e+002,1.318608e+002
5.591627e+002,1.273914e+002
5.601269e+002,1.194674e+002
5.610911e+002,1.142533e+002
5.620554e+002,1.149005e+002
5.630196e+002,1.201656e+002
5.639838e+002,1.214956e+002
5.649481e+002,1.161244e+002
5.659123e+002,1.110065e+002
5.668765e+002,1.083469e+002
5.678408e+002,1.078281e+002
5.688050e+002,1.071348e+002
5.697692e+002,1.030959e+002
5.707335e+002,1.002562e+002
5.716977e+002,1.022085e+002
5.726619e+002,1.059893e+002
5.736262e+002,1.072164e+002
5.745904e+002,1.025358e+002
5.755546e+002,9.662280e+001
5.765189e+002,9.762622e+001
5.774831e+002,1.015991e+002
5.784473e+002,1.016069e+002
5.794116e+002,9.332983e+001
5.803758e+002,7.862048e+001
5.813400e+002,7.573340e+001
5.823043e+002,8.722034e+001
5.832685e+002,9.662671e+001
5.842327e+002,9.811755e+001
5.851970e+002,9.343726e+001
5.861612e+002,9.070740e+001
5.871254e+002,9.190784e+001
5.880897e+002,9.299292e+001
5.890539e+002,9.289087e+001
5.900181e+002,9.178223e+001
5.909824e+002,9.032629e+001
5.919466e+002,8.906519e+001
5.929108e+002,8.810864e+001
5.938751e+002,8.783276e+001
5.948393e+002,8.769629e+001
5.958035e+002,8.666821e+001
5.967678e+002,8.414111e+001
5.977320e+002,8.089526e+001
5.986962e+002,8.128870e+001
5.996605e+002,8.449377e+001
6.006247e+002,8.681030e+001
6.015889e+002,8.621887e+001
6.025532e+002,8.304822e+001
6.035174e+002,8.087732e+001
6.044816e+002,8.159412e+001
6.054459e+002,8.156677e+001
6.064101e+002,7.928662e+001
6.073743e+002,7.598438e+001
6.083386e+002,7.412268e+001
6.093028e+002,7.567786e+001
6.102670e+002,7.809631e+001
6.112313e+002,7.965100e+001
6.121955e+002,8.028564e+001
6.131597e+002,7.950806e+001
6.141240e+002,7.702942e+001
6.150882e+002,7.367920e+001
6.160524e+002,7.442224e+001
6.170167e+002,7.886646e+001
6.179809e+002,8.254956e+001
6.189451e+002,8.267493e+001
6.199094e+002,7.948120e+001
6.208736e+002,7.767493e+001
6.218378e+002,8.110876e+001
6.228021e+002,8.308887e+001
6.237663e+002,8.209448e+001
6.247305e+002,7.979309e+001
6.256948e+002,7.882080e+001
6.266590e+002,8.036536e+001
6.276232e+002,8.090930e+001
6.285875e+002,7.843176e+001
6.295517e+002,7.514758e+001
6.305159e+002,7.315930e+001
6.314802e+002,7.337061e+001
6.324444e+002,7.447559e+001
6.334086e+002,7.426855e+001
6.343729e+002,7.352246e+001
6.353371e+002,7.176477e+001
6.363013e+002,6.823755e+001
6.372656e+002,6.372668e+001
6.382298e+002,6.176648e+001
6.391940e+002,6.594812e+001
6.401583e+002,6.743616e+001
6.411225e+002,6.574780e+001
6.420867e+002,6.311975e+001
6.430510e+002,6.172742e+001
6.440152e+002,6.189429e+001
6.449794e+002,6.122046e+001
6.459437e+002,5.841040e+001
6.469079e+002,5.460461e+001
6.478721e+002,5.026196e+001
6.488364e+002,4.601514e+001
6.498006e+002,4.304590e+001
6.507648e+002,4.392432e+001
6.517291e+002,4.707861e+001
6.526933e+002,4.933655e+001
6.536575e+002,5.004395e+001
6.546218e+002,4.979395e+001
6.555860e+002,4.976160e+001
6.565502e+002,4.994116e+001
6.575145e+002,5.017603e+001
6.584787e+002,5.024133e+001
6.594429e+002,5.063318e+001
6.604072e+002,5.191370e+001
6.613714e+002,5.428638e+001
6.623356e+002,5.664514e+001
6.632999e+002,5.846179e+001
6.642641e+002,5.917456e+001
6.652283e+002,5.868152e+001
6.661926e+002,5.748230e+001
6.671568e+002,5.626794e+001
6.681210e+002,5.519763e+001
6.690853e+002,5.441797e+001
6.700495e+002,5.497937e+001
6.710137e+002,5.689075e+001
6.719780e+002,5.967444e+001
6.729422e+002,6.299841e+001
6.739064e+002,6.718823e+001
6.748707e+002,6.770044e+001
6.758349e+002,6.299524e+001
6.767991e+002,5.731641e+001
6.777634e+002,5.183081e+001
6.787276e+002,4.742749e+001
6.796918e+002,4.640173e+001
6.806561e+002,5.174658e+001
6.816203e+002,5.711011e+001
6.825845e+002,6.079944e+001
6.835488e+002,6.270752e+001
6.845130e+002,6.276221e+001
6.854772e+002,6.081116e+001
6.864415e+002,5.875867e+001
6.874057e+002,6.041602e+001
6.883699e+002,6.370544e+001
6.893342e+002,6.497571e+001
6.902984e+002,6.225403e+001
6.912626e+002,5.649780e+001
6.922269e+002,5.274707e+001
6.931911e+002,5.366882e+001
6.941553e+002,5.517456e+001
6.951196e+002,5.561682e+001
6.960838e+002,5.563147e+001
6.970480e+002,5.733105e+001
6.980123e+002,6.299011e+001
6.989765e+002,6.648193e+001
6.999407e+002,6.365234e+001
7.009050e+002,5.911499e+001
7.018692e+002,5.661243e+001
7.028334e+002,5.722363e+001
7.037977e+002,5.859277e+001
7.047619e+002,5.706995e+001
7.057261e+002,5.452441e+001
7.066904e+002,5.366895e+001
7.076546e+002,5.488904e+001
7.086188e+002,5.735388e+001
7.095831e+002,5.986584e+001
7.105473e+002,6.252051e+001
7.115115e+002,6.327820e+001
7.124758e+002,6.117725e+001
7.134400e+002,5.811584e+001
7.144042e+002,5.539148e+001
7.153685e+002,5.334973e+001
7.163327e+002,5.146277e+001
7.172969e+002,4.793311e+001
7.182612e+002,4.632385e+001
7.192254e+002,4.926514e+001
7.201896e+002,5.491895e+001
7.211539e+002,5.981409e+001
7.221181e+002,6.114307e+001
7.230823e+002,5.998608e+001
7.240466e+002,5.818860e+001
7.250108e+002,5.694617e+001
7.259750e+002,6.029907e+001
7.269393e+002,7.092517e+001
7.279035e+002,8.652625e+001
7.288677e+002,9.440100e+001
7.298320e+002,9.149670e+001
7.307962e+002,8.705383e+001
7.317604e+002,8.006848e+001
7.327247e+002,7.261584e+001
7.336889e+002,6.678296e+001
7.346531e+002,6.198132e+001
7.356174e+002,5.800916e+001
7.365816e+002,5.624023e+001
7.375458e+002,5.653235e+001
7.385101e+002,5.978589e+001
7.394743e+002,6.548535e+001
7.404385e+002,7.112146e+001
7.414028e+002,7.225513e+001
7.423670e+002,6.823621e+001
7.433312e+002,6.414368e+001
7.442955e+002,6.132507e+001
7.452597e+002,6.025073e+001
7.462239e+002,6.113318e+001
7.471882e+002,6.430310e+001
7.481524e+002,6.641980e+001
7.491166e+002,6.530261e+001
7.500809e+002,6.367383e+001
7.510451e+002,6.344031e+001
7.520093e+002,6.378052e+001
7.529736e+002,6.120166e+001
7.539378e+002,5.163928e+001
7.549020e+002,4.480981e+001
7.558663e+002,4.843396e+001
7.568306e+002,5.736072e+001
7.577948e+002,6.459131e+001
7.587590e+002,6.563245e+001
7.597233e+002,6.176538e+001
7.606875e+002,5.696069e+001
7.616517e+002,5.202478e+001
7.626160e+002,5.073376e+001
7.635802e+002,5.546204e+001
7.645444e+002,6.329980e+001
7.655087e+002,6.788550e+001
7.664729e+002,6.732422e+001
7.674371e+002,6.681946e+001
7.684014e+002,6.608789e+001
7.693656e+002,6.590894e+001
7.703298e+002,6.776782e+001
7.712941e+002,7.149939e+001
7.722583e+002,7.372546e+001
7.732225e+002,6.875281e+001
7.741868e+002,6.442932e+001
7.751510e+002,6.948499e+001
7.761152e+002,8.066443e+001
7.770795e+002,8.890430e+001
7.780437e+002,8.602173e+001
7.790079e+002,7.374731e+001
7.799722e+002,6.965320e+001
7.809364e+002,7.412366e+001
7.819006e+002,7.795520e+001
7.828649e+002,7.766919e+001
7.838291e+002,7.488354e+001
7.847933e+002,7.393835e+001
7.857576e+002,7.586584e+001
7.867218e+002,7.569775e+001
7.876860e+002,7.228369e+001
7.886503e+002,6.839746e+001
7.896145e+002,6.598535e+001
7.905787e+002,6.563293e+001
7.915430e+002,6.687976e+001
7.925072e+002,6.991113e+001
7.934714e+002,7.257544e+001
7.944357e+002,7.326770e+001
7.953999e+002,7.248328e+001
7.963641e+002,7.134033e+001
7.973284e+002,7.071997e+001
7.982926e+002,7.057593e+001
7.992568e+002,7.273059e+001
8.002211e+002,7.783032e+001
8.011853e+002,8.025342e+001
8.021495e+002,7.840369e+001
8.031138e+002,7.426721e+001
8.040780e+002,7.137085e+001
8.050422e+002,6.869373e+001
8.060065e+002,6.804199e+001
8.069707e+002,7.099805e+001
8.079349e+002,7.441455e+001
8.088992e+002,7.528625e+001
8.098634e+002,7.301392e+001
8.108276e+002,7.025391e+001
8.117919e+002,7.004468e+001
8.127561e+002,7.055237e+001
8.137203e+002,7.123340e+001
8.146846e+002,7.272766e+001
8.156488e+002,7.352637e+001
8.166130e+002,7.080103e+001
8.175773e+002,6.302625e+001
8.185415e+002,5.972424e+001
8.195057e+002,6.133362e+001
8.204700e+002,6.439966e+001
8.214342e+002,6.915735e+001
8.223984e+002,7.454626e+001
8.233627e+002,7.809778e+001
8.243269e+002,7.906506e+001
8.252911e+002,7.828149e+001
8.262554e+002,7.495215e+001
8.272196e+002,7.121350e+001
8.281838e+002,6.907397e+001
8.291481e+002,6.928296e+001
8.301123e+002,7.131482e+001
8.310765e+002,7.483313e+001
8.320408e+002,7.925391e+001
8.330050e+002,8.087720e+001
8.339692e+002,7.909021e+001
8.349335e+002,7.639990e+001
8.358977e+002,7.544141e+001
8.368619e+002,7.678540e+001
8.378262e+002,7.890869e+001
8.387904e+002,8.186304e+001
8.397546e+002,8.422632e+001
8.407189e+002,8.604626e+001
8.416831e+002,8.708557e+001
8.426473e+002,8.668030e+001
8.436116e+002,8.423682e+001
8.445758e+002,8.212231e+001
8.455400e+002,8.218701e+001
8.465043e+002,8.268311e+001
8.474685e+002,8.298547e+001
8.484327e+002,8.333508e+001
8.493970e+002,8.373389e+001
8.503612e+002,8.308826e+001
8.513254e+002,8.054382e+001
8.522897e+002,8.180603e+001
8.532539e+002,8.927173e+001
8.542181e+002,9.596191e+001
8.551824e+002,9.785559e+001
8.561466e+002,9.633704e+001
8.571108e+002,9.689832e+001
8.580751e+002,9.986707e+001
8.590393e+002,1.023662e+002
8.600035e+002,1.042163e+002
8.609678e+002,1.060763e+002
8.619320e+002,1.085001e+002
8.628962e+002,1.116099e+002
8.638605e+002,1.151008e+002
8.648247e+002,1.188505e+002
8.657889e+002,1.224757e+002
8.667532e+002,1.258450e+002
8.677174e+002,1.289111e+002
8.686816e+002,1.305625e+002
8.696459e+002,1.292295e+002
8.706101e+002,1.245214e+002
8.715743e+002,1.230433e+002
8.725386e+002,1.279396e+002
8.735028e+002,1.319094e+002
8.744670e+002,1.304988e+002
8.754313e+002,1.264569e+002
8.763955e+002,1.262693e+002
8.773597e+002,1.335227e+002
8.783240e+002,1.411666e+002
8.792882e+002,1.431151e+002
8.802524e+002,1.430592e+002
8.812167e+002,1.447367e+002
8.821809e+002,1.485236e+002
8.831451e+002,1.516919e+002
8.841094e+002,1.506223e+002
8.850736e+002,1.461599e+002
8.860378e+002,1.456304e+002
8.870021e+002,1.490336e+002
8.879663e+002,1.537502e+002
8.889305e+002,1.590020e+002
8.898948e+002,1.641686e+002
8.908590e+002,1.671014e+002
8.918232e+002,1.670916e+002
8.927875e+002,1.668864e+002
8.937517e+002,1.658824e+002
8.947159e+002,1.658300e+002
8.956802e+002,1.685668e+002
8.966444e+002,1.735736e+002
8.976086e+002,1.774207e+002
8.985729e+002,1.768158e+002
8.995371e+002,1.743132e+002
9.005013e+002,1.733313e+002
9.014656e+002,1.741572e+002
9.024298e+002,1.759170e+002
9.033940e+002,1.774926e+002
9.043583e+002,1.784496e+002
9.053225e+002,1.800909e+002
9.062867e+002,1.827507e+002
9.072510e+002,1.845759e+002
9.082152e+002,1.862554e+002
9.091794e+002,1.882708e+002
9.101437e+002,1.915355e+002
9.111079e+002,1.961484e+002
9.120721e+002,1.987152e+002
9.130364e+002,1.939258e+002
9.140006e+002,1.878507e+002
9.149648e+002,1.838529e+002
9.159291e+002,1.825189e+002
9.168933e+002,1.836785e+002
9.178575e+002,1.867985e+002
9.188218e+002,1.906954e+002
9.197860e+002,1.928196e+002
9.207502e+002,1.929966e+002
9.217145e+002,1.895562e+002
9.226787e+002,1.809231e+002
9.236429e+002,1.714642e+002
9.246072e+002,1.666344e+002
9.255714e+002,1.666826e+002
9.265356e+002,1.669512e+002
9.274999e+002,1.674155e+002
9.284641e+002,1.665249e+002
9.294283e+002,1.632100e+002
9.303926e+002,1.588334e+002
9.313568e+002,1.554634e+002
9.323210e+002,1.541097e+002
9.332853e+002,1.537887e+002
9.342495e+002,1.535204e+002
9.352137e+002,1.529366e+002
9.361780e+002,1.522708e+002
9.371422e+002,1.520924e+002
9.381064e+002,1.517356e+002
9.390707e+002,1.492256e+002
9.400349e+002,1.429152e+002
9.409991e+002,1.403649e+002
9.419634e+002,1.436951e+002
9.429276e+002,1.471017e+002
9.438918e+002,1.496589e+002
9.448561e+002,1.514708e+002
9.458203e+002,1.527185e+002
9.467845e+002,1.535283e+002
9.477488e+002,1.546743e+002
9.487130e+002,1.573473e+002
9.496772e+002,1.598301e+002
9.506415e+002,1.602239e+002
9.516057e+002,1.588323e+002
9.525699e+002,1.577517e+002
9.535342e+002,1.590104e+002
9.544984e+002,1.616860e+002
9.554626e+002,1.595250e+002
9.564269e+002,1.522323e+002
9.573911e+002,1.477029e+002
9.583553e+002,1.494510e+002
9.593196e+002,1.540811e+002
9.602838e+002,1.560532e+002
9.612480e+002,1.542816e+002
9.622123e+002,1.524065e+002
9.631765e+002,1.516207e+002
9.641407e+002,1.513523e+002
9.651050e+002,1.517162e+002
9.660692e+002,1.518228e+002
9.670334e+002,1.503400e+002
9.679977e+002,1.468054e+002
9.689619e+002,1.432299e+002
9.699261e+002,1.425593e+002
9.708904e+002,1.436064e+002
9.718546e+002,1.452002e+002
9.728188e+002,1.467683e+002
9.737831e+002,1.487517e+002
9.747473e+002,1.521982e+002
9.757115e+002,1.576613e+002
9.766758e+002,1.630199e+002
9.776400e+002,1.700537e+002
9.786042e+002,1.760431e+002
9.795685e+002,1.809517e+002
9.805327e+002,1.830948e+002
9.814969e+002,1.803406e+002
9.824612e+002,1.724283e+002
9.834254e+002,1.632036e+002
9.843896e+002,1.542887e+002
9.853539e+002,1.460131e+002
9.863181e+002,1.384891e+002
9.872823e+002,1.317064e+002
9.882466e+002,1.271156e+002
9.892108e+002,1.267612e+002
9.901750e+002,1.310277e+002
9.911393e+002,1.352966e+002
9.921035e+002,1.372869e+002
9.930677e+002,1.387537e+002
9.940320e+002,1.394510e+002
9.949962e+002,1.413458e+002
9.959604e+002,1.463396e+002
9.969247e+002,1.546318e+002
9.978889e+002,1.646178e+002
9.988531e+002,1.763748e+002
9.998174e+002,1.862675e+002
1.000782e+003,1.927397e+002
1.001746e+003,1.971401e+002
1.002710e+003,2.012662e+002
1.003674e+003,2.057173e+002
1.004639e+003,2.093430e+002
1.005603e+003,2.100404e+002
1.006567e+003,2.071770e+002
1.007531e+003,2.048802e+002
1.008495e+003,2.033268e+002
1.009460e+003,2.021874e+002
1.010424e+003,2.016396e+002
1.011388e+003,2.017026e+002
1.012352e+003,2.020688e+002
1.013317e+003,2.038042e+002
1.014281e+003,2.023214e+002
1.015245e+003,1.944196e+002
1.016209e+003,1.844852e+002
1.017174e+003,1.759930e+002
1.018138e+003,1.691300e+002
1.019102e+003,1.614730e+002
1.020066e+003,1.509833e+002
1.021031e+003,1.396785e+002
1.021995e+003,1.324645e+002
1.022959e+003,1.277887e+002
1.023923e+003,1.225013e+002
1.024887e+003,1.156060e+002
1.025852e+003,1.072595e+002
1.026816e+003,9.715063e+001
1.027780e+003,8.460876e+001
1.028744e+003,7.638464e+001
1.029709e+003,7.549609e+001
1.030673e+003,7.563257e+001
1.031637e+003,7.505139e+001
1.032601e+003,7.391809e+001
1.033566e+003,7.318262e+001
1.034530e+003,7.336169e+001
1.035494e+003,7.371228e+001
1.036458e+003,7.313733e+001
1.037422e+003,7.171338e+001
1.038387e+003,6.929724e+001
1.039351e+003,6.600476e+001
1.040315e+003,6.381763e+001
1.041279e+003,6.464392e+001
1.042244e+003,6.805579e+001
1.043208e+003,7.044238e+001
1.044172e+003,6.987512e+001
1.045136e+003,7.011938e+001
1.046101e+003,7.311377e+001
1.047065e+003,7.577283e+001
1.048029e+003,7.512549e+001
1.048993e+003,7.191528e+001
1.049958e+003,7.013635e+001
1.050922e+003,7.257764e+001
1.051886e+003,7.582178e+001
1.052850e+003,7.603296e+001
1.053814e+003,7.474573e+001
1.054779e+003,7.350537e+001
1.055743e+003,7.272375e+001
1.056707e+003,7.251025e+001
1.057671e+003,7.302881e+001
1.058636e+003,7.413733e+001
1.059600e+003,7.609473e+001
1.060564e+003,8.264880e+001
1.061528e+003,8.646924e+001
1.062493e+003,8.434351e+001
1.063457e+003,7.907361e+001
1.064421e+003,7.328857e+001
1.065385e+003,6.771448e+001
1.066349e+003,6.451636e+001
1.067314e+003,6.616687e+001
1.068278e+003,6.914099e+001
1.069242e+003,7.180762e+001
1.070206e+003,7.405481e+001
1.071171e+003,7.542761e+001
1.072135e+003,7.549963e+001
1.073099e+003,7.425317e+001
1.074063e+003,7.207239e+001
1.075028e+003,6.899023e+001
1.075992e+003,6.912146e+001
1.076956e+003,7.470044e+001
1.077920e+003,7.806848e+001
1.078885e+003,7.610413e+001
1.079849e+003,7.123755e+001
1.080813e+003,6.707532e+001
1.081777e+003,6.406567e+001
1.082741e+003,6.259338e+001
1.083706e+003,6.189136e+001
1.084670e+003,6.230469e+001
1.085634e+003,6.620081e+001
1.086598e+003,7.107434e+001
1.087563e+003,7.191687e+001
1.088527e+003,6.657861e+001
1.089491e+003,5.928467e+001
1.090455e+003,5.743750e+001
1.091420e+003,6.121423e+001
1.092384e+003,6.358643e+001
1.093348e+003,6.404993e+001
1.094312e+003,6.306824e+001
1.095276e+003,6.074744e+001
1.096241e+003,5.804456e+001
1.097205e+003,5.650208e+001
1.098169e+003,5.561755e+001
1.099133e+003,5.627466e+001
1.100098e+003,6.167346e+001
1.101062e+003,6.661401e+001
1.102026e+003,6.661975e+001
1.102990e+003,6.356006e+001
1.103955e+003,6.250757e+001
1.104919e+003,6.636292e+001
1.105883e+003,7.216223e+001
1.106847e+003,7.381946e+001
1.107812e+003,7.109509e+001
1.108776e+003,6.927234e+001
1.109740e+003,6.887488e+001
1.110704e+003,6.877368e+001
1.111668e+003,6.802539e+001
1.112633e+003,6.763831e+001
1.113597e+003,7.072156e+001
1.114561e+003,7.955481e+001
1.115525e+003,8.564954e+001
1.116490e+003,8.371655e+001
1.117454e+003,8.091943e+001
1.118418e+003,8.279358e+001
1.119382e+003,8.863696e+001
1.120347e+003,9.411816e+001
1.121311e+003,9.602869e+001
1.122275e+003,9.542188e+001
1.123239e+003,9.598853e+001
1.124203e+003,9.870337e+001
1.125168e+003,1.038130e+002
1.126132e+003,1.132314e+002
1.127096e+003,1.207363e+002
1.128060e+003,1.190247e+002
1.129025e+003,1.103627e+002
1.129989e+003,1.070150e+002
1.130953e+003,1.112014e+002
1.131917e+003,1.169740e+002
1.132882e+003,1.251901e+002
1.133846e+003,1.324686e+002
1.134810e+003,1.355782e+002
1.135774e+003,1.362417e+002
1.136739e+003,1.381957e+002
1.137703e+003,1.435221e+002
1.138667e+003,1.515826e+002
1.139631e+003,1.617775e+002
1.140595e+003,1.739784e+002
1.141560e+003,1.870807e+002
1.142524e+003,2.007083e+002
1.143488e+003,2.185430e+002
1.144452e+003,2.444247e+002
1.145417e+003,2.763062e+002
1.146381e+003,3.064373e+002
1.147345e+003,3.331057e+002
1.148309e+003,3.614753e+002
1.149274e+003,3.921913e+002
1.150238e+003,4.261226e+002
1.151202e+003,4.663759e+002
1.152166e+003,5.103802e+002
1.153130e+003,5.555037e+002
1.154095e+003,5.990206e+002
1.155059e+003,6.337565e+002
1.156023e+003,6.498740e+002
1.156987e+003,6.483606e+002
1.157952e+003,6.429938e+002
1.158916e+003,6.357144e+002
1.159880e+003,6.227627e+002
1.160844e+003,5.989454e+002
1.161809e+003,5.663884e+002
1.162773e+003,5.322469e+002
1.163737e+003,4.969948e+002
1.164701e+003,4.585231e+002
1.165666e+003,4.093123e+002
1.166630e+003,3.652814e+002
1.167594e+003,3.329552e+002
1.168558e+003,3.089552e+002
1.169522e+003,2.882598e+002
1.170487e+003,2.693523e+002
1.171451e+003,2.552729e+002
1.172415e+003,2.495975e+002
1.173379e+003,2.509912e+002
1.174344e+003,2.546748e+002
1.175308e+003,2.615632e+002
1.176272e+003,2.634534e+002
1.177236e+003,2.550100e+002
1.178201e+003,2.428491e+002
1.179165e+003,2.356584e+002
1.180129e+003,2.329703e+002
1.181093e+003,2.261318e+002
1.182057e+003,2.086295e+002
1.183022e+003,1.948130e+002
1.183986e+003,1.920745e+002
1.184950e+003,1.936412e+002
1.185914e+003,1.933485e+002
1.186879e+003,1.906074e+002
1.187843e+003,1.886354e+002
1.188807e+003,1.898606e+002
1.189771e+003,1.929061e+002
1.190736e+003,1.946804e+002
1.191700e+003,1.950649e+002
1.192664e+003,1.941938e+002
1.193628e+003,1.919711e+002
1.194593e+003,1.895337e+002
1.195557e+003,1.874716e+002
1.196521e+003,1.855873e+002
1.197485e+003,1.839344e+002
1.198449e+003,1.834044e+002
1.199414e+003,1.806932e+002
1.200378e+003,1.722845e+002
1.201342e+003,1.631823e+002
1.202306e+003,1.559280e+002
1.203271e+003,1.501702e+002
1.204235e+003,1.447408e+002
1.205199e+003,1.391852e+002
1.206163e+003,1.340408e+002
1.207128e+003,1.301912e+002
1.208092e+003,1.278523e+002
1.209056e+003,1.228600e+002
1.210020e+003,1.148450e+002
1.210984e+003,1.057031e+002
1.211949e+003,9.524658e+001
1.212913e+003,8.405640e+001
1.213877e+003,7.247961e+001
1.214841e+003,6.085168e+001
1.215806e+003,5.206067e+001
1.216770e+003,4.911755e+001
1.217734e+003,4.591125e+001
1.218698e+003,3.617358e+001
1.219663e+003,2.440186e+001
1.220627e+003,1.645557e+001
1.221591e+003,1.315857e+001
1.222555e+003,1.125720e+001
1.223520e+003,7.860474e+000
1.224484e+003,3.759766e+000
1.225448e+003,1.480835e+000
1.226412e+003,2.223755e+000
1.227376e+003,1.797485e+000
1.228341e+003,-2.186768e+000
1.229305e+003,-5.089355e+000
1.230269e+003,-3.071777e+000
1.231233e+003,1.374756e+000
1.232198e+003,3.015015e+000
1.233162e+003,6.666260e-001
1.234126e+003,-1.491211e+000
1.235090e+003,-5.670166e-001
1.236055e+003,1.205444e+000
1.237019e+003,1.820923e+000
1.237983e+003,1.154541e+000
1.238947e+003,-5.720215e-001
1.239911e+003,-2.930908e+000
1.240876e+003,-5.060059e+000
1.241840e+003,-6.109009e+000
1.242804e+003,-6.060547e+000
1.243768e+003,-4.655518e+000
1.244733e+003,2.307129e-002
1.245697e+003,3.578369e+000
1.246661e+003,3.970703e+000
1.247625e+003,3.485474e+000
1.248590e+003,4.460938e+000
1.249554e+003,6.901123e+000
1.250518e+003,8.975098e+000
1.251482e+003,9.452637e+000
1.252447e+003,9.578003e+000
1.253411e+003,1.165796e+001
1.254375e+003,1.505823e+001
1.255339e+003,1.785742e+001
1.256303e+003,2.025330e+001
1.257268e+003,2.271021e+001
1.258232e+003,2.485583e+001
1.259196e+003,2.654553e+001
1.260160e+003,2.844373e+001
1.261125e+003,3.105151e+001
1.262089e+003,3.433167e+001
1.263053e+003,3.737439e+001
1.264017e+003,4.104712e+001
1.264982e+003,4.717383e+001
1.265946e+003,5.332471e+001
1.266910e+003,5.740063e+001
1.267874e+003,5.918213e+001
1.268839e+003,5.950354e+001
1.269803e+003,5.893079e+001
1.270767e+003,5.759290e+001
1.271731e+003,5.585242e+001
1.272695e+003,5.390674e+001
1.273660e+003,5.085571e+001
1.274624e+003,4.545715e+001
1.275588e+003,3.945776e+001
1.276552e+003,3.446863e+001
1.277517e+003,3.033093e+001
1.278481e+003,2.552625e+001
1.279445e+003,1.958813e+001
1.280409e+003,1.562585e+001
1.281374e+003,1.651782e+001
1.282338e+003,1.734241e+001
1.283302e+003,1.374658e+001
1.284266e+003,9.606567e+000
1.285230e+003,1.088989e+001
1.286195e+003,1.692932e+001
1.287159e+003,2.086548e+001
1.288123e+003,1.729224e+001
1.289087e+003,9.247559e+000
1.290052e+003,4.829224e+000
1.291016e+003,4.632202e+000
1.291980e+003,4.463379e+000
1.292944e+003,4.942749e+000
1.293909e+003,3.587036e+000
1.294873e+003,-1.923218e+000
1.295837e+003,-8.082153e+000
1.296801e+003,-9.666260e+000
1.297766e+003,-6.308350e+000
1.298730e+003,-3.276123e+000
1.299694e+003,-3.935669e+000
1.300658e+003,-5.742920e+000
1.301622e+003,-5.302368e+000
1.302587e+003,-3.692505e+000
1.303551e+003,-3.113403e+000
1.304515e+003,-3.622314e+000
1.305479e+003,-3.340698e+000
1.306444e+003,-9.243164e-001
1.307408e+003,2.686646e+000
1.308372e+003,5.363647e+000
1.309336e+003,7.363037e+000
1.310301e+003,7.378662e+000
1.311265e+003,2.835327e+000
1.312229e+003,1.784668e-001
1.313193e+003,3.431030e+000
1.314157e+003,7.807983e+000
1.315122e+003,7.170654e+000
1.316086e+003,1.730347e+000
1.317050e+003,-2.385742e+000
1.318014e+003,-7.269287e-001
1.318979e+003,3.140747e+000
1.319943e+003,1.776245e+000
1.320907e+003,-3.703979e+000
1.321871e+003,-5.241699e+000
1.322836e+003,-2.281128e+000
1.323800e+003,7.866211e-001
1.324764e+003,1.770142e+000
1.325728e+003,1.597412e+000
1.326693e+003,1.194702e+000
1.327657e+003,2.390137e-001
1.328621e+003,3.980713e-001
1.329585e+003,4.804932e+000
1.330549e+003,9.303833e+000
1.331514e+003,8.899292e+000
1.332478e+003,7.151123e+000
1.333442e+003,9.087891e+000
1.334406e+003,1.394519e+001
1.335371e+003,1.647803e+001
1.336335e+003,1.358020e+001
1.337299e+003,8.249268e+000
1.338263e+003,6.016968e+000
1.339228e+003,7.330811e+000
1.340192e+003,7.769165e+000
1.341156e+003,5.926758e+000
1.342120e+003,5.268188e+000
1.343084e+003,6.567627e+000
1.344049e+003,7.875000e+000
1.345013e+003,8.429321e+000
1.345977e+003,8.406128e+000
1.346941e+003,7.642090e+000
1.347906e+003,5.956787e+000
1.348870e+003,4.496704e+000
1.349834e+003,4.372559e+000
1.350798e+003,4.605469e+000
1.351763e+003,4.013550e+000
1.352727e+003,2.809082e+000
1.353691e+003,1.110229e+000
1.354655e+003,-1.293457e+000
1.355620e+003,-3.021729e+000
1.356584e+003,-1.490356e+000
1.357548e+003,2.906128e+000
1.358512e+003,4.293823e+000
1.359476e+003,-1.674805e-001
1.360441e+003,-2.820313e+000
1.361405e+003,4.490967e-001
1.362369e+003,4.214600e+000
1.363333e+003,6.853760e+000
1.364298e+003,7.895874e+000
1.365262e+003,6.199341e+000
1.366226e+003,2.250610e+000
1.367190e+003,-8.830566e-001
1.368155e+003,-4.238281e-001
1.369119e+003,2.236572e+000
1.370083e+003,2.783447e+000
1.371047e+003,7.500000e-001
1.372011e+003,-8.898926e-002
1.372976e+003,-3.254395e-001
1.373940e+003,-3.417969e-003
1.374904e+003,1.529785e+000
1.375868e+003,3.716309e+000
1.376833e+003,5.940063e+000
1.377797e+003,7.824097e+000
1.378761e+003,8.673096e+000
1.379725e+003,8.354614e+000
1.380690e+003,6.946411e+000
1.381654e+003,2.063232e+000
1.382618e+003,-2.311279e+000
1.383582e+003,8.477783e-001
1.384547e+003,1.078650e+001
1.385511e+003,1.979724e+001
1.386475e+003,2.398926e+001
1.387439e+003,2.448816e+001
1.388403e+003,2.226440e+001
1.389368e+003,1.726672e+001
1.390332e+003,1.371021e+001
1.391296e+003,1.268628e+001
1.392260e+003,1.200269e+001
1.393225e+003,1.022205e+001
1.394189e+003,9.262451e+000
1.395153e+003,1.077515e+001
1.396117e+003,1.364380e+001
1.397082e+003,1.679309e+001
1.398046e+003,1.956323e+001
1.399010e+003,2.049341e+001
1.399974e+003,1.774561e+001
1.400938e+003,1.242627e+001
1.401903e+003,1.016016e+001
1.402867e+003,1.361206e+001
1.403831e+003,1.622827e+001
1.404795e+003,1.645728e+001
1.405760e+003,1.642871e+001
1.406724e+003,1.476013e+001
1.407688e+003,1.261328e+001
1.408652e+003,1.323315e+001
1.409617e+003,1.673083e+001
1.410581e+003,1.932654e+001
1.411545e+003,1.939868e+001
1.412509e+003,1.880017e+001
1.413474e+003,1.872986e+001
1.414438e+003,1.840466e+001
1.415402e+003,1.769324e+001
1.416366e+003,1.718188e+001
1.417330e+003,1.742969e+001
1.418295e+003,1.890698e+001
1.419259e+003,2.032690e+001
1.420223e+003,1.949817e+001
1.421187e+003,1.650623e+001
1.422152e+003,1.414453e+001
1.423116e+003,1.278491e+001
1.424080e+003,1.339270e+001
1.425044e+003,1.754626e+001
1.426009e+003,2.109448e+001
1.426973e+003,2.153455e+001
1.427937e+003,2.082288e+001
1.428901e+003,2.153406e+001
1.429865e+003,2.413928e+001
1.430830e+003,2.770605e+001
1.431794e+003,3.127930e+001
1.432758e+003,3.369189e+001
1.433722e+003,3.307813e+001
1.434687e+003,2.974475e+001
1.435651e+003,3.163879e+001
1.436615e+003,4.098767e+001
1.437579e+003,4.795007e+001
1.438544e+003,5.241296e+001
1.439508e+003,5.405835e+001
1.440472e+003,5.165723e+001
1.441436e+003,4.747546e+001
1.442401e+003,4.487268e+001
1.443365e+003,4.447070e+001
1.444329e+003,4.507117e+001
1.445293e+003,4.628003e+001
1.446257e+003,4.744824e+001
1.447222e+003,4.645007e+001
1.448186e+003,4.373169e+001
1.449150e+003,4.249097e+001
1.450114e+003,4.326038e+001
1.451079e+003,4.353381e+001
1.452043e+003,4.238159e+001
1.453007e+003,4.064063e+001
1.453971e+003,3.874524e+001
1.454936e+003,3.654053e+001
1.455900e+003,3.434607e+001
1.456864e+003,3.191187e+001
1.457828e+003,3.188000e+001
1.458792e+003,3.867749e+001
1.459757e+003,4.505920e+001
1.460721e+003,4.379712e+001
1.461685e+003,3.793042e+001
1.462649e+003,3.409082e+001
1.463614e+003,3.427722e+001
1.464578e+003,3.623328e+001
1.465542e+003,3.806921e+001
1.466506e+003,3.915259e+001
1.467471e+003,3.785852e+001
1.468435e+003,3.395435e+001
1.469399e+003,3.254785e+001
1.470363e+003,3.446130e+001
1.471328e+003,3.665344e+001
1.472292e+003,3.836792e+001
1.473256e+003,3.898169e+001
1.474220e+003,3.827026e+001
1.475184e+003,3.750403e+001
1.476149e+003,3.843030e+001
1.477113e+003,4.100085e+001
1.478077e+003,4.309827e+001
1.479041e+003,4.309436e+001
1.480006e+003,4.253027e+001
1.480970e+003,4.535168e+001
1.481934e+003,5.224927e+001
1.482898e+003,5.667834e+001
1.483863e+003,5.642383e+001
1.484827e+003,5.678308e+001
1.485791e+003,6.035559e+001
1.486755e+003,6.511987e+001
1.487719e+003,6.867334e+001
1.488684e+003,7.114636e+001
1.489648e+003,7.419885e+001
1.490612e+003,7.867163e+001
1.491576e+003,8.402747e+001
1.492541e+003,8.973779e+001
1.493505e+003,9.539111e+001
1.494469e+003,9.991785e+001
1.495433e+003,1.029423e+002
1.496398e+003,1.065839e+002
1.497362e+003,1.121632e+002
1.498326e+003,1.184204e+002
1.499290e+003,1.230935e+002
1.500255e+003,1.289769e+002
1.501219e+003,1.403042e+002
1.502183e+003,1.561947e+002
1.503147e+003,1.718563e+002
1.504111e+003,1.858210e+002
1.505076e+003,2.016552e+002
1.506040e+003,2.215663e+002
1.507004e+003,2.446295e+002
1.507968e+003,2.692571e+002
1.508933e+003,2.961262e+002
1.509897e+003,3.270968e+002
1.510861e+003,3.633640e+002
1.511825e+003,4.028845e+002
1.512790e+003,4.427521e+002
1.513754e+003,4.855099e+002
1.514718e+003,5.391198e+002
1.515682e+003,6.028053e+002
1.516646e+003,6.614509e+002
1.517611e+003,7.147959e+002
1.518575e+003,7.627675e+002
1.519539e+003,8.062979e+002
1.520503e+003,8.448610e+002
1.521468e+003,8.805413e+002
1.522432e+003,9.091292e+002
1.523396e+003,9.248027e+002
1.524360e+003,9.271379e+002
1.525325e+003,9.206249e+002
1.526289e+003,9.084156e+002
1.527253e+003,8.890992e+002
1.528217e+003,8.593346e+002
1.529182e+003,8.196162e+002
1.530146e+003,7.764603e+002
1.531110e+003,7.301174e+002
1.532074e+003,6.781000e+002
1.533039e+003,6.177500e+002
1.534003e+003,5.523368e+002
1.534967e+003,4.800317e+002
1.535931e+003,4.085302e+002
1.536896e+003,3.437917e+002
1.537860e+003,2.880536e+002
1.538824e+003,2.420997e+002
1.539788e+003,2.059059e+002
1.540752e+003,1.786912e+002
1.541717e+003,1.604539e+002
1.542681e+003,1.498802e+002
1.543645e+003,1.356859e+002
1.544609e+003,1.145875e+002
1.545573e+003,1.005966e+002
1.546538e+003,9.596069e+001
1.547502e+003,9.329761e+001
1.548466e+003,9.229407e+001
1.549430e+003,9.177148e+001
1.550395e+003,8.951282e+001
1.551359e+003,8.599158e+001
1.552323e+003,8.410107e+001
1.553287e+003,8.478784e+001
1.554252e+003,8.519873e+001
1.555216e+003,8.282263e+001
1.556180e+003,7.821680e+001
1.557144e+003,7.235217e+001
1.558109e+003,6.544739e+001
1.559073e+003,5.961890e+001
1.560037e+003,5.406042e+001
1.561001e+003,4.931152e+001
1.561966e+003,4.606799e+001
1.562930e+003,4.494629e+001
1.563894e+003,4.702112e+001
1.564858e+003,5.071558e+001
1.565823e+003,5.246924e+001
1.566787e+003,5.163501e+001
1.567751e+003,5.131812e+001
1.568715e+003,5.384729e+001
1.569679e+003,5.664282e+001
1.570644e+003,5.569080e+001
1.571608e+003,5.190112e+001
1.572572e+003,4.859412e+001
1.573536e+003,4.622107e+001
1.574500e+003,4.739185e+001
1.575465e+003,5.530042e+001
1.576429e+003,6.278931e+001
1.577393e+003,6.202405e+001
1.578357e+003,5.723181e+001
1.579322e+003,5.775110e+001
1.580286e+003,6.398682e+001
1.581250e+003,6.944934e+001
1.582214e+003,7.219543e+001
1.583179e+003,7.368164e+001
1.584143e+003,7.466846e+001
1.585107e+003,7.448804e+001
1.586071e+003,7.296936e+001
1.587036e+003,7.099707e+001
1.588000e+003,6.876038e+001
1.588964e+003,6.570264e+001
1.589928e+003,6.399658e+001
1.590893e+003,6.619153e+001
1.591857e+003,6.971936e+001
1.592821e+003,7.007031e+001
1.593785e+003,6.818616e+001
1.594750e+003,6.927002e+001
1.595714e+003,7.416125e+001
1.596678e+003,7.864136e+001
1.597642e+003,8.095728e+001
1.598606e+003,8.262720e+001
1.599571e+003,8.473267e+001
1.600535e+003,8.744092e+001
1.601499e+003,9.142712e+001
1.602463e+003,9.604163e+001
1.603427e+003,9.894812e+001
1.604392e+003,9.923596e+001
1.605356e+003,9.783142e+001
1.606320e+003,9.509155e+001
1.607284e+003,9.164429e+001
1.608249e+003,8.905676e+001
1.609213e+003,8.734961e+001
1.610177e+003,8.653088e+001
1.611141e+003,8.721155e+001
1.612106e+003,8.731812e+001
1.613070e+003,8.571704e+001
1.614034e+003,8.310254e+001
1.614998e+003,7.897717e+001
1.615963e+003,7.464258e+001
1.616927e+003,7.177832e+001
1.617891e+003,7.066809e+001
1.618855e+003,7.171741e+001
1.619820e+003,7.536328e+001
1.620784e+003,7.833533e+001
1.621748e+003,7.616296e+001
1.622712e+003,7.071985e+001
1.623677e+003,6.832349e+001
1.624641e+003,6.936633e+001
1.625605e+003,7.199475e+001
1.626569e+003,7.550549e+001
1.627533e+003,7.789319e+001
1.628498e+003,7.949182e+001
1.629462e+003,7.997058e+001
1.630426e+003,7.723926e+001
1.631390e+003,7.329016e+001
1.632354e+003,7.302002e+001
1.633319e+003,7.718030e+001
1.634283e+003,8.127563e+001
1.635247e+003,8.198071e+001
1.636211e+003,8.033765e+001
1.637176e+003,7.793848e+001
1.638140e+003,7.520886e+001
1.639104e+003,7.475708e+001
1.640068e+003,7.737598e+001
1.641033e+003,7.817993e+001
1.641997e+003,7.384814e+001
1.642961e+003,7.117981e+001
1.643925e+003,7.584814e+001
1.644890e+003,8.166577e+001
1.645854e+003,8.133679e+001
1.646818e+003,7.682825e+001
1.647782e+003,7.480188e+001
1.648747e+003,7.720740e+001
1.649711e+003,8.086719e+001
1.650675e+003,8.387244e+001
1.651639e+003,8.613892e+001
1.652604e+003,8.655005e+001
1.653568e+003,8.481580e+001
1.654532e+003,8.189319e+001
1.655496e+003,7.706763e+001
1.656460e+003,7.400098e+001
1.657425e+003,7.680212e+001
1.658389e+003,7.791687e+001
1.659353e+003,7.089270e+001
1.660317e+003,6.193140e+001
1.661281e+003,5.799170e+001
1.662246e+003,5.790942e+001
1.663210e+003,5.644629e+001
1.664174e+003,5.217004e+001
1.665138e+003,4.892065e+001
1.666103e+003,5.008630e+001
1.667067e+003,5.328650e+001
1.668031e+003,5.419666e+001
1.668995e+003,5.308496e+001
1.669960e+003,5.160828e+001
1.670924e+003,4.971948e+001
1.671888e+003,4.895874e+001
1.672852e+003,5.034387e+001
1.673817e+003,5.150513e+001
1.674781e+003,5.060059e+001
1.675745e+003,4.886316e+001
1.676709e+003,4.768054e+001
1.677674e+003,4.683533e+001
1.678638e+003,4.504785e+001
1.679602e+003,4.197034e+001
1.680566e+003,3.946436e+001
1.681531e+003,3.941003e+001
1.682495e+003,4.098218e+001
1.683459e+003,4.243018e+001
1.684423e+003,4.338501e+001
1.685387e+003,4.410242e+001
1.686352e+003,4.510657e+001
1.687316e+003,4.294116e+001
1.688280e+003,3.391650e+001
1.689244e+003,2.628662e+001
1.690208e+003,2.793591e+001
1.691173e+003,3.274402e+001
1.692137e+003,3.485767e+001
1.693101e+003,3.498694e+001
1.694065e+003,3.490137e+001
1.695030e+003,3.447693e+001
1.695994e+003,3.369189e+001
1.696958e+003,3.284802e+001
1.697922e+003,3.190576e+001
1.698887e+003,3.083533e+001
1.699851e+003,2.976208e+001
1.700815e+003,2.838757e+001
1.701779e+003,2.644019e+001
1.702744e+003,2.473438e+001
1.703708e+003,2.402173e+001
1.704672e+003,2.438013e+001
1.705636e+003,2.544299e+001
1.706601e+003,2.638098e+001
1.707565e+003,2.758508e+001
1.708529e+003,2.887732e+001
1.709493e+003,2.784143e+001
1.710458e+003,2.381958e+001
1.711422e+003,2.019336e+001
1.712386e+003,1.849402e+001
1.713350e+003,1.841809e+001
1.714314e+003,2.030359e+001
1.715279e+003,2.224646e+001
1.716243e+003,2.098511e+001
1.717207e+003,1.717200e+001
1.718171e+003,1.488171e+001
1.719135e+003,1.536646e+001
1.720100e+003,1.560254e+001
1.721064e+003,1.298962e+001
1.722028e+003,1.009473e+001
1.722992e+003,1.207068e+001
1.723957e+003,1.801953e+001
1.724921e+003,1.879041e+001
1.725885e+003,1.241162e+001
1.726849e+003,7.464355e+000
1.727814e+003,7.254150e+000
1.728778e+003,8.157593e+000
1.729742e+003,8.853027e+000
1.730706e+003,9.340332e+000
1.731671e+003,9.360718e+000
1.732635e+003,8.196777e+000
1.733599e+003,4.938477e+000
1.734563e+003,6.230469e-001
1.735528e+003,-1.268555e+000
1.736492e+003,8.139648e-001
1.737456e+003,3.967529e+000
1.738420e+003,4.877686e+000
1.739385e+003,3.454468e+000
1.740349e+003,8.715820e-001
1.741313e+003,-3.102051e+000
1.742277e+003,-4.809570e+000
1.743241e+003,-1.922974e+000
1.744206e+003,3.631592e-001
1.745170e+003,3.732910e-001
1.746134e+003,2.142334e-001
1.747098e+003,7.813721e-001
1.748063e+003,1.911987e+000
1.749027e+003,4.112915e+000
1.749991e+003,6.625244e+000
1.750955e+003,7.327515e+000
1.751919e+003,5.630859e+000
1.752884e+003,3.252319e+000
1.753848e+003,1.590088e+000
1.754812e+003,6.993408e-001
1.755776e+003,1.372803e+000
1.756741e+003,4.005493e+000
1.757705e+003,4.614868e+000
1.758669e+003,1.463867e+000
1.759633e+003,1.770020e-002
1.760598e+003,1.583496e+000
1.761562e+003,2.941528e+000
1.762526e+003,5.272095e+000
1.763490e+003,6.018555e+000
1.764455e+003,1.052124e+000
1.765419e+003,-5.354248e+000
1.766383e+003,-6.262329e+000
1.767347e+003,-1.993286e+000
1.768312e+003,1.885254e+000
1.769276e+003,2.625610e+000
1.770240e+003,9.318848e-001
1.771204e+003,-2.545898e+000
1.772168e+003,-6.140137e+000
1.773133e+003,-7.007324e+000
1.774097e+003,-5.444580e+000
1.775061e+003,-4.235840e+000
1.776025e+003,-4.294922e+000
1.776990e+003,-4.271606e+000
1.777954e+003,-3.134155e+000
1.778918e+003,-1.139526e+000
1.779882e+003,1.786011e+000
1.780846e+003,4.181152e+000
1.781811e+003,4.702637e+000
1.782775e+003,3.775391e+000
1.783739e+003,1.873413e+000
1.784703e+003,-9.741211e-001
1.785668e+003,-2.012207e+000
1.786632e+003,1.237061e+000
1.787596e+003,3.422241e+000
1.788560e+003,-3.671875e-001
1.789525e+003,-5.359375e+000
1.790489e+003,-5.209473e+000
1.791453e+003,-1.318115e+000
1.792417e+003,2.097412e+000
1.793382e+003,3.924316e+000
1.794346e+003,3.331665e+000
1.795310e+003,-3.907471e-001
1.796274e+003,-4.542358e+000
1.797239e+003,-5.719482e+000
1.798203e+003,-3.978882e+000
1.799167e+003,-1.555054e+000
1.800131e+003,5.335693e-001
1.801095e+003,2.045654e+000
1.802060e+003,5.956665e+000
1.803024e+003,6.856445e+000
1.803988e+003,-5.354004e-001
1.804952e+003,-5.994629e+000
1.805917e+003,-2.044312e+000
1.806881e+003,3.881226e+000
1.807845e+003,3.831177e+000
1.808809e+003,2.441406e-002
1.809773e+003,-1.786987e+000
1.810738e+003,-1.911621e-001
1.811702e+003,3.166870e+000
1.812666e+003,7.110840e+000
1.813630e+003,1.003723e+001
1.814595e+003,9.646729e+000
1.815559e+003,6.480957e+000
1.816523e+003,3.117432e+000
1.817487e+003,-4.274902e-001
1.818452e+003,-2.402710e+000
1.819416e+003,-1.419189e+000
1.820380e+003,-1.210083e+000
1.821344e+003,-4.753052e+000
1.822309e+003,-7.650635e+000
1.823273e+003,-5.964722e+000
1.824237e+003,-2.666870e+000
1.825201e+003,-1.349243e+000
1.826166e+003,-1.386108e+000
1.827130e+003,1.793213e-001
1.828094e+003,3.555420e+000
1.829058e+003,4.749390e+000
1.830022e+003,1.138428e+000
1.830987e+003,-2.653198e+000
1.831951e+003,-1.537231e+000
1.832915e+003,8.286133e-001
1.833879e+003,-2.423462e+000
1.834844e+003,-8.932251e+000
1.835808e+003,-1.020251e+001
1.836772e+003,-5.393921e+000
1.837736e+003,-1.087158e+000
1.838700e+003,-3.760986e-001
1.839665e+003,-2.061768e+000
1.840629e+003,-5.456543e+000
1.841593e+003,-8.264160e+000
1.842557e+003,-5.369019e+000
1.843522e+003,3.064575e+000
1.844486e+003,6.762085e+000
1.845450e+003,2.901123e+000
1.846414e+003,1.092407e+000
1.847379e+003,1.365479e+000
1.848343e+003,1.762085e+000
1.849307e+003,2.376221e+000
1.850271e+003,2.883789e+000
1.851236e+003,3.696411e+000
1.852200e+003,4.425293e+000
1.853164e+003,3.695435e+000
1.854128e+003,1.350342e+000
1.855093e+003,-1.514648e+000
1.856057e+003,-3.812256e+000
1.857021e+003,-4.322632e+000
1.857985e+003,-2.042358e+000
1.858949e+003,7.398682e-001
1.859914e+003,-5.269775e-001
1.860878e+003,-4.610962e+000
1.861842e+003,-5.012817e+000
1.862806e+003,-1.797363e+000
1.863771e+003,7.117920e-001
1.864735e+003,1.521118e+000
1.865699e+003,1.788574e+000
1.866663e+003,2.273438e+000
1.867627e+003,2.902832e+000
1.868592e+003,2.952515e+000
1.869556e+003,2.454102e+000
1.870520e+003,2.926636e+000
1.871484e+003,3.949951e+000
1.872449e+003,2.697510e+000
1.873413e+003,-6.475830e-001
1.874377e+003,-1.594238e+000
1.875341e+003,-6.848145e-002
1.876306e+003,2.904785e+000
1.877270e+003,8.955322e+000
1.878234e+003,1.387573e+001
1.879198e+003,1.267590e+001
1.880163e+003,7.960571e+000
1.881127e+003,4.630615e+000
1.882091e+003,3.428833e+000
1.883055e+003,2.422119e+000
1.884020e+003,8.050537e-001
1.884984e+003,2.001953e-002
1.885948e+003,1.468750e+000
1.886912e+003,3.830566e+000
1.887876e+003,4.433960e+000
1.888841e+003,3.530640e+000
1.889805e+003,3.411011e+000
1.890769e+003,4.150391e+000
1.891733e+003,5.398438e+000
1.892698e+003,7.256348e+000
1.893662e+003,8.171265e+000
1.894626e+003,7.247925e+000
1.895590e+003,6.126953e+000
1.896554e+003,6.307495e+000
1.897519e+003,7.225464e+000
1.898483e+003,7.756714e+000
1.899447e+003,7.547852e+000
1.900411e+003,7.068115e+000
1.901376e+003,6.555664e+000
1.902340e+003,6.530640e+000
1.903304e+003,6.994751e+000
1.904268e+003,8.071411e+000
1.905233e+003,1.105518e+001
1.906197e+003,1.397046e+001
1.907161e+003,1.458545e+001
1.908125e+003,1.396167e+001
1.909090e+003,1.325037e+001
1.910054e+003,1.266687e+001
1.911018e+003,1.375586e+001
1.911982e+003,1.672278e+001
1.912947e+003,1.689404e+001
1.913911e+003,1.065540e+001
1.914875e+003,3.967041e+000
1.915839e+003,6.385010e+000
1.916803e+003,1.524255e+001
1.917768e+003,1.909985e+001
1.918732e+003,1.768420e+001
1.919696e+003,1.530701e+001
1.920660e+003,1.086230e+001
1.921625e+003,1.009534e+001
1.922589e+003,1.698328e+001
1.923553e+003,2.249768e+001
1.924517e+003,2.040625e+001
1.925481e+003,1.634143e+001
1.926446e+003,1.489075e+001
1.927410e+003,1.524048e+001
1.928374e+003,1.521948e+001
1.929338e+003,1.449353e+001
1.930303e+003,1.527100e+001
1.931267e+003,1.984375e+001
1.932231e+003,2.316138e+001
1.933195e+003,2.115686e+001
1.934160e+003,1.801489e+001
1.935124e+003,1.687366e+001
1.936088e+003,1.592712e+001
1.937052e+003,1.230994e+001
1.938017e+003,8.137817e+000
1.938981e+003,8.932861e+000
1.939945e+003,1.400085e+001
1.940909e+003,1.573816e+001
1.941874e+003,1.097046e+001
1.942838e+003,6.093140e+000
1.943802e+003,7.602417e+000
1.944766e+003,1.280432e+001
1.945730e+003,1.520325e+001
1.946695e+003,1.481909e+001
1.947659e+003,1.506580e+001
1.948623e+003,1.592627e+001
1.949587e+003,1.559021e+001
1.950552e+003,1.332520e+001
1.951516e+003,1.371375e+001
1.952480e+003,2.015173e+001
1.953444e+003,2.539612e+001
1.954408e+003,2.275720e+001
1.955373e+003,1.709204e+001
1.956337e+003,1.609241e+001
1.957301e+003,1.891235e+001
1.958265e+003,2.040979e+001
1.959230e+003,2.033289e+001
1.960194e+003,2.084375e+001
1.961158e+003,2.105042e+001
1.962122e+003,2.179749e+001
1.963087e+003,2.446130e+001
1.964051e+003,2.660730e+001
1.965015e+003,2.777576e+001
1.965979e+003,2.798303e+001
1.966944e+003,2.556018e+001
1.967908e+003,2.200671e+001
1.968872e+003,2.037646e+001
1.969836e+003,2.110266e+001
1.970801e+003,2.300500e+001
1.971765e+003,2.547339e+001
1.972729e+003,2.715723e+001
1.973693e+003,2.657959e+001
1.974657e+003,2.542139e+001
1.975622e+003,2.642444e+001
1.976586e+003,2.836548e+001
1.977550e+003,2.831006e+001
1.978514e+003,2.677734e+001
1.979479e+003,2.593738e+001
1.980443e+003,2.597766e+001
1.981407e+003,2.629382e+001
1.982371e+003,2.691309e+001
1.983335e+003,2.715710e+001
1.984300e+003,2.600317e+001
1.985264e+003,2.473938e+001
1.986228e+003,2.589856e+001
1.987192e+003,2.886755e+001
1.988157e+003,3.055969e+001
1.989121e+003,3.111646e+001
1.990085e+003,3.074731e+001
1.991049e+003,2.922485e+001
1.992014e+003,2.787964e+001
1.992978e+003,2.521484e+001
1.993942e+003,2.440210e+001
1.994906e+003,2.880859e+001
1.995871e+003,3.313086e+001
1.996835e+003,3.346484e+001
1.997799e+003,3.162463e+001
1.998763e+003,2.914648e+001
1.999728e+003,2.658704e+001
