5.003444e+002,2.253224e+002
5.013087e+002,2.234341e+002
5.022729e+002,2.192877e+002
5.032371e+002,2.143203e+002
5.042014e+002,2.110439e+002
5.051656e+002,2.093380e+002
5.061298e+002,2.078485e+002
5.070941e+002,2.051534e+002
5.080583e+002,2.005492e+002
5.090225e+002,1.966650e+002
5.099868e+002,1.935099e+002
5.109510e+002,1.907309e+002
5.119152e+002,1.885123e+002
5.128795e+002,1.869655e+002
5.138437e+002,1.847802e+002
5.148079e+002,1.802556e+002
5.157722e+002,1.764448e+002
5.167364e+002,1.751756e+002
5.177006e+002,1.759781e+002
5.186649e+002,1.761644e+002
5.196291e+002,1.719683e+002
5.205933e+002,1.669808e+002
5.215576e+002,1.645381e+002
5.225218e+002,1.643849e+002
5.234860e+002,1.647396e+002
5.244503e+002,1.630186e+002
5.254145e+002,1.591619e+002
5.263787e+002,1.570674e+002
5.273430e+002,1.581343e+002
5.283072e+002,1.600202e+002
5.292714e+002,1.589650e+002
5.302357e+002,1.518945e+002
5.311999e+002,1.464666e+002
5.321641e+002,1.453351e+002
5.331284e+002,1.459662e+002
5.340926e+002,1.470060e+002
5.350568e+002,1.478546e+002
5.360211e+002,1.455178e+002
5.369853e+002,1.340298e+002
5.379495e+002,1.214933e+002
5.389138e+002,1.148771e+002
5.398780e+002,1.165153e+002
5.408422e+002,1.232097e+002
5.418065e+002,1.272823e+002
5.427707e+002,1.289565e+002
5.437349e+002,1.290833e+002
5.446992e+002,1.275383e+002
5.456634e+002,1.245466e+002
5.466276e+002,1.210941e+002
5.475919e+002,1.165743e+002
5.485561e+002,1.128666e+002
5.495203e+002,1.098060e+002
5.504846e+002,1.071713e+002
5.514488e+002,1.052124e+002
5.524130e+002,1.053010e+002
5.533773e+002,1.039922e+002
5.543415e+002,9.759375e+001
5.553057e+002,9.019019e+001
5.562700e+002,8.637714e+001
5.572342e+002,8.884076e+001
5.581984e+002,9.412628e+001
5.591627e+002,9.432330e+001
5.601269e+002,9.145966e+001
5.610911e+002,8.842316e+001
5.620554e+002,8.647772e+001
5.630196e+002,8.528650e+001
5.639838e+002,8.391003e+001
5.649481e+002,8.250574e+001
5.659123e+002,8.077161e+001
5.668765e+002,7.903119e+001
5.678408e+002,7.772559e+001
5.688050e+002,7.721240e+001
5.697692e+002,7.735498e+001
5.707335e+002,7.675659e+001
5.716977e+002,7.577850e+001
5.726619e+002,7.410199e+001
5.736262e+002,7.093579e+001
5.745904e+002,6.546240e+001
5.755546e+002,6.008966e+001
5.765189e+002,5.808496e+001
5.774831e+002,5.791412e+001
5.784473e+002,5.788824e+001
5.794116e+002,5.710718e+001
5.803758e+002,5.596130e+001
5.813400e+002,5.437744e+001
5.823043e+002,5.144263e+001
5.832685e+002,4.828589e+001
5.842327e+002,4.521661e+001
5.851970e+002,4.282404e+001
5.861612e+002,4.258093e+001
5.871254e+002,4.672540e+001
5.880897e+002,5.010175e+001
5.890539e+002,5.200208e+001
5.900181e+002,5.210480e+001
5.909824e+002,4.987305e+001
5.919466e+002,4.410938e+001
5.929108e+002,3.845398e+001
5.938751e+002,3.732745e+001
5.948393e+002,3.858704e+001
5.958035e+002,3.879895e+001
5.967678e+002,3.556073e+001
5.977320e+002,2.990161e+001
5.986962e+002,2.827112e+001
5.996605e+002,2.973401e+001
6.006247e+002,3.208356e+001
6.015889e+002,3.551361e+001
6.025532e+002,3.981689e+001
6.035174e+002,4.112573e+001
6.044816e+002,3.559106e+001
6.054459e+002,3.119489e+001
6.064101e+002,2.892987e+001
6.073743e+002,2.853302e+001
6.083386e+002,2.949615e+001
6.093028e+002,3.222455e+001
6.102670e+002,3.542230e+001
6.112313e+002,3.883344e+001
6.121955e+002,4.157330e+001
6.131597e+002,4.205872e+001
6.141240e+002,3.926166e+001
6.150882e+002,3.435211e+001
6.160524e+002,3.318665e+001
6.170167e+002,3.535211e+001
6.179809e+002,3.736530e+001
6.189451e+002,3.748792e+001
6.199094e+002,3.560229e+001
6.208736e+002,3.288861e+001
6.218378e+002,2.773566e+001
6.228021e+002,2.490314e+001
6.237663e+002,2.673529e+001
6.247305e+002,3.083856e+001
6.256948e+002,3.283209e+001
6.266590e+002,2.942151e+001
6.276232e+002,2.611890e+001
6.285875e+002,2.815942e+001
6.295517e+002,3.195801e+001
6.305159e+002,3.321777e+001
6.314802e+002,2.956281e+001
6.324444e+002,2.309766e+001
6.334086e+002,2.058588e+001
6.343729e+002,2.114429e+001
6.353371e+002,2.142529e+001
6.363013e+002,1.999316e+001
6.372656e+002,1.737006e+001
6.382298e+002,1.593793e+001
6.391940e+002,1.789111e+001
6.401583e+002,1.763086e+001
6.411225e+002,1.378998e+001
6.420867e+002,9.499512e+000
6.430510e+002,8.574890e+000
6.440152e+002,1.275928e+001
6.449794e+002,1.568182e+001
6.459437e+002,1.332422e+001
6.469079e+002,9.227661e+000
6.478721e+002,6.149292e+000
6.488364e+002,5.188965e+000
6.498006e+002,5.286316e+000
6.507648e+002,3.979614e+000
6.517291e+002,1.929749e+000
6.526933e+002,1.401917e+000
6.536575e+002,2.848267e+000
6.546218e+002,5.352356e+000
6.555860e+002,7.263184e+000
6.565502e+002,8.666016e+000
6.575145e+002,8.766479e+000
6.584787e+002,6.789490e+000
6.594429e+002,4.403748e+000
6.604072e+002,2.916809e+000
6.613714e+002,2.580200e+000
6.623356e+002,2.495361e+000
6.632999e+002,1.608521e+000
6.642641e+002,6.883545e-001
6.652283e+002,1.234802e+000
6.661926e+002,2.998230e+000
6.671568e+002,4.017090e+000
6.681210e+002,1.002747e+000
6.690853e+002,-4.319336e+000
6.700495e+002,-6.679504e+000
6.710137e+002,-6.035889e+000
6.719780e+002,-3.866089e+000
6.729422e+002,-1.636169e+000
6.739064e+002,6.950073e-001
6.748707e+002,1.347595e+000
6.758349e+002,-1.883850e+000
6.767991e+002,-4.036255e+000
6.777634e+002,-1.259399e+000
6.787276e+002,5.890076e+000
6.796918e+002,1.087494e+001
6.806561e+002,8.454712e+000
6.816203e+002,5.339783e+000
6.825845e+002,4.112305e+000
6.835488e+002,4.064697e+000
6.845130e+002,3.605286e+000
6.854772e+002,1.563660e+000
6.864415e+002,-6.663818e-001
6.874057e+002,-1.347717e+000
6.883699e+002,-1.083679e+000
6.893342e+002,8.622437e-001
6.902984e+002,5.346863e+000
6.912626e+002,1.167712e+001
6.922269e+002,1.394275e+001
6.931911e+002,9.942139e+000
6.941553e+002,6.239502e+000
6.951196e+002,1.390625e+000
6.960838e+002,-3.229797e+000
6.970480e+002,-4.601685e+000
6.980123e+002,-4.298706e-001
6.989765e+002,3.590698e+000
6.999407e+002,5.134155e+000
7.009050e+002,5.399841e+000
7.018692e+002,5.552063e+000
7.028334e+002,5.775574e+000
7.037977e+002,4.693665e+000
7.047619e+002,-1.172241e+000
7.057261e+002,-8.802307e+000
7.066904e+002,-1.274292e+001
7.076546e+002,-1.212616e+001
7.086188e+002,-8.496338e+000
7.095831e+002,-4.027222e+000
7.105473e+002,1.998169e+000
7.115115e+002,5.280823e+000
7.124758e+002,3.756287e+000
7.134400e+002,1.803772e+000
7.144042e+002,3.421753e+000
7.153685e+002,8.712036e+000
7.163327e+002,1.093652e+001
7.172969e+002,2.441040e+000
7.182612e+002,-5.535217e+000
7.192254e+002,-8.326172e+000
7.201896e+002,-7.152588e+000
7.211539e+002,-5.275818e+000
7.221181e+002,-5.270264e+000
7.230823e+002,-6.393982e+000
7.240466e+002,-6.661072e+000
7.250108e+002,-5.795105e+000
7.259750e+002,-3.940430e+000
7.269393e+002,-1.387024e+000
7.279035e+002,1.053040e+000
7.288677e+002,1.104126e+000
7.298320e+002,-3.163086e+000
7.307962e+002,-5.303833e+000
7.317604e+002,-3.772034e+000
7.327247e+002,-1.996460e-001
7.336889e+002,2.761414e+000
7.346531e+002,3.533508e+000
7.356174e+002,3.479248e+000
7.365816e+002,5.174683e+000
7.375458e+002,7.063049e+000
7.385101e+002,7.519714e+000
7.394743e+002,6.335938e+000
7.404385e+002,4.893005e+000
7.414028e+002,5.306519e+000
7.423670e+002,5.980713e+000
7.433312e+002,4.248169e+000
7.442955e+002,4.522095e-001
7.452597e+002,-2.649414e+000
7.462239e+002,-2.155640e+000
7.471882e+002,2.639282e+000
7.481524e+002,7.071594e+000
7.491166e+002,1.071564e+001
7.500809e+002,1.308148e+001
7.510451e+002,1.428748e+001
7.520093e+002,1.414746e+001
7.529736e+002,1.180157e+001
7.539378e+002,5.255859e+000
7.549020e+002,3.745728e-001
7.558663e+002,1.459717e+000
7.568306e+002,5.836548e+000
7.577948e+002,9.842529e+000
7.587590e+002,1.107562e+001
7.597233e+002,1.012476e+001
7.606875e+002,9.741760e+000
7.616517e+002,1.020026e+001
7.626160e+002,1.026758e+001
7.635802e+002,9.819458e+000
7.645444e+002,8.867859e+000
7.655087e+002,6.987610e+000
7.664729e+002,2.505737e+000
7.674371e+002,6.674194e-001
7.684014e+002,3.115906e+000
7.693656e+002,6.409607e+000
7.703298e+002,8.499329e+000
7.712941e+002,9.204712e+000
7.722583e+002,9.862061e+000
7.732225e+002,1.136212e+001
7.741868e+002,1.322925e+001
7.751510e+002,1.510876e+001
7.761152e+002,1.705219e+001
7.770795e+002,1.939532e+001
7.780437e+002,2.238379e+001
7.790079e+002,2.556647e+001
7.799722e+002,2.581738e+001
7.809364e+002,2.305103e+001
7.819006e+002,2.013110e+001
7.828649e+002,1.856909e+001
7.838291e+002,1.822180e+001
7.847933e+002,1.764148e+001
7.857576e+002,1.545636e+001
7.867218e+002,1.378729e+001
7.876860e+002,1.447791e+001
7.886503e+002,1.570782e+001
7.896145e+002,1.523438e+001
7.905787e+002,1.271375e+001
7.915430e+002,1.132550e+001
7.925072e+002,1.640204e+001
7.934714e+002,2.235211e+001
7.944357e+002,2.253424e+001
7.953999e+002,1.770355e+001
7.963641e+002,1.329498e+001
7.973284e+002,1.536658e+001
7.982926e+002,2.450977e+001
7.992568e+002,2.882007e+001
8.002211e+002,2.525684e+001
8.011853e+002,2.116272e+001
8.021495e+002,2.064691e+001
8.031138e+002,2.328168e+001
8.040780e+002,2.494470e+001
8.050422e+002,2.300397e+001
8.060065e+002,2.158032e+001
8.069707e+002,2.182129e+001
8.079349e+002,2.261591e+001
8.088992e+002,2.303436e+001
8.098634e+002,2.298761e+001
8.108276e+002,2.344421e+001
8.117919e+002,2.619159e+001
8.127561e+002,2.888800e+001
8.137203e+002,2.814819e+001
8.146846e+002,2.420074e+001
8.156488e+002,1.959161e+001
8.166130e+002,1.697809e+001
8.175773e+002,1.637842e+001
8.185415e+002,1.682806e+001
8.195057e+002,1.822388e+001
8.204700e+002,1.957446e+001
8.214342e+002,2.059192e+001
8.223984e+002,2.134222e+001
8.233627e+002,2.224365e+001
8.243269e+002,2.426318e+001
8.252911e+002,2.506921e+001
8.262554e+002,2.213135e+001
8.272196e+002,1.819495e+001
8.281838e+002,1.594708e+001
8.291481e+002,1.637201e+001
8.301123e+002,1.857031e+001
8.310765e+002,2.142535e+001
8.320408e+002,2.453198e+001
8.330050e+002,2.571558e+001
8.339692e+002,2.468530e+001
8.349335e+002,2.269543e+001
8.358977e+002,2.068939e+001
8.368619e+002,1.867834e+001
8.378262e+002,1.884796e+001
8.387904e+002,2.424756e+001
8.397546e+002,2.748999e+001
8.407189e+002,2.405682e+001
8.416831e+002,1.797748e+001
8.426473e+002,1.702991e+001
8.436116e+002,2.578912e+001
8.445758e+002,3.589307e+001
8.455400e+002,3.751617e+001
8.465043e+002,3.472992e+001
8.474685e+002,3.246088e+001
8.484327e+002,3.251141e+001
8.493970e+002,3.335675e+001
8.503612e+002,3.161554e+001
8.513254e+002,2.618353e+001
8.522897e+002,2.542377e+001
8.532539e+002,3.108405e+001
8.542181e+002,3.774200e+001
8.551824e+002,4.347418e+001
8.561466e+002,4.872095e+001
8.571108e+002,5.280487e+001
8.580751e+002,5.297314e+001
8.590393e+002,5.261163e+001
8.600035e+002,5.323474e+001
8.609678e+002,5.465118e+001
8.619320e+002,5.604712e+001
8.628962e+002,5.714117e+001
8.638605e+002,5.922833e+001
8.648247e+002,6.558496e+001
8.657889e+002,7.396942e+001
8.667532e+002,8.012506e+001
8.677174e+002,8.346161e+001
8.686816e+002,8.417108e+001
8.696459e+002,8.210803e+001
8.706101e+002,7.690417e+001
8.715743e+002,7.406116e+001
8.725386e+002,7.346643e+001
8.735028e+002,7.512860e+001
8.744670e+002,7.994696e+001
8.754313e+002,8.609656e+001
8.763955e+002,9.072125e+001
8.773597e+002,9.287927e+001
8.783240e+002,9.459302e+001
8.792882e+002,9.720062e+001
8.802524e+002,9.973230e+001
8.812167e+002,1.013096e+002
8.821809e+002,1.018752e+002
8.831451e+002,1.021716e+002
8.841094e+002,1.032889e+002
8.850736e+002,1.055314e+002
8.860378e+002,1.067711e+002
8.870021e+002,1.059426e+002
8.879663e+002,1.065309e+002
8.889305e+002,1.114844e+002
8.898948e+002,1.194933e+002
8.908590e+002,1.244647e+002
8.918232e+002,1.245298e+002
8.927875e+002,1.247413e+002
8.937517e+002,1.261414e+002
8.947159e+002,1.281697e+002
8.956802e+002,1.301391e+002
8.966444e+002,1.315560e+002
8.976086e+002,1.322244e+002
8.985729e+002,1.321213e+002
8.995371e+002,1.322057e+002
9.005013e+002,1.334788e+002
9.014656e+002,1.360298e+002
9.024298e+002,1.390909e+002
9.033940e+002,1.417717e+002
9.043583e+002,1.437107e+002
9.053225e+002,1.454877e+002
9.062867e+002,1.472295e+002
9.072510e+002,1.477179e+002
9.082152e+002,1.468021e+002
9.091794e+002,1.459158e+002
9.101437e+002,1.464526e+002
9.111079e+002,1.485879e+002
9.120721e+002,1.506794e+002
9.130364e+002,1.509921e+002
9.140006e+002,1.506589e+002
9.149648e+002,1.507728e+002
9.159291e+002,1.515010e+002
9.168933e+002,1.524547e+002
9.178575e+002,1.531045e+002
9.188218e+002,1.532137e+002
9.197860e+002,1.530322e+002
9.207502e+002,1.524061e+002
9.217145e+002,1.497676e+002
9.226787e+002,1.438835e+002
9.236429e+002,1.380110e+002
9.246072e+002,1.369783e+002
9.255714e+002,1.418707e+002
9.265356e+002,1.435610e+002
9.274999e+002,1.368407e+002
9.284641e+002,1.302919e+002
9.294283e+002,1.270939e+002
9.303926e+002,1.265483e+002
9.313568e+002,1.271307e+002
9.323210e+002,1.281711e+002
9.332853e+002,1.282492e+002
9.342495e+002,1.235095e+002
9.352137e+002,1.164481e+002
9.361780e+002,1.113204e+002
9.371422e+002,1.094334e+002
9.381064e+002,1.095527e+002
9.390707e+002,1.096030e+002
9.400349e+002,1.089935e+002
9.409991e+002,1.084901e+002
9.419634e+002,1.081652e+002
9.429276e+002,1.075711e+002
9.438918e+002,1.065031e+002
9.448561e+002,1.053302e+002
9.458203e+002,1.047554e+002
9.467845e+002,1.052314e+002
9.477488e+002,1.058746e+002
9.487130e+002,1.056099e+002
9.496772e+002,1.052788e+002
9.506415e+002,1.053785e+002
9.516057e+002,1.060612e+002
9.525699e+002,1.077463e+002
9.535342e+002,1.108848e+002
9.544984e+002,1.146346e+002
9.554626e+002,1.124847e+002
9.564269e+002,1.038289e+002
9.573911e+002,9.734076e+001
9.583553e+002,9.532867e+001
9.593196e+002,9.646985e+001
9.602838e+002,9.960388e+001
9.612480e+002,1.056336e+002
9.622123e+002,1.087207e+002
9.631765e+002,1.054176e+002
9.641407e+002,1.010545e+002
9.651050e+002,9.778674e+001
9.660692e+002,9.509583e+001
9.670334e+002,9.106567e+001
9.679977e+002,8.471429e+001
9.689619e+002,7.872717e+001
9.699261e+002,7.864856e+001
9.708904e+002,8.254364e+001
9.718546e+002,8.688983e+001
9.728188e+002,9.071832e+001
9.737831e+002,9.476709e+001
9.747473e+002,1.009559e+002
9.757115e+002,1.105042e+002
9.766758e+002,1.163995e+002
9.776400e+002,1.171342e+002
9.786042e+002,1.169047e+002
9.795685e+002,1.162258e+002
9.805327e+002,1.145670e+002
9.814969e+002,1.115946e+002
9.824612e+002,1.075410e+002
9.834254e+002,1.024741e+002
9.843896e+002,9.421375e+001
9.853539e+002,8.533917e+001
9.863181e+002,7.896008e+001
9.872823e+002,7.476563e+001
9.882466e+002,7.103729e+001
9.892108e+002,6.679053e+001
9.901750e+002,6.306274e+001
9.911393e+002,6.258551e+001
9.921035e+002,6.662024e+001
9.930677e+002,6.916504e+001
9.940320e+002,6.905231e+001
9.949962e+002,6.910547e+001
9.959604e+002,7.206012e+001
9.969247e+002,7.812012e+001
9.978889e+002,8.496234e+001
9.988531e+002,9.203241e+001
9.998174e+002,9.730957e+001
1.000782e+003,9.994220e+001
1.001746e+003,1.009064e+002
1.002710e+003,1.013791e+002
1.003674e+003,1.017999e+002
1.004639e+003,1.016235e+002
1.005603e+003,9.984387e+001
1.006567e+003,9.606885e+001
1.007531e+003,9.270673e+001
1.008495e+003,8.953955e+001
1.009460e+003,8.728821e+001
1.010424e+003,8.748639e+001
1.011388e+003,8.932843e+001
1.012352e+003,8.878967e+001
1.013317e+003,8.358875e+001
1.014281e+003,7.901422e+001
1.015245e+003,7.693585e+001
1.016209e+003,7.527234e+001
1.017174e+003,7.329034e+001
1.018138e+003,7.048395e+001
1.019102e+003,6.597937e+001
1.020066e+003,5.894141e+001
1.021031e+003,5.086273e+001
1.021995e+003,4.509644e+001
1.022959e+003,4.076306e+001
1.023923e+003,3.686389e+001
1.024887e+003,3.301025e+001
1.025852e+003,2.933295e+001
1.026816e+003,2.653656e+001
1.027780e+003,2.547906e+001
1.028744e+003,2.305591e+001
1.029709e+003,1.587213e+001
1.030673e+003,1.078314e+001
1.031637e+003,1.117822e+001
1.032601e+003,1.405530e+001
1.033566e+003,1.548877e+001
1.034530e+003,1.421820e+001
1.035494e+003,1.170569e+001
1.036458e+003,8.186157e+000
1.037422e+003,4.969604e+000
1.038387e+003,4.676758e+000
1.039351e+003,7.047424e+000
1.040315e+003,1.026190e+001
1.041279e+003,1.343805e+001
1.042244e+003,1.634552e+001
1.043208e+003,1.652759e+001
1.044172e+003,9.412842e+000
1.045136e+003,6.716431e+000
1.046101e+003,1.265668e+001
1.047065e+003,1.928217e+001
1.048029e+003,2.107855e+001
1.048993e+003,1.869720e+001
1.049958e+003,1.673199e+001
1.050922e+003,1.781830e+001
1.051886e+003,1.942993e+001
1.052850e+003,1.777472e+001
1.053814e+003,1.536285e+001
1.054779e+003,1.638159e+001
1.055743e+003,2.114789e+001
1.056707e+003,2.550665e+001
1.057671e+003,2.435083e+001
1.058636e+003,1.753613e+001
1.059600e+003,1.270612e+001
1.060564e+003,1.012292e+001
1.061528e+003,1.016107e+001
1.062493e+003,1.408112e+001
1.063457e+003,1.900684e+001
1.064421e+003,2.262305e+001
1.065385e+003,2.478973e+001
1.066349e+003,2.485773e+001
1.067314e+003,2.055072e+001
1.068278e+003,1.636786e+001
1.069242e+003,1.619812e+001
1.070206e+003,1.829114e+001
1.071171e+003,1.927557e+001
1.072135e+003,1.769409e+001
1.073099e+003,1.538757e+001
1.074063e+003,1.598700e+001
1.075028e+003,2.013892e+001
1.075992e+003,2.098022e+001
1.076956e+003,1.644324e+001
1.077920e+003,1.193793e+001
1.078885e+003,9.741638e+000
1.079849e+003,9.387817e+000
1.080813e+003,9.651550e+000
1.081777e+003,1.035443e+001
1.082741e+003,1.219916e+001
1.083706e+003,1.679230e+001
1.084670e+003,2.056281e+001
1.085634e+003,2.152612e+001
1.086598e+003,2.008356e+001
1.087563e+003,1.720978e+001
1.088527e+003,1.378955e+001
1.089491e+003,1.055524e+001
1.090455e+003,8.130554e+000
1.091420e+003,6.237854e+000
1.092384e+003,6.222351e+000
1.093348e+003,8.929504e+000
1.094312e+003,1.123108e+001
1.095276e+003,1.140680e+001
1.096241e+003,1.034827e+001
1.097205e+003,9.936157e+000
1.098169e+003,1.023419e+001
1.099133e+003,1.051581e+001
1.100098e+003,1.102985e+001
1.101062e+003,1.140045e+001
1.102026e+003,1.123047e+001
1.102990e+003,1.077594e+001
1.103955e+003,1.037268e+001
1.104919e+003,1.015137e+001
1.105883e+003,1.033490e+001
1.106847e+003,1.195776e+001
1.107812e+003,1.493152e+001
1.108776e+003,1.631476e+001
1.109740e+003,1.551093e+001
1.110704e+003,1.411896e+001
1.111668e+003,1.364319e+001
1.112633e+003,1.411023e+001
1.113597e+003,1.415070e+001
1.114561e+003,1.253546e+001
1.115525e+003,1.222296e+001
1.116490e+003,1.546417e+001
1.117454e+003,1.872571e+001
1.118418e+003,1.964032e+001
1.119382e+003,1.909589e+001
1.120347e+003,1.929144e+001
1.121311e+003,2.121100e+001
1.122275e+003,2.370581e+001
1.123239e+003,2.611841e+001
1.124203e+003,2.881659e+001
1.125168e+003,2.914001e+001
1.126132e+003,2.562854e+001
1.127096e+003,2.341595e+001
1.128060e+003,2.752014e+001
1.129025e+003,3.612982e+001
1.129989e+003,4.116437e+001
1.130953e+003,4.055829e+001
1.131917e+003,3.927606e+001
1.132882e+003,3.686053e+001
1.133846e+003,3.636957e+001
1.134810e+003,4.065924e+001
1.135774e+003,4.843195e+001
1.136739e+003,5.665076e+001
1.137703e+003,6.352600e+001
1.138667e+003,6.917914e+001
1.139631e+003,7.324170e+001
1.140595e+003,7.616730e+001
1.141560e+003,8.237909e+001
1.142524e+003,9.288470e+001
1.143488e+003,1.051744e+002
1.144452e+003,1.171194e+002
1.145417e+003,1.293044e+002
1.146381e+003,1.438344e+002
1.147345e+003,1.605931e+002
1.148309e+003,1.799124e+002
1.149274e+003,2.034318e+002
1.150238e+003,2.281487e+002
1.151202e+003,2.536569e+002
1.152166e+003,2.794513e+002
1.153130e+003,3.060083e+002
1.154095e+003,3.326547e+002
1.155059e+003,3.546150e+002
1.156023e+003,3.658760e+002
1.156987e+003,3.664106e+002
1.157952e+003,3.610161e+002
1.158916e+003,3.506031e+002
1.159880e+003,3.351575e+002
1.160844e+003,3.108278e+002
1.161809e+003,2.808735e+002
1.162773e+003,2.542757e+002
1.163737e+003,2.317755e+002
1.164701e+003,2.096323e+002
1.165666e+003,1.860901e+002
1.166630e+003,1.643547e+002
1.167594e+003,1.451927e+002
1.168558e+003,1.286246e+002
1.169522e+003,1.144933e+002
1.170487e+003,1.028153e+002
1.171451e+003,9.445978e+001
1.172415e+003,9.075165e+001
1.173379e+003,9.046851e+001
1.174344e+003,8.758777e+001
1.175308e+003,8.222565e+001
1.176272e+003,7.688513e+001
1.177236e+003,7.176575e+001
1.178201e+003,6.780475e+001
1.179165e+003,6.655609e+001
1.180129e+003,6.774231e+001
1.181093e+003,6.725012e+001
1.182057e+003,6.347278e+001
1.183022e+003,5.948822e+001
1.183986e+003,5.653082e+001
1.184950e+003,5.395331e+001
1.185914e+003,5.050824e+001
1.186879e+003,4.677380e+001
1.187843e+003,4.531274e+001
1.188807e+003,4.815668e+001
1.189771e+003,5.328857e+001
1.190736e+003,5.495782e+001
1.191700e+003,5.265997e+001
1.192664e+003,5.156244e+001
1.193628e+003,5.372467e+001
1.194593e+003,5.560583e+001
1.195557e+003,5.427295e+001
1.196521e+003,5.044543e+001
1.197485e+003,4.679523e+001
1.198449e+003,4.370935e+001
1.199414e+003,4.110315e+001
1.200378e+003,4.009174e+001
1.201342e+003,3.857599e+001
1.202306e+003,3.432874e+001
1.203271e+003,2.836047e+001
1.204235e+003,2.283856e+001
1.205199e+003,1.903748e+001
1.206163e+003,1.703680e+001
1.207128e+003,1.708331e+001
1.208092e+003,1.939050e+001
1.209056e+003,1.970734e+001
1.210020e+003,1.904468e+001
1.210984e+003,1.513812e+001
1.211949e+003,4.208984e+000
1.212913e+003,-8.586975e+000
1.213877e+003,-1.598462e+001
1.214841e+003,-1.752716e+001
1.215806e+003,-1.910162e+001
1.216770e+003,-2.354333e+001
1.217734e+003,-2.781348e+001
1.218698e+003,-2.921307e+001
1.219663e+003,-2.994672e+001
1.220627e+003,-3.299890e+001
1.221591e+003,-3.853619e+001
1.222555e+003,-4.425323e+001
1.223520e+003,-4.794775e+001
1.224484e+003,-4.982385e+001
1.225448e+003,-5.172119e+001
1.226412e+003,-5.430304e+001
1.227376e+003,-5.543231e+001
1.228341e+003,-5.398395e+001
1.229305e+003,-5.268640e+001
1.230269e+003,-5.305908e+001
1.231233e+003,-5.466547e+001
1.232198e+003,-5.651123e+001
1.233162e+003,-5.819672e+001
1.234126e+003,-5.936304e+001
1.235090e+003,-6.012317e+001
1.236055e+003,-6.037347e+001
1.237019e+003,-5.988953e+001
1.237983e+003,-5.890771e+001
1.238947e+003,-5.735638e+001
1.239911e+003,-5.504370e+001
1.240876e+003,-5.317554e+001
1.241840e+003,-5.399042e+001
1.242804e+003,-5.767834e+001
1.243768e+003,-6.006061e+001
1.244733e+003,-6.191650e+001
1.245697e+003,-6.103247e+001
1.246661e+003,-5.425299e+001
1.247625e+003,-4.808429e+001
1.248590e+003,-4.847961e+001
1.249554e+003,-5.330957e+001
1.250518e+003,-5.558734e+001
1.251482e+003,-5.228015e+001
1.252447e+003,-4.700165e+001
1.253411e+003,-4.250073e+001
1.254375e+003,-3.931866e+001
1.255339e+003,-3.978937e+001
1.256303e+003,-4.358087e+001
1.257268e+003,-4.590381e+001
1.258232e+003,-4.400098e+001
1.259196e+003,-4.005249e+001
1.260160e+003,-3.785400e+001
1.261125e+003,-3.737610e+001
1.262089e+003,-3.666040e+001
1.263053e+003,-3.614490e+001
1.264017e+003,-3.533820e+001
1.264982e+003,-3.345935e+001
1.265946e+003,-3.143500e+001
1.266910e+003,-3.033496e+001
1.267874e+003,-3.001080e+001
1.268839e+003,-2.916949e+001
1.269803e+003,-2.691089e+001
1.270767e+003,-2.448779e+001
1.271731e+003,-2.443781e+001
1.272695e+003,-2.656689e+001
1.273660e+003,-2.841498e+001
1.274624e+003,-3.054810e+001
1.275588e+003,-3.242371e+001
1.276552e+003,-3.258582e+001
1.277517e+003,-3.209625e+001
1.278481e+003,-3.396899e+001
1.279445e+003,-3.875592e+001
1.280409e+003,-4.213855e+001
1.281374e+003,-4.258289e+001
1.282338e+003,-4.122180e+001
1.283302e+003,-3.681067e+001
1.284266e+003,-3.232800e+001
1.285230e+003,-3.145441e+001
1.286195e+003,-3.437750e+001
1.287159e+003,-3.859277e+001
1.288123e+003,-4.189087e+001
1.289087e+003,-4.391772e+001
1.290052e+003,-4.423199e+001
1.291016e+003,-4.228241e+001
1.291980e+003,-4.175122e+001
1.292944e+003,-4.423865e+001
1.293909e+003,-4.662811e+001
1.294873e+003,-4.676672e+001
1.295837e+003,-4.604706e+001
1.296801e+003,-4.674103e+001
1.297766e+003,-4.905212e+001
1.298730e+003,-5.147839e+001
1.299694e+003,-5.406958e+001
1.300658e+003,-5.546777e+001
1.301622e+003,-5.289264e+001
1.302587e+003,-4.841144e+001
1.303551e+003,-4.518024e+001
1.304515e+003,-4.370514e+001
1.305479e+003,-4.361871e+001
1.306444e+003,-4.517554e+001
1.307408e+003,-4.770654e+001
1.308372e+003,-4.810278e+001
1.309336e+003,-4.524103e+001
1.310301e+003,-4.382385e+001
1.311265e+003,-4.495404e+001
1.312229e+003,-4.600464e+001
1.313193e+003,-4.616766e+001
1.314157e+003,-4.608588e+001
1.315122e+003,-4.675684e+001
1.316086e+003,-4.814264e+001
1.317050e+003,-4.900342e+001
1.318014e+003,-4.829578e+001
1.318979e+003,-4.702740e+001
1.319943e+003,-4.767786e+001
1.320907e+003,-4.965881e+001
1.321871e+003,-4.919568e+001
1.322836e+003,-4.597681e+001
1.323800e+003,-4.271417e+001
1.324764e+003,-4.056281e+001
1.325728e+003,-3.924689e+001
1.326693e+003,-3.846057e+001
1.327657e+003,-3.839978e+001
1.328621e+003,-3.931207e+001
1.329585e+003,-4.116150e+001
1.330549e+003,-4.200305e+001
1.331514e+003,-4.142511e+001
1.332478e+003,-4.069275e+001
1.333442e+003,-4.083240e+001
1.334406e+003,-4.150098e+001
1.335371e+003,-4.153766e+001
1.336335e+003,-4.028021e+001
1.337299e+003,-3.849817e+001
1.338263e+003,-3.787427e+001
1.339228e+003,-3.869458e+001
1.340192e+003,-3.775677e+001
1.341156e+003,-3.283246e+001
1.342120e+003,-2.956897e+001
1.343084e+003,-2.991339e+001
1.344049e+003,-3.185413e+001
1.345013e+003,-3.367761e+001
1.345977e+003,-3.510974e+001
1.346941e+003,-3.688428e+001
1.347906e+003,-3.941296e+001
1.348870e+003,-4.062531e+001
1.349834e+003,-3.759808e+001
1.350798e+003,-3.310016e+001
1.351763e+003,-3.238544e+001
1.352727e+003,-3.474261e+001
1.353691e+003,-3.634729e+001
1.354655e+003,-3.560455e+001
1.355620e+003,-3.424774e+001
1.356584e+003,-3.449310e+001
1.357548e+003,-3.595453e+001
1.358512e+003,-3.620782e+001
1.359476e+003,-3.526514e+001
1.360441e+003,-3.420349e+001
1.361405e+003,-3.133722e+001
1.362369e+003,-3.009131e+001
1.363333e+003,-3.358521e+001
1.364298e+003,-3.905951e+001
1.365262e+003,-4.289160e+001
1.366226e+003,-4.402557e+001
1.367190e+003,-4.341425e+001
1.368155e+003,-4.188672e+001
1.369119e+003,-3.962036e+001
1.370083e+003,-3.709100e+001
1.371047e+003,-3.401813e+001
1.372011e+003,-3.093988e+001
1.372976e+003,-2.683362e+001
1.373940e+003,-2.486755e+001
1.374904e+003,-2.773071e+001
1.375868e+003,-3.204688e+001
1.376833e+003,-3.349933e+001
1.377797e+003,-3.211761e+001
1.378761e+003,-3.098096e+001
1.379725e+003,-3.128473e+001
1.380690e+003,-3.215100e+001
1.381654e+003,-3.330273e+001
1.382618e+003,-3.396307e+001
1.383582e+003,-3.252142e+001
1.384547e+003,-2.928534e+001
1.385511e+003,-2.700531e+001
1.386475e+003,-2.749231e+001
1.387439e+003,-2.873108e+001
1.388403e+003,-2.726569e+001
1.389368e+003,-2.314734e+001
1.390332e+003,-1.986743e+001
1.391296e+003,-1.673346e+001
1.392260e+003,-1.560876e+001
1.393225e+003,-1.846594e+001
1.394189e+003,-2.169263e+001
1.395153e+003,-2.362531e+001
1.396117e+003,-2.436908e+001
1.397082e+003,-2.404016e+001
1.398046e+003,-2.287518e+001
1.399010e+003,-2.169177e+001
1.399974e+003,-2.146246e+001
1.400938e+003,-2.243286e+001
1.401903e+003,-2.426733e+001
1.402867e+003,-2.648096e+001
1.403831e+003,-2.672626e+001
1.404795e+003,-2.426569e+001
1.405760e+003,-2.190558e+001
1.406724e+003,-2.117340e+001
1.407688e+003,-2.192267e+001
1.408652e+003,-2.398853e+001
1.409617e+003,-2.639966e+001
1.410581e+003,-2.641565e+001
1.411545e+003,-2.248242e+001
1.412509e+003,-1.859845e+001
1.413474e+003,-1.972723e+001
1.414438e+003,-2.335083e+001
1.415402e+003,-2.407928e+001
1.416366e+003,-2.205902e+001
1.417330e+003,-2.118219e+001
1.418295e+003,-2.337866e+001
1.419259e+003,-2.556866e+001
1.420223e+003,-2.364471e+001
1.421187e+003,-1.870398e+001
1.422152e+003,-1.646362e+001
1.423116e+003,-1.764227e+001
1.424080e+003,-1.807690e+001
1.425044e+003,-1.643750e+001
1.426009e+003,-1.482538e+001
1.426973e+003,-1.412219e+001
1.427937e+003,-1.394995e+001
1.428901e+003,-1.402716e+001
1.429865e+003,-1.385431e+001
1.430830e+003,-1.256116e+001
1.431794e+003,-9.774048e+000
1.432758e+003,-6.356262e+000
1.433722e+003,-3.452454e+000
1.434687e+003,-4.178467e-001
1.435651e+003,1.446716e+000
1.436615e+003,-1.311401e+000
1.437579e+003,-2.726440e+000
1.438544e+003,-6.666870e-001
1.439508e+003,1.589172e+000
1.440472e+003,1.668518e+000
1.441436e+003,8.880615e-001
1.442401e+003,2.329590e+000
1.443365e+003,6.246521e+000
1.444329e+003,8.292236e+000
1.445293e+003,4.754761e+000
1.446257e+003,-5.354004e-001
1.447222e+003,4.606323e-001
1.448186e+003,6.206360e+000
1.449150e+003,8.290588e+000
1.450114e+003,5.083679e+000
1.451079e+003,1.460754e+000
1.452043e+003,-4.006348e-001
1.453007e+003,-5.732422e-001
1.453971e+003,1.473145e+000
1.454936e+003,5.070923e+000
1.455900e+003,6.354309e+000
1.456864e+003,4.087280e+000
1.457828e+003,1.753967e+000
1.458792e+003,1.275879e+000
1.459757e+003,1.110107e+000
1.460721e+003,-6.136475e-001
1.461685e+003,-2.811951e+000
1.462649e+003,-2.430847e+000
1.463614e+003,1.125183e+000
1.464578e+003,3.944214e+000
1.465542e+003,2.057678e+000
1.466506e+003,-2.632874e+000
1.467471e+003,-3.705566e+000
1.468435e+003,3.236694e-001
1.469399e+003,2.741150e+000
1.470363e+003,1.278809e+000
1.471328e+003,-8.715820e-002
1.472292e+003,-1.305237e+000
1.473256e+003,-2.119751e+000
1.474220e+003,-1.149536e+000
1.475184e+003,8.195190e-001
1.476149e+003,1.152710e+000
1.477113e+003,-7.194214e-001
1.478077e+003,-1.362549e+000
1.479041e+003,2.981567e+000
1.480006e+003,1.053339e+001
1.480970e+003,1.439319e+001
1.481934e+003,1.291833e+001
1.482898e+003,1.282501e+001
1.483863e+003,1.574908e+001
1.484827e+003,1.742145e+001
1.485791e+003,1.551099e+001
1.486755e+003,1.359137e+001
1.487719e+003,1.482050e+001
1.488684e+003,1.844202e+001
1.489648e+003,2.256970e+001
1.490612e+003,2.669672e+001
1.491576e+003,2.969135e+001
1.492541e+003,2.987360e+001
1.493505e+003,2.912518e+001
1.494469e+003,3.196021e+001
1.495433e+003,3.742719e+001
1.496398e+003,4.261749e+001
1.497362e+003,4.752478e+001
1.498326e+003,5.323615e+001
1.499290e+003,6.066833e+001
1.500255e+003,6.881519e+001
1.501219e+003,7.589856e+001
1.502183e+003,8.210315e+001
1.503147e+003,8.914099e+001
1.504111e+003,9.718512e+001
1.505076e+003,1.071115e+002
1.506040e+003,1.200206e+002
1.507004e+003,1.347234e+002
1.507968e+003,1.497523e+002
1.508933e+003,1.655552e+002
1.509897e+003,1.827798e+002
1.510861e+003,2.022565e+002
1.511825e+003,2.255496e+002
1.512790e+003,2.539843e+002
1.513754e+003,2.851232e+002
1.514718e+003,3.152849e+002
1.515682e+003,3.440687e+002
1.516646e+003,3.717644e+002
1.517611e+003,3.993221e+002
1.518575e+003,4.247031e+002
1.519539e+003,4.482677e+002
1.520503e+003,4.692814e+002
1.521468e+003,4.893538e+002
1.522432e+003,5.051371e+002
1.523396e+003,5.117295e+002
1.524360e+003,5.090317e+002
1.525325e+003,5.010245e+002
1.526289e+003,4.904727e+002
1.527253e+003,4.772822e+002
1.528217e+003,4.612232e+002
1.529182e+003,4.426652e+002
1.530146e+003,4.186351e+002
1.531110e+003,3.851643e+002
1.532074e+003,3.526992e+002
1.533039e+003,3.235962e+002
1.534003e+003,2.918828e+002
1.534967e+003,2.527650e+002
1.535931e+003,2.128276e+002
1.536896e+003,1.782833e+002
1.537860e+003,1.503910e+002
1.538824e+003,1.282955e+002
1.539788e+003,1.111256e+002
1.540752e+003,9.699030e+001
1.541717e+003,8.364252e+001
1.542681e+003,7.157214e+001
1.543645e+003,6.225848e+001
1.544609e+003,5.696332e+001
1.545573e+003,5.263873e+001
1.546538e+003,4.766864e+001
1.547502e+003,4.457080e+001
1.548466e+003,4.613611e+001
1.549430e+003,4.950427e+001
1.550395e+003,5.198914e+001
1.551359e+003,5.304889e+001
1.552323e+003,5.277515e+001
1.553287e+003,5.130658e+001
1.554252e+003,4.905573e+001
1.555216e+003,4.633148e+001
1.556180e+003,4.301160e+001
1.557144e+003,3.851776e+001
1.558109e+003,3.297998e+001
1.559073e+003,2.902185e+001
1.560037e+003,2.627875e+001
1.561001e+003,2.472766e+001
1.561966e+003,2.523859e+001
1.562930e+003,2.719586e+001
1.563894e+003,3.068292e+001
1.564858e+003,3.449945e+001
1.565823e+003,3.595227e+001
1.566787e+003,3.458154e+001
1.567751e+003,3.257092e+001
1.568715e+003,3.091412e+001
1.569679e+003,3.035986e+001
1.570644e+003,3.256824e+001
1.571608e+003,3.595837e+001
1.572572e+003,3.650623e+001
1.573536e+003,3.429553e+001
1.574500e+003,3.243591e+001
1.575465e+003,3.146417e+001
1.576429e+003,3.155273e+001
1.577393e+003,3.286542e+001
1.578357e+003,3.508173e+001
1.579322e+003,3.872278e+001
1.580286e+003,4.359467e+001
1.581250e+003,4.556128e+001
1.582214e+003,4.253088e+001
1.583179e+003,3.946277e+001
1.584143e+003,3.994049e+001
1.585107e+003,4.202551e+001
1.586071e+003,4.388647e+001
1.587036e+003,4.583582e+001
1.588000e+003,4.745221e+001
1.588964e+003,4.834570e+001
1.589928e+003,4.895306e+001
1.590893e+003,4.942780e+001
1.591857e+003,5.005328e+001
1.592821e+003,5.113831e+001
1.593785e+003,5.281116e+001
1.594750e+003,5.571088e+001
1.595714e+003,6.006512e+001
1.596678e+003,6.341602e+001
1.597642e+003,6.461963e+001
1.598606e+003,6.484241e+001
1.599571e+003,6.506488e+001
1.600535e+003,6.517761e+001
1.601499e+003,6.417554e+001
1.602463e+003,6.250208e+001
1.603427e+003,6.323254e+001
1.604392e+003,6.797607e+001
1.605356e+003,7.275732e+001
1.606320e+003,7.321960e+001
1.607284e+003,7.076721e+001
1.608249e+003,6.925214e+001
1.609213e+003,6.870844e+001
1.610177e+003,6.828394e+001
1.611141e+003,6.763489e+001
1.612106e+003,6.764655e+001
1.613070e+003,6.998627e+001
1.614034e+003,7.190033e+001
1.614998e+003,7.026508e+001
1.615963e+003,6.730719e+001
1.616927e+003,6.742664e+001
1.617891e+003,7.070410e+001
1.618855e+003,7.240942e+001
1.619820e+003,6.920593e+001
1.620784e+003,6.465631e+001
1.621748e+003,6.521783e+001
1.622712e+003,7.032452e+001
1.623677e+003,7.260889e+001
1.624641e+003,7.139832e+001
1.625605e+003,7.136554e+001
1.626569e+003,7.313336e+001
1.627533e+003,7.478143e+001
1.628498e+003,7.617139e+001
1.629462e+003,7.728558e+001
1.630426e+003,7.765625e+001
1.631390e+003,7.764679e+001
1.632354e+003,7.842212e+001
1.633319e+003,8.005011e+001
1.634283e+003,8.056702e+001
1.635247e+003,7.803357e+001
1.636211e+003,7.482043e+001
1.637176e+003,7.613843e+001
1.638140e+003,8.173401e+001
1.639104e+003,8.485370e+001
1.640068e+003,8.462268e+001
1.641033e+003,8.382458e+001
1.641997e+003,8.315668e+001
1.642961e+003,8.241229e+001
1.643925e+003,8.090131e+001
1.644890e+003,7.964594e+001
1.645854e+003,8.016638e+001
1.646818e+003,8.160291e+001
1.647782e+003,8.155280e+001
1.648747e+003,7.933447e+001
1.649711e+003,7.695166e+001
1.650675e+003,7.632178e+001
1.651639e+003,7.677063e+001
1.652604e+003,7.599756e+001
1.653568e+003,7.390314e+001
1.654532e+003,7.448877e+001
1.655496e+003,7.949023e+001
1.656460e+003,8.161768e+001
1.657425e+003,7.682483e+001
1.658389e+003,7.166364e+001
1.659353e+003,6.932764e+001
1.660317e+003,6.863025e+001
1.661281e+003,6.882477e+001
1.662246e+003,6.929077e+001
1.663210e+003,6.918732e+001
1.664174e+003,6.835114e+001
1.665138e+003,6.669800e+001
1.666103e+003,6.350708e+001
1.667067e+003,5.997516e+001
1.668031e+003,5.914691e+001
1.668995e+003,6.089117e+001
1.669960e+003,6.188214e+001
1.670924e+003,6.196735e+001
1.671888e+003,6.143683e+001
1.672852e+003,6.019702e+001
1.673817e+003,5.814679e+001
1.674781e+003,5.386963e+001
1.675745e+003,4.973242e+001
1.676709e+003,4.888251e+001
1.677674e+003,5.047534e+001
1.678638e+003,5.143274e+001
1.679602e+003,5.080518e+001
1.680566e+003,4.947528e+001
1.681531e+003,4.821008e+001
1.682495e+003,4.702502e+001
1.683459e+003,4.523181e+001
1.684423e+003,4.287085e+001
1.685387e+003,4.192303e+001
1.686352e+003,4.297754e+001
1.687316e+003,4.299664e+001
1.688280e+003,4.035376e+001
1.689244e+003,3.766290e+001
1.690208e+003,3.727557e+001
1.691173e+003,3.737915e+001
1.692137e+003,3.542365e+001
1.693101e+003,3.264941e+001
1.694065e+003,3.286591e+001
1.695030e+003,3.679810e+001
1.695994e+003,4.009863e+001
1.696958e+003,4.053192e+001
1.697922e+003,3.882452e+001
1.698887e+003,3.476886e+001
1.699851e+003,2.958008e+001
1.700815e+003,2.698438e+001
1.701779e+003,2.707764e+001
1.702744e+003,2.663477e+001
1.703708e+003,2.478180e+001
1.704672e+003,2.333289e+001
1.705636e+003,2.295801e+001
1.706601e+003,2.337262e+001
1.707565e+003,2.586035e+001
1.708529e+003,2.948633e+001
1.709493e+003,2.990308e+001
1.710458e+003,2.618378e+001
1.711422e+003,2.283453e+001
1.712386e+003,2.246387e+001
1.713350e+003,2.275574e+001
1.714314e+003,2.144885e+001
1.715279e+003,1.915619e+001
1.716243e+003,1.680255e+001
1.717207e+003,1.477917e+001
1.718171e+003,1.442792e+001
1.719135e+003,1.619055e+001
1.720100e+003,1.752258e+001
1.721064e+003,1.640192e+001
1.722028e+003,1.443854e+001
1.722992e+003,1.432587e+001
1.723957e+003,1.604175e+001
1.724921e+003,1.716510e+001
1.725885e+003,1.689838e+001
1.726849e+003,1.719904e+001
1.727814e+003,2.147638e+001
1.728778e+003,2.349957e+001
1.729742e+003,1.788550e+001
1.730706e+003,1.100201e+001
1.731671e+003,8.963806e+000
1.732635e+003,9.940002e+000
1.733599e+003,9.857605e+000
1.734563e+003,8.444885e+000
1.735528e+003,8.133484e+000
1.736492e+003,1.004089e+001
1.737456e+003,1.220587e+001
1.738420e+003,1.222083e+001
1.739385e+003,1.064862e+001
1.740349e+003,1.076508e+001
1.741313e+003,1.366089e+001
1.742277e+003,1.400049e+001
1.743241e+003,1.002698e+001
1.744206e+003,7.021484e+000
1.745170e+003,5.300171e+000
1.746134e+003,4.711914e+000
1.747098e+003,5.627686e+000
1.748063e+003,7.218689e+000
1.749027e+003,8.901611e+000
1.749991e+003,1.045142e+001
1.750955e+003,1.179767e+001
1.751919e+003,1.272864e+001
1.752884e+003,1.258087e+001
1.753848e+003,1.078925e+001
1.754812e+003,7.907104e+000
1.755776e+003,5.079834e+000
1.756741e+003,2.663269e+000
1.757705e+003,2.736633e+000
1.758669e+003,6.263733e+000
1.759633e+003,8.611816e+000
1.760598e+003,8.523438e+000
1.761562e+003,7.789917e+000
1.762526e+003,6.934448e+000
1.763490e+003,6.299377e+000
1.764455e+003,6.565369e+000
1.765419e+003,7.063110e+000
1.766383e+003,6.047241e+000
1.767347e+003,3.685547e+000
1.768312e+003,2.401550e+000
1.769276e+003,3.249756e+000
1.770240e+003,4.979858e+000
1.771204e+003,7.304993e+000
1.772168e+003,9.643921e+000
1.773133e+003,9.409058e+000
1.774097e+003,6.929504e+000
1.775061e+003,5.899109e+000
1.776025e+003,6.579163e+000
1.776990e+003,6.654907e+000
1.777954e+003,5.497009e+000
1.778918e+003,4.407593e+000
1.779882e+003,3.555176e+000
1.780846e+003,3.287170e+000
1.781811e+003,4.980713e+000
1.782775e+003,7.980774e+000
1.783739e+003,9.813538e+000
1.784703e+003,1.019696e+001
1.785668e+003,1.010229e+001
1.786632e+003,8.858582e+000
1.787596e+003,7.837646e+000
1.788560e+003,8.903748e+000
1.789525e+003,1.109344e+001
1.790489e+003,1.293933e+001
1.791453e+003,1.404340e+001
1.792417e+003,1.425830e+001
1.793382e+003,1.354816e+001
1.794346e+003,1.130530e+001
1.795310e+003,6.962280e+000
1.796274e+003,3.319092e+000
1.797239e+003,4.153748e+000
1.798203e+003,8.025024e+000
1.799167e+003,8.834717e+000
1.800131e+003,5.131958e+000
1.801095e+003,3.274841e+000
1.802060e+003,5.150269e+000
1.803024e+003,7.004089e+000
1.803988e+003,8.330322e+000
1.804952e+003,9.263123e+000
1.805917e+003,9.824402e+000
1.806881e+003,1.003711e+001
1.807845e+003,1.021039e+001
1.808809e+003,1.018109e+001
1.809773e+003,9.205994e+000
1.810738e+003,7.370789e+000
1.811702e+003,5.866943e+000
1.812666e+003,5.408386e+000
1.813630e+003,5.624634e+000
1.814595e+003,6.109985e+000
1.815559e+003,6.649902e+000
1.816523e+003,6.478821e+000
1.817487e+003,5.466919e+000
1.818452e+003,6.481445e+000
1.819416e+003,1.130432e+001
1.820380e+003,1.424597e+001
1.821344e+003,1.231732e+001
1.822309e+003,9.525391e+000
1.823273e+003,7.468506e+000
1.824237e+003,6.800476e+000
1.825201e+003,9.020386e+000
1.826166e+003,1.273987e+001
1.827130e+003,1.435461e+001
1.828094e+003,1.317950e+001
1.829058e+003,1.209619e+001
1.830022e+003,1.286920e+001
1.830987e+003,1.383801e+001
1.831951e+003,1.365753e+001
1.832915e+003,1.283167e+001
1.833879e+003,1.181915e+001
1.834844e+003,1.080133e+001
1.835808e+003,1.020227e+001
1.836772e+003,1.011859e+001
1.837736e+003,1.037781e+001
1.838700e+003,1.076685e+001
1.839665e+003,1.074353e+001
1.840629e+003,9.733398e+000
1.841593e+003,8.869995e+000
1.842557e+003,1.053857e+001
1.843522e+003,1.467041e+001
1.844486e+003,1.739276e+001
1.845450e+003,1.904254e+001
1.846414e+003,1.936786e+001
1.847379e+003,1.660541e+001
1.848343e+003,1.382782e+001
1.849307e+003,1.129578e+001
1.850271e+003,1.009167e+001
1.851236e+003,1.241748e+001
1.852200e+003,1.591193e+001
1.853164e+003,1.672662e+001
1.854128e+003,1.488550e+001
1.855093e+003,1.317957e+001
1.856057e+003,1.299542e+001
1.857021e+003,1.356873e+001
1.857985e+003,1.413239e+001
1.858949e+003,1.457117e+001
1.859914e+003,1.451923e+001
1.860878e+003,1.432941e+001
1.861842e+003,1.594043e+001
1.862806e+003,1.931470e+001
1.863771e+003,2.081122e+001
1.864735e+003,1.927789e+001
1.865699e+003,1.768329e+001
1.866663e+003,1.747430e+001
1.867627e+003,1.789642e+001
1.868592e+003,1.809235e+001
1.869556e+003,1.796204e+001
1.870520e+003,1.829132e+001
1.871484e+003,1.878815e+001
1.872449e+003,1.715948e+001
1.873413e+003,1.272809e+001
1.874377e+003,1.172278e+001
1.875341e+003,1.749884e+001
1.876306e+003,2.341748e+001
1.877270e+003,2.600391e+001
1.878234e+003,2.679419e+001
1.879198e+003,2.714673e+001
1.880163e+003,2.728314e+001
1.881127e+003,2.722699e+001
1.882091e+003,2.705682e+001
1.883055e+003,2.673877e+001
1.884020e+003,2.628900e+001
1.884984e+003,2.622449e+001
1.885948e+003,2.706915e+001
1.886912e+003,2.815851e+001
1.887876e+003,2.815009e+001
1.888841e+003,2.717877e+001
1.889805e+003,2.635590e+001
1.890769e+003,2.556458e+001
1.891733e+003,2.564752e+001
1.892698e+003,2.690491e+001
1.893662e+003,2.785181e+001
1.894626e+003,2.817834e+001
1.895590e+003,2.804840e+001
1.896554e+003,2.779785e+001
1.897519e+003,2.735803e+001
1.898483e+003,2.560962e+001
1.899447e+003,2.308044e+001
1.900411e+003,2.290076e+001
1.901376e+003,2.588055e+001
1.902340e+003,2.789514e+001
1.903304e+003,2.636414e+001
1.904268e+003,2.499738e+001
1.905233e+003,2.721539e+001
1.906197e+003,2.984827e+001
1.907161e+003,2.890625e+001
1.908125e+003,2.646869e+001
1.909090e+003,2.633698e+001
1.910054e+003,2.836334e+001
1.911018e+003,3.047955e+001
1.911982e+003,3.204633e+001
1.912947e+003,3.349255e+001
1.913911e+003,3.504730e+001
1.914875e+003,3.605066e+001
1.915839e+003,3.523578e+001
1.916803e+003,3.282330e+001
1.917768e+003,3.132745e+001
1.918732e+003,3.117670e+001
1.919696e+003,3.053790e+001
1.920660e+003,2.899963e+001
1.921625e+003,2.869415e+001
1.922589e+003,3.038184e+001
1.923553e+003,3.240680e+001
1.924517e+003,3.422028e+001
1.925481e+003,3.580072e+001
1.926446e+003,3.750159e+001
1.927410e+003,3.885315e+001
1.928374e+003,3.841254e+001
1.929338e+003,3.611823e+001
1.930303e+003,3.461078e+001
1.931267e+003,3.511206e+001
1.932231e+003,3.627020e+001
1.933195e+003,3.769720e+001
1.934160e+003,3.858783e+001
1.935124e+003,3.757825e+001
1.936088e+003,3.613544e+001
1.937052e+003,3.694421e+001
1.938017e+003,3.902942e+001
1.938981e+003,3.937805e+001
1.939945e+003,3.775165e+001
1.940909e+003,3.594769e+001
1.941874e+003,3.487250e+001
1.942838e+003,3.517072e+001
1.943802e+003,3.782642e+001
1.944766e+003,4.175140e+001
1.945730e+003,4.419751e+001
1.946695e+003,4.503790e+001
1.947659e+003,4.490747e+001
1.948623e+003,4.359631e+001
1.949587e+003,4.270062e+001
1.950552e+003,4.257428e+001
1.951516e+003,4.291602e+001
1.952480e+003,4.393353e+001
1.953444e+003,4.466626e+001
1.954408e+003,4.390436e+001
1.955373e+003,4.261194e+001
1.956337e+003,4.266302e+001
1.957301e+003,4.398376e+001
1.958265e+003,4.521228e+001
1.959230e+003,4.642242e+001
1.960194e+003,4.702618e+001
1.961158e+003,4.627325e+001
1.962122e+003,4.480316e+001
1.963087e+003,4.151678e+001
1.964051e+003,3.927338e+001
1.965015e+003,4.118909e+001
1.965979e+003,4.425128e+001
1.966944e+003,4.439178e+001
1.967908e+003,4.310699e+001
1.968872e+003,4.452216e+001
1.969836e+003,4.858087e+001
1.970801e+003,5.156213e+001
1.971765e+003,5.194562e+001
1.972729e+003,5.154120e+001
1.973693e+003,5.178796e+001
1.974657e+003,5.224921e+001
1.975622e+003,5.207623e+001
1.976586e+003,5.144049e+001
1.977550e+003,5.109998e+001
1.978514e+003,5.119836e+001
1.979479e+003,5.176160e+001
1.980443e+003,5.270624e+001
1.981407e+003,5.391034e+001
1.982371e+003,5.548145e+001
1.983335e+003,5.719189e+001
1.984300e+003,5.879999e+001
1.985264e+003,5.956372e+001
1.986228e+003,5.844720e+001
1.987192e+003,5.580164e+001
1.988157e+003,5.342078e+001
1.989121e+003,5.122552e+001
1.990085e+003,5.054254e+001
1.991049e+003,5.291931e+001
1.992014e+003,5.405170e+001
1.992978e+003,5.121210e+001
1.993942e+003,4.973621e+001
1.994906e+003,5.295404e+001
1.995871e+003,5.663403e+001
1.996835e+003,5.718683e+001
1.997799e+003,5.674060e+001
1.998763e+003,5.851978e+001
1.999728e+003,6.209296e+001
