5.003444e+002,3.607425e+001
5.013087e+002,3.671088e+001
5.022729e+002,3.555054e+001
5.032371e+002,3.322607e+001
5.042014e+002,3.135947e+001
5.051656e+002,2.993115e+001
5.061298e+002,2.854544e+001
5.070941e+002,2.670761e+001
5.080583e+002,2.399295e+001
5.090225e+002,2.280264e+001
5.099868e+002,2.360092e+001
5.109510e+002,2.485437e+001
5.119152e+002,2.593176e+001
5.128795e+002,2.681747e+001
5.138437e+002,2.756384e+001
5.148079e+002,2.888724e+001
5.157722e+002,2.957559e+001
5.167364e+002,2.856293e+001
5.177006e+002,2.597552e+001
5.186649e+002,2.314609e+001
5.196291e+002,2.190482e+001
5.205933e+002,2.166400e+001
5.215576e+002,2.162228e+001
5.225218e+002,2.146170e+001
5.234860e+002,2.103088e+001
5.244503e+002,2.027328e+001
5.254145e+002,1.935892e+001
5.263787e+002,1.834586e+001
5.273430e+002,1.674985e+001
5.283072e+002,1.536804e+001
5.292714e+002,1.546451e+001
5.302357e+002,1.801260e+001
5.311999e+002,1.922357e+001
5.321641e+002,1.808896e+001
5.331284e+002,1.659457e+001
5.340926e+002,1.626071e+001
5.350568e+002,1.759741e+001
5.360211e+002,1.902151e+001
5.369853e+002,1.948898e+001
5.379495e+002,1.953595e+001
5.389138e+002,1.941956e+001
5.398780e+002,1.923102e+001
5.408422e+002,1.888593e+001
5.418065e+002,1.804630e+001
5.427707e+002,1.682797e+001
5.437349e+002,1.629163e+001
5.446992e+002,1.694299e+001
5.456634e+002,1.826178e+001
5.466276e+002,1.847717e+001
5.475919e+002,1.639017e+001
5.485561e+002,1.472192e+001
5.495203e+002,1.369775e+001
5.504846e+002,1.294202e+001
5.514488e+002,1.182950e+001
5.524130e+002,9.767273e+000
5.533773e+002,8.655365e+000
5.543415e+002,9.968109e+000
5.553057e+002,1.220016e+001
5.562700e+002,1.371207e+001
5.572342e+002,1.348160e+001
5.581984e+002,1.237396e+001
5.591627e+002,1.302789e+001
5.601269e+002,1.476288e+001
5.610911e+002,1.581467e+001
5.620554e+002,1.518408e+001
5.630196e+002,1.298602e+001
5.639838e+002,1.094257e+001
5.649481e+002,8.510040e+000
5.659123e+002,7.016571e+000
5.668765e+002,7.484802e+000
5.678408e+002,9.370514e+000
5.688050e+002,1.084735e+001
5.697692e+002,1.134558e+001
5.707335e+002,1.077463e+001
5.716977e+002,8.307617e+000
5.726619e+002,5.270508e+000
5.736262e+002,3.349854e+000
5.745904e+002,3.777344e+000
5.755546e+002,5.623901e+000
5.765189e+002,7.759033e+000
5.774831e+002,9.601410e+000
5.784473e+002,1.015335e+001
5.794116e+002,8.827362e+000
5.803758e+002,5.968872e+000
5.813400e+002,4.248352e+000
5.823043e+002,3.177002e+000
5.832685e+002,3.093414e+000
5.842327e+002,5.238037e+000
5.851970e+002,9.201477e+000
5.861612e+002,1.143231e+001
5.871254e+002,1.009772e+001
5.880897e+002,7.924866e+000
5.890539e+002,3.994934e+000
5.900181e+002,-2.787781e-001
5.909824e+002,-2.593842e+000
5.919466e+002,-9.474487e-001
5.929108e+002,2.218079e+000
5.938751e+002,4.296204e+000
5.948393e+002,5.629395e+000
5.958035e+002,6.982056e+000
5.967678e+002,8.923492e+000
5.977320e+002,1.114841e+001
5.986962e+002,9.718689e+000
5.996605e+002,4.310944e+000
6.006247e+002,-2.455444e-001
6.015889e+002,-1.153351e+000
6.025532e+002,1.298737e+000
6.035174e+002,2.326660e+000
6.044816e+002,-7.980957e-001
6.054459e+002,-2.311066e+000
6.064101e+002,2.513123e-001
6.073743e+002,4.708984e+000
6.083386e+002,6.831024e+000
6.093028e+002,3.303467e+000
6.102670e+002,-5.922241e-001
6.112313e+002,-1.157440e+000
6.121955e+002,5.614319e-001
6.131597e+002,3.654053e+000
6.141240e+002,7.416229e+000
6.150882e+002,1.120547e+001
6.160524e+002,1.216959e+001
6.170167e+002,1.091812e+001
6.179809e+002,8.780945e+000
6.189451e+002,5.753510e+000
6.199094e+002,2.048035e+000
6.208736e+002,6.875610e-002
6.218378e+002,2.949829e+000
6.228021e+002,4.400238e+000
6.237663e+002,3.047211e+000
6.247305e+002,2.129517e-001
6.256948e+002,-2.213867e+000
6.266590e+002,-4.085480e+000
6.276232e+002,-4.466278e+000
6.285875e+002,-1.921600e+000
6.295517e+002,1.728058e+000
6.305159e+002,4.883240e+000
6.314802e+002,6.515350e+000
6.324444e+002,6.466187e+000
6.334086e+002,2.771027e+000
6.343729e+002,-2.953308e+000
6.353371e+002,-6.091858e+000
6.363013e+002,-4.708282e+000
6.372656e+002,-2.010803e-001
6.382298e+002,2.598145e+000
6.391940e+002,1.912415e+000
6.401583e+002,1.482910e+000
6.411225e+002,2.117798e+000
6.420867e+002,3.074890e+000
6.430510e+002,3.228943e+000
6.440152e+002,1.893097e+000
6.449794e+002,3.421326e-001
6.459437e+002,-1.199738e+000
6.469079e+002,-2.340515e+000
6.478721e+002,-2.232239e+000
6.488364e+002,-7.964783e-001
6.498006e+002,6.933289e-001
6.507648e+002,-7.745972e-001
6.517291e+002,-4.020233e+000
6.526933e+002,-5.977783e+000
6.536575e+002,-6.061188e+000
6.546218e+002,-4.943817e+000
6.555860e+002,-3.869080e+000
6.565502e+002,-2.764618e+000
6.575145e+002,-1.987061e+000
6.584787e+002,-2.226196e+000
6.594429e+002,-2.187622e+000
6.604072e+002,-2.688293e-001
6.613714e+002,4.080353e+000
6.623356e+002,7.001495e+000
6.632999e+002,4.902710e+000
6.642641e+002,2.186340e+000
6.652283e+002,1.506256e+000
6.661926e+002,2.898590e+000
6.671568e+002,4.384460e+000
6.681210e+002,3.315338e+000
6.690853e+002,6.043701e-001
6.700495e+002,-9.998474e-001
6.710137e+002,-1.442261e+000
6.719780e+002,-1.120270e+000
6.729422e+002,-3.961792e-001
6.739064e+002,8.431702e-001
6.748707e+002,1.260132e+000
6.758349e+002,3.194580e-001
6.767991e+002,-6.506348e-001
6.777634e+002,-7.482300e-001
6.787276e+002,-2.471924e-003
6.796918e+002,3.763428e-001
6.806561e+002,-9.915466e-001
6.816203e+002,-2.146637e+000
6.825845e+002,-2.168060e+000
6.835488e+002,-1.470367e+000
6.845130e+002,-6.619568e-001
6.854772e+002,-9.213257e-002
6.864415e+002,1.321716e-001
6.874057e+002,-7.689819e-001
6.883699e+002,-2.581665e+000
6.893342e+002,-4.278961e+000
6.902984e+002,-5.222595e+000
6.912626e+002,-5.467407e+000
6.922269e+002,-5.823029e+000
6.931911e+002,-7.090179e+000
6.941553e+002,-6.728485e+000
6.951196e+002,-3.477234e+000
6.960838e+002,8.359070e-001
6.970480e+002,3.456940e+000
6.980123e+002,3.533142e+000
6.989765e+002,2.763763e+000
6.999407e+002,1.033813e+000
7.009050e+002,-5.019226e-001
7.018692e+002,-4.754944e-001
7.028334e+002,1.302979e+000
7.037977e+002,3.148682e+000
7.047619e+002,1.887085e+000
7.057261e+002,-8.560791e-001
7.066904e+002,-1.802979e+000
7.076546e+002,-4.479065e-001
7.086188e+002,1.644348e+000
7.095831e+002,1.912903e+000
7.105473e+002,-7.528687e-001
7.115115e+002,-2.065430e+000
7.124758e+002,-1.151337e+000
7.134400e+002,-1.748352e-001
7.144042e+002,-6.384277e-001
7.153685e+002,-2.468140e+000
7.163327e+002,-3.543030e+000
7.172969e+002,-1.857330e+000
7.182612e+002,-9.463501e-002
7.192254e+002,7.577209e-001
7.201896e+002,6.909180e-001
7.211539e+002,-8.547974e-002
7.221181e+002,-1.492615e+000
7.230823e+002,-3.030273e+000
7.240466e+002,-3.311249e+000
7.250108e+002,-2.444580e+000
7.259750e+002,-1.200714e+000
7.269393e+002,-3.085327e-002
7.279035e+002,7.082825e-001
7.288677e+002,-2.371521e-001
7.298320e+002,-5.377899e+000
7.307962e+002,-8.221497e+000
7.317604e+002,-7.117279e+000
7.327247e+002,-3.918793e+000
7.336889e+002,-1.275391e+000
7.346531e+002,-2.164612e-001
7.356174e+002,2.826233e-001
7.365816e+002,1.219025e+000
7.375458e+002,2.314117e+000
7.385101e+002,3.555237e+000
7.394743e+002,4.777130e+000
7.404385e+002,5.455536e+000
7.414028e+002,4.328369e+000
7.423670e+002,1.593201e+000
7.433312e+002,3.556213e-001
7.442955e+002,1.249237e+000
7.452597e+002,2.761932e+000
7.462239e+002,2.831360e+000
7.471882e+002,6.658936e-001
7.481524e+002,1.572571e-001
7.491166e+002,2.605377e+000
7.500809e+002,4.356293e+000
7.510451e+002,3.534424e+000
7.520093e+002,7.868652e-001
7.529736e+002,-1.315430e+000
7.539378e+002,-1.050140e+000
7.549020e+002,-9.283447e-002
7.558663e+002,8.623962e-001
7.568306e+002,1.519165e+000
7.577948e+002,1.152802e+000
7.587590e+002,-6.286621e-001
7.597233e+002,-3.055786e+000
7.606875e+002,-2.971863e+000
7.616517e+002,-5.894165e-001
7.626160e+002,1.155273e+000
7.635802e+002,1.348969e+000
7.645444e+002,7.893066e-001
7.655087e+002,1.097229e+000
7.664729e+002,2.669312e+000
7.674371e+002,4.167908e+000
7.684014e+002,6.528809e+000
7.693656e+002,7.904297e+000
7.703298e+002,6.279327e+000
7.712941e+002,1.880463e+000
7.722583e+002,-1.663269e+000
7.732225e+002,-1.025757e+000
7.741868e+002,9.783325e-001
7.751510e+002,2.762817e+000
7.761152e+002,3.981293e+000
7.770795e+002,4.267303e+000
7.780437e+002,3.251099e+000
7.790079e+002,1.102600e+000
7.799722e+002,-4.290161e-001
7.809364e+002,-1.578217e+000
7.819006e+002,-1.709045e+000
7.828649e+002,2.996826e-001
7.838291e+002,3.753662e+000
7.847933e+002,6.031433e+000
7.857576e+002,6.641327e+000
7.867218e+002,5.870331e+000
7.876860e+002,2.510315e+000
7.886503e+002,-7.123108e-001
7.896145e+002,-1.262665e+000
7.905787e+002,1.384949e+000
7.915430e+002,4.873749e+000
7.925072e+002,7.038391e+000
7.934714e+002,8.015839e+000
7.944357e+002,7.960236e+000
7.953999e+002,7.134613e+000
7.963641e+002,5.862183e+000
7.973284e+002,4.353638e+000
7.982926e+002,2.530273e+000
7.992568e+002,2.521118e+000
8.002211e+002,5.176025e+000
8.011853e+002,6.826904e+000
8.021495e+002,5.752930e+000
8.031138e+002,3.083740e+000
8.040780e+002,2.074921e+000
8.050422e+002,4.112213e+000
8.060065e+002,5.972015e+000
8.069707e+002,6.221405e+000
8.079349e+002,5.795715e+000
8.088992e+002,5.965485e+000
8.098634e+002,7.148224e+000
8.108276e+002,8.187469e+000
8.117919e+002,6.757874e+000
8.127561e+002,3.672913e+000
8.137203e+002,1.311462e+000
8.146846e+002,1.536560e-001
8.156488e+002,-4.983215e-001
8.166130e+002,-1.726471e+000
8.175773e+002,-3.921936e+000
8.185415e+002,-4.623169e+000
8.195057e+002,-3.727966e+000
8.204700e+002,-2.201202e+000
8.214342e+002,1.900635e-001
8.223984e+002,2.980042e+000
8.233627e+002,5.013794e+000
8.243269e+002,5.772400e+000
8.252911e+002,6.092957e+000
8.262554e+002,6.137482e+000
8.272196e+002,6.265991e+000
8.281838e+002,7.292450e+000
8.291481e+002,9.220825e+000
8.301123e+002,1.064029e+001
8.310765e+002,8.536041e+000
8.320408e+002,3.348236e+000
8.330050e+002,1.297668e+000
8.339692e+002,3.418549e+000
8.349335e+002,6.655518e+000
8.358977e+002,7.941315e+000
8.368619e+002,7.076538e+000
8.378262e+002,6.657288e+000
8.387904e+002,6.529297e+000
8.397546e+002,6.798584e+000
8.407189e+002,7.957855e+000
8.416831e+002,9.468811e+000
8.426473e+002,1.035922e+001
8.436116e+002,1.009781e+001
8.445758e+002,9.710815e+000
8.455400e+002,1.037289e+001
8.465043e+002,1.108353e+001
8.474685e+002,1.081976e+001
8.484327e+002,9.539612e+000
8.493970e+002,8.114655e+000
8.503612e+002,7.800476e+000
8.513254e+002,8.809540e+000
8.522897e+002,8.376221e+000
8.532539e+002,4.986481e+000
8.542181e+002,2.012909e+000
8.551824e+002,1.813354e+000
8.561466e+002,4.310333e+000
8.571108e+002,7.211304e+000
8.580751e+002,9.730774e+000
8.590393e+002,1.207773e+001
8.600035e+002,1.538345e+001
8.609678e+002,1.838596e+001
8.619320e+002,1.935254e+001
8.628962e+002,1.767313e+001
8.638605e+002,1.489609e+001
8.648247e+002,1.311960e+001
8.657889e+002,1.209027e+001
8.667532e+002,1.126746e+001
8.677174e+002,1.059274e+001
8.686816e+002,1.068127e+001
8.696459e+002,1.259140e+001
8.706101e+002,1.693326e+001
8.715743e+002,1.915033e+001
8.725386e+002,1.783072e+001
8.735028e+002,1.647403e+001
8.744670e+002,1.498206e+001
8.754313e+002,1.396457e+001
8.763955e+002,1.498917e+001
8.773597e+002,1.935419e+001
8.783240e+002,2.347992e+001
8.792882e+002,2.494043e+001
8.802524e+002,2.478094e+001
8.812167e+002,2.319928e+001
8.821809e+002,2.071732e+001
8.831451e+002,1.855597e+001
8.841094e+002,1.843866e+001
8.850736e+002,2.037100e+001
8.860378e+002,2.054922e+001
8.870021e+002,1.816269e+001
8.879663e+002,1.656519e+001
8.889305e+002,1.833350e+001
8.898948e+002,2.255286e+001
8.908590e+002,2.472250e+001
8.918232e+002,2.343619e+001
8.927875e+002,2.215134e+001
8.937517e+002,2.098175e+001
8.947159e+002,2.055789e+001
8.956802e+002,2.163605e+001
8.966444e+002,2.404156e+001
8.976086e+002,2.648538e+001
8.985729e+002,2.833929e+001
8.995371e+002,2.907175e+001
9.005013e+002,2.670291e+001
9.014656e+002,2.215259e+001
9.024298e+002,1.945889e+001
9.033940e+002,2.179535e+001
9.043583e+002,2.819833e+001
9.053225e+002,3.217075e+001
9.062867e+002,3.100134e+001
9.072510e+002,3.041962e+001
9.082152e+002,3.170905e+001
9.091794e+002,3.330637e+001
9.101437e+002,3.332910e+001
9.111079e+002,3.144000e+001
9.120721e+002,2.982645e+001
9.130364e+002,3.011557e+001
9.140006e+002,3.040143e+001
9.149648e+002,2.978317e+001
9.159291e+002,2.852792e+001
9.168933e+002,2.693246e+001
9.178575e+002,2.514853e+001
9.188218e+002,2.356183e+001
9.197860e+002,2.440295e+001
9.207502e+002,2.770322e+001
9.217145e+002,2.910675e+001
9.226787e+002,2.699463e+001
9.236429e+002,2.387830e+001
9.246072e+002,2.299533e+001
9.255714e+002,2.459003e+001
9.265356e+002,2.633475e+001
9.274999e+002,2.821515e+001
9.284641e+002,2.960431e+001
9.294283e+002,3.094299e+001
9.303926e+002,3.163098e+001
9.313568e+002,3.004279e+001
9.323210e+002,2.511725e+001
9.332853e+002,1.991794e+001
9.342495e+002,2.048209e+001
9.352137e+002,2.387897e+001
9.361780e+002,2.624591e+001
9.371422e+002,2.685870e+001
9.381064e+002,2.649213e+001
9.390707e+002,2.589426e+001
9.400349e+002,2.476691e+001
9.409991e+002,2.396539e+001
9.419634e+002,2.353152e+001
9.429276e+002,2.321155e+001
9.438918e+002,2.296661e+001
9.448561e+002,2.286679e+001
9.458203e+002,2.312436e+001
9.467845e+002,2.394907e+001
9.477488e+002,2.471219e+001
9.487130e+002,2.461035e+001
9.496772e+002,2.439127e+001
9.506415e+002,2.479846e+001
9.516057e+002,2.573727e+001
9.525699e+002,2.657935e+001
9.535342e+002,2.670313e+001
9.544984e+002,2.600903e+001
9.554626e+002,2.383792e+001
9.564269e+002,1.965021e+001
9.573911e+002,1.772366e+001
9.583553e+002,2.060352e+001
9.593196e+002,2.567606e+001
9.602838e+002,2.889484e+001
9.612480e+002,2.995551e+001
9.622123e+002,2.939688e+001
9.631765e+002,2.548126e+001
9.641407e+002,2.205212e+001
9.651050e+002,2.099796e+001
9.660692e+002,2.174533e+001
9.670334e+002,2.314139e+001
9.679977e+002,2.463327e+001
9.689619e+002,2.573938e+001
9.699261e+002,2.401373e+001
9.708904e+002,2.044528e+001
9.718546e+002,1.839810e+001
9.728188e+002,1.856244e+001
9.737831e+002,2.022745e+001
9.747473e+002,2.287076e+001
9.757115e+002,2.691013e+001
9.766758e+002,3.001035e+001
9.776400e+002,3.292035e+001
9.786042e+002,3.430457e+001
9.795685e+002,3.319351e+001
9.805327e+002,3.032745e+001
9.814969e+002,2.645786e+001
9.824612e+002,2.195389e+001
9.834254e+002,1.796173e+001
9.843896e+002,1.520862e+001
9.853539e+002,1.353992e+001
9.863181e+002,1.308157e+001
9.872823e+002,1.361502e+001
9.882466e+002,1.484598e+001
9.892108e+002,1.674963e+001
9.901750e+002,1.943494e+001
9.911393e+002,2.160898e+001
9.921035e+002,2.160858e+001
9.930677e+002,2.272742e+001
9.940320e+002,2.704294e+001
9.949962e+002,3.142584e+001
9.959604e+002,3.211011e+001
9.969247e+002,2.912180e+001
9.978889e+002,2.792316e+001
9.988531e+002,3.216220e+001
9.998174e+002,3.694687e+001
1.000782e+003,4.057156e+001
1.001746e+003,4.263129e+001
1.002710e+003,4.196158e+001
1.003674e+003,3.842880e+001
1.004639e+003,3.419937e+001
1.005603e+003,3.321704e+001
1.006567e+003,3.579330e+001
1.007531e+003,3.744302e+001
1.008495e+003,3.813992e+001
1.009460e+003,3.815344e+001
1.010424e+003,3.743262e+001
1.011388e+003,3.620450e+001
1.012352e+003,3.520068e+001
1.013317e+003,3.446051e+001
1.014281e+003,3.379269e+001
1.015245e+003,3.353610e+001
1.016209e+003,3.280484e+001
1.017174e+003,3.072977e+001
1.018138e+003,2.755490e+001
1.019102e+003,2.431595e+001
1.020066e+003,2.186319e+001
1.021031e+003,2.020746e+001
1.021995e+003,1.928992e+001
1.022959e+003,1.874466e+001
1.023923e+003,1.769922e+001
1.024887e+003,1.581464e+001
1.025852e+003,1.330887e+001
1.026816e+003,1.023178e+001
1.027780e+003,6.214050e+000
1.028744e+003,4.187256e+000
1.029709e+003,6.110718e+000
1.030673e+003,7.897797e+000
1.031637e+003,8.387146e+000
1.032601e+003,7.879059e+000
1.033566e+003,6.538605e+000
1.034530e+003,4.568542e+000
1.035494e+003,3.679169e+000
1.036458e+003,7.089874e+000
1.037422e+003,1.178592e+001
1.038387e+003,1.209631e+001
1.039351e+003,8.270630e+000
1.040315e+003,4.793335e+000
1.041279e+003,5.224182e+000
1.042244e+003,8.638794e+000
1.043208e+003,9.962952e+000
1.044172e+003,6.694458e+000
1.045136e+003,5.228882e+000
1.046101e+003,7.190582e+000
1.047065e+003,9.574890e+000
1.048029e+003,1.021582e+001
1.048993e+003,9.423431e+000
1.049958e+003,9.338867e+000
1.050922e+003,1.154761e+001
1.051886e+003,1.353833e+001
1.052850e+003,1.187360e+001
1.053814e+003,8.810516e+000
1.054779e+003,7.188141e+000
1.055743e+003,7.603882e+000
1.056707e+003,9.067688e+000
1.057671e+003,1.048721e+001
1.058636e+003,1.182397e+001
1.059600e+003,1.190759e+001
1.060564e+003,9.552673e+000
1.061528e+003,8.234711e+000
1.062493e+003,8.998260e+000
1.063457e+003,1.024646e+001
1.064421e+003,1.039038e+001
1.065385e+003,9.329498e+000
1.066349e+003,7.906738e+000
1.067314e+003,5.889221e+000
1.068278e+003,4.485687e+000
1.069242e+003,4.756592e+000
1.070206e+003,6.166473e+000
1.071171e+003,7.953003e+000
1.072135e+003,9.612793e+000
1.073099e+003,1.085944e+001
1.074063e+003,1.133209e+001
1.075028e+003,1.101895e+001
1.075992e+003,1.101538e+001
1.076956e+003,1.179785e+001
1.077920e+003,1.176160e+001
1.078885e+003,9.928253e+000
1.079849e+003,7.309570e+000
1.080813e+003,5.545898e+000
1.081777e+003,4.906494e+000
1.082741e+003,5.014191e+000
1.083706e+003,6.078949e+000
1.084670e+003,7.128723e+000
1.085634e+003,7.826599e+000
1.086598e+003,8.058777e+000
1.087563e+003,7.512512e+000
1.088527e+003,6.216766e+000
1.089491e+003,5.227631e+000
1.090455e+003,6.564606e+000
1.091420e+003,1.039465e+001
1.092384e+003,1.221472e+001
1.093348e+003,1.139655e+001
1.094312e+003,9.524567e+000
1.095276e+003,6.977478e+000
1.096241e+003,4.332489e+000
1.097205e+003,3.178802e+000
1.098169e+003,4.031982e+000
1.099133e+003,4.959839e+000
1.100098e+003,5.354736e+000
1.101062e+003,5.656158e+000
1.102026e+003,6.121765e+000
1.102990e+003,6.751740e+000
1.103955e+003,7.531586e+000
1.104919e+003,8.397308e+000
1.105883e+003,8.865906e+000
1.106847e+003,7.598663e+000
1.107812e+003,4.618408e+000
1.108776e+003,4.373138e+000
1.109740e+003,8.416687e+000
1.110704e+003,1.237070e+001
1.111668e+003,1.278671e+001
1.112633e+003,1.065936e+001
1.113597e+003,9.868225e+000
1.114561e+003,1.122760e+001
1.115525e+003,1.245105e+001
1.116490e+003,1.262762e+001
1.117454e+003,1.259167e+001
1.118418e+003,1.319287e+001
1.119382e+003,1.426047e+001
1.120347e+003,1.464417e+001
1.121311e+003,1.349686e+001
1.122275e+003,1.205692e+001
1.123239e+003,1.382260e+001
1.124203e+003,1.870084e+001
1.125168e+003,2.188470e+001
1.126132e+003,2.259967e+001
1.127096e+003,2.290359e+001
1.128060e+003,2.468219e+001
1.129025e+003,2.729346e+001
1.129989e+003,2.761514e+001
1.130953e+003,2.360904e+001
1.131917e+003,2.136505e+001
1.132882e+003,2.381003e+001
1.133846e+003,2.712643e+001
1.134810e+003,2.920737e+001
1.135774e+003,3.018515e+001
1.136739e+003,3.095935e+001
1.137703e+003,3.204236e+001
1.138667e+003,3.355078e+001
1.139631e+003,3.579550e+001
1.140595e+003,3.873373e+001
1.141560e+003,4.183511e+001
1.142524e+003,4.486438e+001
1.143488e+003,4.941797e+001
1.144452e+003,5.689111e+001
1.145417e+003,6.669656e+001
1.146381e+003,7.685611e+001
1.147345e+003,8.768835e+001
1.148309e+003,9.764117e+001
1.149274e+003,1.068337e+002
1.150238e+003,1.148926e+002
1.151202e+003,1.212858e+002
1.152166e+003,1.266654e+002
1.153130e+003,1.323513e+002
1.154095e+003,1.386489e+002
1.155059e+003,1.436914e+002
1.156023e+003,1.451793e+002
1.156987e+003,1.431840e+002
1.157952e+003,1.393123e+002
1.158916e+003,1.338564e+002
1.159880e+003,1.272659e+002
1.160844e+003,1.187430e+002
1.161809e+003,1.088482e+002
1.162773e+003,9.939655e+001
1.163737e+003,9.040491e+001
1.164701e+003,8.192038e+001
1.165666e+003,7.357397e+001
1.166630e+003,6.647729e+001
1.167594e+003,6.120746e+001
1.168558e+003,5.734335e+001
1.169522e+003,5.442123e+001
1.170487e+003,5.224155e+001
1.171451e+003,5.088342e+001
1.172415e+003,5.046405e+001
1.173379e+003,5.077740e+001
1.174344e+003,5.126276e+001
1.175308e+003,5.211053e+001
1.176272e+003,5.200891e+001
1.177236e+003,4.991675e+001
1.178201e+003,4.727774e+001
1.179165e+003,4.604141e+001
1.180129e+003,4.608426e+001
1.181093e+003,4.512149e+001
1.182057e+003,4.188315e+001
1.183022e+003,3.899918e+001
1.183986e+003,3.751807e+001
1.184950e+003,3.677661e+001
1.185914e+003,3.596362e+001
1.186879e+003,3.521707e+001
1.187843e+003,3.569849e+001
1.188807e+003,3.835114e+001
1.189771e+003,4.198410e+001
1.190736e+003,4.318423e+001
1.191700e+003,4.170660e+001
1.192664e+003,3.968365e+001
1.193628e+003,3.630292e+001
1.194593e+003,3.394012e+001
1.195557e+003,3.554965e+001
1.196521e+003,3.955255e+001
1.197485e+003,4.003156e+001
1.198449e+003,3.496057e+001
1.199414e+003,3.013159e+001
1.200378e+003,2.862668e+001
1.201342e+003,2.783359e+001
1.202306e+003,2.601758e+001
1.203271e+003,2.351559e+001
1.204235e+003,2.147803e+001
1.205199e+003,2.050644e+001
1.206163e+003,2.024380e+001
1.207128e+003,2.011984e+001
1.208092e+003,2.018347e+001
1.209056e+003,1.929477e+001
1.210020e+003,1.705475e+001
1.210984e+003,1.488443e+001
1.211949e+003,1.365939e+001
1.212913e+003,1.233652e+001
1.213877e+003,9.018463e+000
1.214841e+003,3.771271e+000
1.215806e+003,2.370605e-001
1.216770e+003,3.380737e-001
1.217734e+003,1.687958e+000
1.218698e+003,3.534760e+000
1.219663e+003,4.771912e+000
1.220627e+003,3.334259e+000
1.221591e+003,-5.080261e-001
1.222555e+003,-3.896271e+000
1.223520e+003,-4.119537e+000
1.224484e+003,-1.776611e+000
1.225448e+003,-9.332275e-002
1.226412e+003,9.658508e-001
1.227376e+003,9.478760e-001
1.228341e+003,-8.629761e-001
1.229305e+003,-3.029541e+000
1.230269e+003,-5.507996e+000
1.231233e+003,-7.608032e+000
1.232198e+003,-7.448090e+000
1.233162e+003,-4.304352e+000
1.234126e+003,-1.680817e+000
1.235090e+003,-2.932465e+000
1.236055e+003,-5.422607e+000
1.237019e+003,-6.717102e+000
1.237983e+003,-6.819122e+000
1.238947e+003,-5.500671e+000
1.239911e+003,-2.615814e+000
1.240876e+003,4.627075e-001
1.241840e+003,1.625824e+000
1.242804e+003,8.295288e-001
1.243768e+003,-7.580261e-001
1.244733e+003,-5.173401e+000
1.245697e+003,-7.541107e+000
1.246661e+003,-6.346069e+000
1.247625e+003,-4.372314e+000
1.248590e+003,-3.210724e+000
1.249554e+003,-2.929260e+000
1.250518e+003,-3.592072e+000
1.251482e+003,-5.494568e+000
1.252447e+003,-6.688019e+000
1.253411e+003,-3.645691e+000
1.254375e+003,1.510010e+000
1.255339e+003,3.917450e+000
1.256303e+003,3.530792e+000
1.257268e+003,2.898651e+000
1.258232e+003,3.241516e+000
1.259196e+003,4.047058e+000
1.260160e+003,4.556854e+000
1.261125e+003,4.852203e+000
1.262089e+003,5.371613e+000
1.263053e+003,5.785278e+000
1.264017e+003,6.571930e+000
1.264982e+003,8.570709e+000
1.265946e+003,1.059622e+001
1.266910e+003,1.193680e+001
1.267874e+003,1.221252e+001
1.268839e+003,1.065533e+001
1.269803e+003,6.723541e+000
1.270767e+003,2.096436e+000
1.271731e+003,1.602173e-001
1.272695e+003,9.834900e-001
1.273660e+003,1.537750e+000
1.274624e+003,1.366943e+000
1.275588e+003,1.170715e+000
1.276552e+003,2.227783e+000
1.277517e+003,3.439301e+000
1.278481e+003,1.990967e+000
1.279445e+003,-2.583374e+000
1.280409e+003,-6.093872e+000
1.281374e+003,-6.967072e+000
1.282338e+003,-6.621277e+000
1.283302e+003,-5.255829e+000
1.284266e+003,-3.590485e+000
1.285230e+003,-2.213074e+000
1.286195e+003,-1.385406e+000
1.287159e+003,-1.285767e+000
1.288123e+003,-1.995758e+000
1.289087e+003,-3.149323e+000
1.290052e+003,-3.997711e+000
1.291016e+003,-4.761047e+000
1.291980e+003,-4.802643e+000
1.292944e+003,-3.884583e+000
1.293909e+003,-2.948486e+000
1.294873e+003,-1.762024e+000
1.295837e+003,-8.117676e-001
1.296801e+003,-1.119751e+000
1.297766e+003,-2.691040e+000
1.298730e+003,-3.993561e+000
1.299694e+003,-4.193115e+000
1.300658e+003,-4.168579e+000
1.301622e+003,-5.260071e+000
1.302587e+003,-6.515778e+000
1.303551e+003,-6.056702e+000
1.304515e+003,-3.687683e+000
1.305479e+003,-1.541260e+000
1.306444e+003,-1.508331e+000
1.307408e+003,-2.999664e+000
1.308372e+003,-3.825287e+000
1.309336e+003,-3.940063e+000
1.310301e+003,-3.538422e+000
1.311265e+003,-1.001862e+000
1.312229e+003,2.216492e-001
1.313193e+003,-2.497772e+000
1.314157e+003,-6.040558e+000
1.315122e+003,-6.842133e+000
1.316086e+003,-4.882568e+000
1.317050e+003,-2.757874e+000
1.318014e+003,-2.059021e+000
1.318979e+003,-2.248566e+000
1.319943e+003,-2.845276e+000
1.320907e+003,-3.570679e+000
1.321871e+003,-2.753265e+000
1.322836e+003,-6.542969e-002
1.323800e+003,2.381378e+000
1.324764e+003,3.528381e+000
1.325728e+003,3.784912e+000
1.326693e+003,3.910065e+000
1.327657e+003,3.841553e+000
1.328621e+003,2.284973e+000
1.329585e+003,-2.520508e+000
1.330549e+003,-5.384583e+000
1.331514e+003,-2.432800e+000
1.332478e+003,1.706909e+000
1.333442e+003,2.636566e+000
1.334406e+003,6.032104e-001
1.335371e+003,-1.612671e+000
1.336335e+003,-2.311676e+000
1.337299e+003,-2.279266e+000
1.338263e+003,-3.143616e+000
1.339228e+003,-5.143463e+000
1.340192e+003,-5.686462e+000
1.341156e+003,-3.970245e+000
1.342120e+003,-2.113495e+000
1.343084e+003,2.780151e-002
1.344049e+003,1.497009e+000
1.345013e+003,1.322388e+000
1.345977e+003,4.263306e-002
1.346941e+003,-8.509521e-001
1.347906e+003,-8.165588e-001
1.348870e+003,-8.231201e-001
1.349834e+003,-2.264465e+000
1.350798e+003,-4.059204e+000
1.351763e+003,-3.619659e+000
1.352727e+003,-1.346100e+000
1.353691e+003,2.966309e-002
1.354655e+003,-5.775452e-001
1.355620e+003,-1.949646e+000
1.356584e+003,-2.946442e+000
1.357548e+003,-3.454834e+000
1.358512e+003,-2.716400e+000
1.359476e+003,-1.141357e-002
1.360441e+003,1.492371e+000
1.361405e+003,7.078857e-001
1.362369e+003,-9.083252e-001
1.363333e+003,-3.847015e+000
1.364298e+003,-6.595215e+000
1.365262e+003,-6.948029e+000
1.366226e+003,-4.646729e+000
1.367190e+003,-1.314423e+000
1.368155e+003,1.648682e+000
1.369119e+003,3.915710e+000
1.370083e+003,4.354279e+000
1.371047e+003,2.417633e+000
1.372011e+003,1.298920e+000
1.372976e+003,1.526581e+000
1.373940e+003,1.441101e+000
1.374904e+003,-2.325439e-001
1.375868e+003,-1.965332e+000
1.376833e+003,-1.524384e+000
1.377797e+003,9.134521e-001
1.378761e+003,3.094360e+000
1.379725e+003,4.325409e+000
1.380690e+003,4.374847e+000
1.381654e+003,1.667938e+000
1.382618e+003,-1.640503e+000
1.383582e+003,-2.264435e+000
1.384547e+003,-3.385925e-001
1.385511e+003,1.640106e+000
1.386475e+003,2.402649e+000
1.387439e+003,2.410431e+000
1.388403e+003,2.640930e+000
1.389368e+003,3.069122e+000
1.390332e+003,1.577759e+000
1.391296e+003,-3.821167e+000
1.392260e+003,-6.921539e+000
1.393225e+003,-5.263245e+000
1.394189e+003,-2.484344e+000
1.395153e+003,4.482727e-001
1.396117e+003,2.676544e+000
1.397082e+003,2.656036e+000
1.398046e+003,5.866394e-001
1.399010e+003,-6.224976e-001
1.399974e+003,1.679840e+000
1.400938e+003,5.596771e+000
1.401903e+003,5.508911e+000
1.402867e+003,3.733521e-001
1.403831e+003,-1.979706e+000
1.404795e+003,-2.028198e-001
1.405760e+003,1.915741e+000
1.406724e+003,2.713562e+000
1.407688e+003,2.836639e+000
1.408652e+003,3.653625e+000
1.409617e+003,5.177094e+000
1.410581e+003,5.862610e+000
1.411545e+003,4.953003e+000
1.412509e+003,3.834900e+000
1.413474e+003,3.886169e+000
1.414438e+003,4.235077e+000
1.415402e+003,3.638000e+000
1.416366e+003,2.406769e+000
1.417330e+003,1.741638e+000
1.418295e+003,2.244934e+000
1.419259e+003,2.970703e+000
1.420223e+003,2.495941e+000
1.421187e+003,1.003052e+000
1.422152e+003,3.568420e-001
1.423116e+003,8.760986e-001
1.424080e+003,2.014862e+000
1.425044e+003,4.231781e+000
1.426009e+003,6.024017e+000
1.426973e+003,6.821320e+000
1.427937e+003,6.785767e+000
1.428901e+003,5.594604e+000
1.429865e+003,3.866516e+000
1.430830e+003,3.490112e+000
1.431794e+003,5.582306e+000
1.432758e+003,8.528809e+000
1.433722e+003,9.267883e+000
1.434687e+003,7.797272e+000
1.435651e+003,7.821320e+000
1.436615e+003,1.079819e+001
1.437579e+003,1.181992e+001
1.438544e+003,8.890625e+000
1.439508e+003,5.659546e+000
1.440472e+003,4.289612e+000
1.441436e+003,4.733673e+000
1.442401e+003,6.961609e+000
1.443365e+003,1.057617e+001
1.444329e+003,1.326999e+001
1.445293e+003,1.332211e+001
1.446257e+003,1.175867e+001
1.447222e+003,9.895569e+000
1.448186e+003,7.894897e+000
1.449150e+003,7.218140e+000
1.450114e+003,8.462921e+000
1.451079e+003,8.855286e+000
1.452043e+003,6.049683e+000
1.453007e+003,2.507446e+000
1.453971e+003,1.627350e+000
1.454936e+003,3.081940e+000
1.455900e+003,4.682587e+000
1.456864e+003,6.214722e+000
1.457828e+003,7.382324e+000
1.458792e+003,7.484222e+000
1.459757e+003,7.381073e+000
1.460721e+003,8.024078e+000
1.461685e+003,8.944458e+000
1.462649e+003,9.136536e+000
1.463614e+003,8.449463e+000
1.464578e+003,7.614899e+000
1.465542e+003,7.212616e+000
1.466506e+003,7.003967e+000
1.467471e+003,6.289795e+000
1.468435e+003,4.876923e+000
1.469399e+003,5.029480e+000
1.470363e+003,8.114502e+000
1.471328e+003,1.056668e+001
1.472292e+003,1.134161e+001
1.473256e+003,1.113211e+001
1.474220e+003,1.038953e+001
1.475184e+003,9.529846e+000
1.476149e+003,8.556030e+000
1.477113e+003,7.584564e+000
1.478077e+003,7.738953e+000
1.479041e+003,1.036673e+001
1.480006e+003,1.425568e+001
1.480970e+003,1.480710e+001
1.481934e+003,1.062140e+001
1.482898e+003,8.139343e+000
1.483863e+003,7.679016e+000
1.484827e+003,8.183044e+000
1.485791e+003,1.037418e+001
1.486755e+003,1.287231e+001
1.487719e+003,1.405008e+001
1.488684e+003,1.429932e+001
1.489648e+003,1.515546e+001
1.490612e+003,1.720575e+001
1.491576e+003,1.999933e+001
1.492541e+003,2.342563e+001
1.493505e+003,2.669614e+001
1.494469e+003,2.763495e+001
1.495433e+003,2.650925e+001
1.496398e+003,2.619992e+001
1.497362e+003,2.743207e+001
1.498326e+003,2.925250e+001
1.499290e+003,3.070392e+001
1.500255e+003,3.272916e+001
1.501219e+003,3.706339e+001
1.502183e+003,4.320352e+001
1.503147e+003,4.825183e+001
1.504111e+003,5.128415e+001
1.505076e+003,5.470663e+001
1.506040e+003,6.004175e+001
1.507004e+003,6.638263e+001
1.507968e+003,7.227722e+001
1.508933e+003,7.852393e+001
1.509897e+003,8.714337e+001
1.510861e+003,9.867313e+001
1.511825e+003,1.110603e+002
1.512790e+003,1.227308e+002
1.513754e+003,1.340186e+002
1.514718e+003,1.461488e+002
1.515682e+003,1.589320e+002
1.516646e+003,1.701993e+002
1.517611e+003,1.797847e+002
1.518575e+003,1.884410e+002
1.519539e+003,1.985861e+002
1.520503e+003,2.059547e+002
1.521468e+003,2.067280e+002
1.522432e+003,2.038641e+002
1.523396e+003,2.015677e+002
1.524360e+003,2.003363e+002
1.525325e+003,1.981931e+002
1.526289e+003,1.938887e+002
1.527253e+003,1.872070e+002
1.528217e+003,1.774165e+002
1.529182e+003,1.646320e+002
1.530146e+003,1.519730e+002
1.531110e+003,1.398178e+002
1.532074e+003,1.266706e+002
1.533039e+003,1.102120e+002
1.534003e+003,9.467523e+001
1.534967e+003,8.276926e+001
1.535931e+003,7.289822e+001
1.536896e+003,6.276462e+001
1.537860e+003,5.260345e+001
1.538824e+003,4.433551e+001
1.539788e+003,3.881799e+001
1.540752e+003,3.498932e+001
1.541717e+003,3.169263e+001
1.542681e+003,2.891245e+001
1.543645e+003,2.588641e+001
1.544609e+003,2.247116e+001
1.545573e+003,1.975891e+001
1.546538e+003,1.747455e+001
1.547502e+003,1.567654e+001
1.548466e+003,1.468842e+001
1.549430e+003,1.442780e+001
1.550395e+003,1.484045e+001
1.551359e+003,1.564008e+001
1.552323e+003,1.665131e+001
1.553287e+003,1.774362e+001
1.554252e+003,1.778876e+001
1.555216e+003,1.554282e+001
1.556180e+003,1.216977e+001
1.557144e+003,1.041779e+001
1.558109e+003,1.043979e+001
1.559073e+003,1.060696e+001
1.560037e+003,1.087213e+001
1.561001e+003,1.068710e+001
1.561966e+003,1.006396e+001
1.562930e+003,9.259399e+000
1.563894e+003,7.706879e+000
1.564858e+003,6.108276e+000
1.565823e+003,6.730438e+000
1.566787e+003,9.801788e+000
1.567751e+003,1.205289e+001
1.568715e+003,1.149817e+001
1.569679e+003,1.010165e+001
1.570644e+003,1.035925e+001
1.571608e+003,1.147668e+001
1.572572e+003,1.123041e+001
1.573536e+003,9.636475e+000
1.574500e+003,9.059235e+000
1.575465e+003,1.071786e+001
1.576429e+003,1.274960e+001
1.577393e+003,1.360864e+001
1.578357e+003,1.368329e+001
1.579322e+003,1.389270e+001
1.580286e+003,1.433121e+001
1.581250e+003,1.451544e+001
1.582214e+003,1.425864e+001
1.583179e+003,1.383005e+001
1.584143e+003,1.325467e+001
1.585107e+003,1.256766e+001
1.586071e+003,1.182059e+001
1.587036e+003,1.138306e+001
1.588000e+003,1.204181e+001
1.588964e+003,1.392728e+001
1.589928e+003,1.524515e+001
1.590893e+003,1.421542e+001
1.591857e+003,1.259598e+001
1.592821e+003,1.349203e+001
1.593785e+003,1.636984e+001
1.594750e+003,1.767325e+001
1.595714e+003,1.658142e+001
1.596678e+003,1.591577e+001
1.597642e+003,1.706946e+001
1.598606e+003,1.865134e+001
1.599571e+003,1.991901e+001
1.600535e+003,2.082956e+001
1.601499e+003,2.124661e+001
1.602463e+003,2.112451e+001
1.603427e+003,2.035663e+001
1.604392e+003,1.880273e+001
1.605356e+003,1.747659e+001
1.606320e+003,1.772552e+001
1.607284e+003,1.890567e+001
1.608249e+003,1.896536e+001
1.609213e+003,1.784976e+001
1.610177e+003,1.742944e+001
1.611141e+003,1.833359e+001
1.612106e+003,1.915637e+001
1.613070e+003,1.908774e+001
1.614034e+003,1.876529e+001
1.614998e+003,1.894565e+001
1.615963e+003,1.908499e+001
1.616927e+003,1.754083e+001
1.617891e+003,1.448904e+001
1.618855e+003,1.312079e+001
1.619820e+003,1.556760e+001
1.620784e+003,1.875281e+001
1.621748e+003,1.809824e+001
1.622712e+003,1.464679e+001
1.623677e+003,1.355228e+001
1.624641e+003,1.531970e+001
1.625605e+003,1.685657e+001
1.626569e+003,1.732571e+001
1.627533e+003,1.682559e+001
1.628498e+003,1.503198e+001
1.629462e+003,1.310861e+001
1.630426e+003,1.154593e+001
1.631390e+003,1.067770e+001
1.632354e+003,1.152054e+001
1.633319e+003,1.403146e+001
1.634283e+003,1.597278e+001
1.635247e+003,1.558527e+001
1.636211e+003,1.390018e+001
1.637176e+003,1.264896e+001
1.638140e+003,1.192401e+001
1.639104e+003,1.195010e+001
1.640068e+003,1.286862e+001
1.641033e+003,1.368698e+001
1.641997e+003,1.426706e+001
1.642961e+003,1.473697e+001
1.643925e+003,1.516101e+001
1.644890e+003,1.548898e+001
1.645854e+003,1.571545e+001
1.646818e+003,1.573770e+001
1.647782e+003,1.513281e+001
1.648747e+003,1.385580e+001
1.649711e+003,1.314438e+001
1.650675e+003,1.426883e+001
1.651639e+003,1.641263e+001
1.652604e+003,1.780045e+001
1.653568e+003,1.834229e+001
1.654532e+003,1.802359e+001
1.655496e+003,1.651889e+001
1.656460e+003,1.536206e+001
1.657425e+003,1.578061e+001
1.658389e+003,1.570322e+001
1.659353e+003,1.328046e+001
1.660317e+003,1.035040e+001
1.661281e+003,8.745880e+000
1.662246e+003,8.370300e+000
1.663210e+003,8.499329e+000
1.664174e+003,8.939789e+000
1.665138e+003,9.807739e+000
1.666103e+003,1.151141e+001
1.667067e+003,1.297195e+001
1.668031e+003,1.158911e+001
1.668995e+003,7.682404e+000
1.669960e+003,5.326447e+000
1.670924e+003,5.135986e+000
1.671888e+003,5.365112e+000
1.672852e+003,5.654083e+000
1.673817e+003,5.793549e+000
1.674781e+003,5.046539e+000
1.675745e+003,4.490906e+000
1.676709e+003,5.788940e+000
1.677674e+003,8.315125e+000
1.678638e+003,1.000903e+001
1.679602e+003,1.022266e+001
1.680566e+003,9.530914e+000
1.681531e+003,8.119507e+000
1.682495e+003,6.643951e+000
1.683459e+003,5.887329e+000
1.684423e+003,5.773834e+000
1.685387e+003,6.822418e+000
1.686352e+003,9.411102e+000
1.687316e+003,1.090759e+001
1.688280e+003,1.018262e+001
1.689244e+003,8.715729e+000
1.690208e+003,6.856812e+000
1.691173e+003,5.244934e+000
1.692137e+003,4.815491e+000
1.693101e+003,5.457672e+000
1.694065e+003,6.469910e+000
1.695030e+003,7.557159e+000
1.695994e+003,8.157104e+000
1.696958e+003,7.963806e+000
1.697922e+003,7.247528e+000
1.698887e+003,6.216248e+000
1.699851e+003,5.001709e+000
1.700815e+003,3.744568e+000
1.701779e+003,2.394440e+000
1.702744e+003,1.332184e+000
1.703708e+003,7.403870e-001
1.704672e+003,1.041382e+000
1.705636e+003,2.688324e+000
1.706601e+003,4.762970e+000
1.707565e+003,6.860321e+000
1.708529e+003,8.606506e+000
1.709493e+003,7.798615e+000
1.710458e+003,3.811493e+000
1.711422e+003,5.735779e-001
1.712386e+003,-1.541748e-001
1.713350e+003,5.118408e-001
1.714314e+003,2.351074e+000
1.715279e+003,4.300537e+000
1.716243e+003,4.463837e+000
1.717207e+003,3.133972e+000
1.718171e+003,2.080688e+000
1.719135e+003,1.829376e+000
1.720100e+003,2.963348e+000
1.721064e+003,6.465149e+000
1.722028e+003,9.479675e+000
1.722992e+003,7.248535e+000
1.723957e+003,1.232422e+000
1.724921e+003,-9.046326e-001
1.725885e+003,1.193787e+000
1.726849e+003,2.493073e+000
1.727814e+003,2.131866e+000
1.728778e+003,1.611511e+000
1.729742e+003,1.374786e+000
1.730706e+003,1.317596e+000
1.731671e+003,1.102264e+000
1.732635e+003,7.357788e-001
1.733599e+003,6.385803e-001
1.734563e+003,1.035187e+000
1.735528e+003,1.933319e+000
1.736492e+003,3.253876e+000
1.737456e+003,4.113953e+000
1.738420e+003,3.373383e+000
1.739385e+003,1.424194e+000
1.740349e+003,1.720886e-001
1.741313e+003,-3.319092e-001
1.742277e+003,3.050842e-001
1.743241e+003,3.714294e+000
1.744206e+003,5.928528e+000
1.745170e+003,5.718323e+000
1.746134e+003,4.856812e+000
1.747098e+003,4.596008e+000
1.748063e+003,3.989258e+000
1.749027e+003,9.767151e-001
1.749991e+003,-3.231049e+000
1.750955e+003,-5.037659e+000
1.751919e+003,-3.573120e+000
1.752884e+003,-1.798798e+000
1.753848e+003,-2.169891e+000
1.754812e+003,-3.734253e+000
1.755776e+003,-4.508270e+000
1.756741e+003,-4.359558e+000
1.757705e+003,-3.889893e+000
1.758669e+003,-3.319977e+000
1.759633e+003,-2.157776e+000
1.760598e+003,8.711548e-001
1.761562e+003,2.410187e+000
1.762526e+003,5.431519e-001
1.763490e+003,-1.829559e+000
1.764455e+003,-3.098877e+000
1.765419e+003,-3.231812e+000
1.766383e+003,-2.039276e+000
1.767347e+003,-6.158447e-002
1.768312e+003,1.062195e+000
1.769276e+003,5.101318e-001
1.770240e+003,-1.036530e+000
1.771204e+003,-2.980194e+000
1.772168e+003,-4.792969e+000
1.773133e+003,-5.620087e+000
1.774097e+003,-5.529449e+000
1.775061e+003,-5.042084e+000
1.776025e+003,-4.318115e+000
1.776990e+003,-3.688049e+000
1.777954e+003,-3.121490e+000
1.778918e+003,-2.381958e+000
1.779882e+003,-1.176514e+000
1.780846e+003,-1.250000e-001
1.781811e+003,1.919250e-001
1.782775e+003,-1.223450e-001
1.783739e+003,-1.094086e+000
1.784703e+003,-2.787323e+000
1.785668e+003,-3.730560e+000
1.786632e+003,-3.005127e+000
1.787596e+003,-2.192719e+000
1.788560e+003,-2.353027e+000
1.789525e+003,-2.736145e+000
1.790489e+003,-2.770630e+000
1.791453e+003,-2.359070e+000
1.792417e+003,-7.321167e-001
1.793382e+003,2.028748e+000
1.794346e+003,3.633362e+000
1.795310e+003,2.788055e+000
1.796274e+003,1.011108e+000
1.797239e+003,2.627563e-002
1.798203e+003,-3.109741e-002
1.799167e+003,7.793579e-001
1.800131e+003,2.451996e+000
1.801095e+003,2.509674e+000
1.802060e+003,-4.117737e-001
1.803024e+003,-1.925507e+000
1.803988e+003,-7.856140e-001
1.804952e+003,5.704956e-001
1.805917e+003,1.158478e+000
1.806881e+003,1.256775e+000
1.807845e+003,1.463074e+000
1.808809e+003,1.506958e+000
1.809773e+003,2.248535e-001
1.810738e+003,-2.196533e+000
1.811702e+003,-3.524017e+000
1.812666e+003,-2.418121e+000
1.813630e+003,-7.093506e-001
1.814595e+003,-9.654541e-001
1.815559e+003,-2.582794e+000
1.816523e+003,-2.761871e+000
1.817487e+003,-1.299042e+000
1.818452e+003,-2.128601e-001
1.819416e+003,5.169983e-001
1.820380e+003,1.014923e+000
1.821344e+003,1.056458e+000
1.822309e+003,8.884888e-001
1.823273e+003,5.051880e-001
1.824237e+003,3.610535e-001
1.825201e+003,1.318542e+000
1.826166e+003,2.668854e+000
1.827130e+003,2.355408e+000
1.828094e+003,2.972412e-002
1.829058e+003,-1.825500e+000
1.830022e+003,-1.927002e+000
1.830987e+003,-1.157318e+000
1.831951e+003,6.527405e-001
1.832915e+003,2.246582e+000
1.833879e+003,1.025879e+000
1.834844e+003,-1.918549e+000
1.835808e+003,-2.796844e+000
1.836772e+003,-1.232300e+000
1.837736e+003,-3.303528e-001
1.838700e+003,-1.557129e+000
1.839665e+003,-2.829315e+000
1.840629e+003,-2.119171e+000
1.841593e+003,-2.093811e-001
1.842557e+003,1.257751e+000
1.843522e+003,2.266144e+000
1.844486e+003,2.212708e+000
1.845450e+003,5.594482e-001
1.846414e+003,-7.043152e-001
1.847379e+003,-2.123322e+000
1.848343e+003,-2.967010e+000
1.849307e+003,-2.603180e+000
1.850271e+003,-1.833862e+000
1.851236e+003,-8.418884e-001
1.852200e+003,1.033325e-001
1.853164e+003,1.034332e+000
1.854128e+003,1.287872e+000
1.855093e+003,-1.167053e+000
1.856057e+003,-6.446320e+000
1.857021e+003,-1.023938e+001
1.857985e+003,-8.898071e+000
1.858949e+003,-4.925140e+000
1.859914e+003,-1.925964e+000
1.860878e+003,3.363037e-002
1.861842e+003,-2.216492e-001
1.862806e+003,-2.834259e+000
1.863771e+003,-3.661072e+000
1.864735e+003,-1.526978e+000
1.865699e+003,-3.405762e-001
1.866663e+003,-2.260498e+000
1.867627e+003,-4.451904e+000
1.868592e+003,-4.666687e+000
1.869556e+003,-3.654785e+000
1.870520e+003,-2.253296e+000
1.871484e+003,-6.179810e-001
1.872449e+003,3.794556e-001
1.873413e+003,1.178497e+000
1.874377e+003,1.325256e+000
1.875341e+003,-6.119995e-001
1.876306e+003,-2.414825e+000
1.877270e+003,-3.445190e+000
1.878234e+003,-3.392639e+000
1.879198e+003,-6.819153e-001
1.880163e+003,2.840271e+000
1.881127e+003,3.867493e+000
1.882091e+003,2.255035e+000
1.883055e+003,-6.037292e-001
1.884020e+003,-3.809875e+000
1.884984e+003,-5.466583e+000
1.885948e+003,-3.758240e+000
1.886912e+003,-5.961914e-001
1.887876e+003,9.576416e-002
1.888841e+003,-1.401398e+000
1.889805e+003,-1.708313e+000
1.890769e+003,-4.013672e-001
1.891733e+003,-3.860474e-001
1.892698e+003,-3.100983e+000
1.893662e+003,-4.518341e+000
1.894626e+003,-1.772705e+000
1.895590e+003,8.112793e-001
1.896554e+003,-2.827454e-001
1.897519e+003,-2.603668e+000
1.898483e+003,-3.773407e+000
1.899447e+003,-3.862732e+000
1.900411e+003,-2.885620e+000
1.901376e+003,-7.063904e-001
1.902340e+003,1.241577e+000
1.903304e+003,2.776978e+000
1.904268e+003,3.333588e+000
1.905233e+003,1.846954e+000
1.906197e+003,3.012085e-002
1.907161e+003,-1.210938e-001
1.908125e+003,6.550293e-001
1.909090e+003,5.169067e-001
1.910054e+003,-4.667664e-001
1.911018e+003,-5.600586e-001
1.911982e+003,7.628174e-001
1.912947e+003,2.021088e+000
1.913911e+003,2.080872e+000
1.914875e+003,1.515076e+000
1.915839e+003,1.074768e+000
1.916803e+003,7.484741e-001
1.917768e+003,1.469849e+000
1.918732e+003,3.836426e+000
1.919696e+003,3.841278e+000
1.920660e+003,1.076965e-001
1.921625e+003,-1.809143e+000
1.922589e+003,4.540405e-001
1.923553e+003,2.577789e+000
1.924517e+003,1.692719e+000
1.925481e+003,2.749634e-001
1.926446e+003,7.109680e-001
1.927410e+003,2.126923e+000
1.928374e+003,2.741760e+000
1.929338e+003,2.343750e+000
1.930303e+003,1.548615e+000
1.931267e+003,5.667419e-001
1.932231e+003,-1.386719e-001
1.933195e+003,-9.671936e-001
1.934160e+003,-1.119537e+000
1.935124e+003,8.344727e-001
1.936088e+003,3.012909e+000
1.937052e+003,3.167389e+000
1.938017e+003,1.926086e+000
1.938981e+003,6.031799e-001
1.939945e+003,-3.701782e-001
1.940909e+003,-7.587891e-001
1.941874e+003,-5.182190e-001
1.942838e+003,1.706238e-001
1.943802e+003,1.337830e+000
1.944766e+003,2.597595e+000
1.945730e+003,2.741302e+000
1.946695e+003,1.823700e+000
1.947659e+003,1.293182e+000
1.948623e+003,1.148743e+000
1.949587e+003,8.034058e-001
1.950552e+003,1.028748e-001
1.951516e+003,-1.525879e-004
1.952480e+003,9.958191e-001
1.953444e+003,2.281158e+000
1.954408e+003,3.719086e+000
1.955373e+003,4.503021e+000
1.956337e+003,3.019409e+000
1.957301e+003,2.948608e-001
1.958265e+003,-5.886841e-001
1.959230e+003,6.438904e-001
1.960194e+003,2.166687e+000
1.961158e+003,4.142792e+000
1.962122e+003,5.185699e+000
1.963087e+003,4.352417e+000
1.964051e+003,3.294006e+000
1.965015e+003,2.669006e+000
1.965979e+003,2.845093e+000
1.966944e+003,4.542572e+000
1.967908e+003,6.750793e+000
1.968872e+003,8.011566e+000
1.969836e+003,8.090607e+000
1.970801e+003,7.367401e+000
1.971765e+003,6.057800e+000
1.972729e+003,4.310486e+000
1.973693e+003,1.954559e+000
1.974657e+003,3.506470e-002
1.975622e+003,2.855835e-001
1.976586e+003,2.026611e+000
1.977550e+003,3.919159e+000
1.978514e+003,5.841064e+000
1.979479e+003,7.303101e+000
1.980443e+003,8.130280e+000
1.981407e+003,7.113281e+000
1.982371e+003,3.731323e+000
1.983335e+003,1.172028e+000
1.984300e+003,1.910675e+000
1.985264e+003,3.732605e+000
1.986228e+003,3.254608e+000
1.987192e+003,1.100220e+000
1.988157e+003,6.382446e-001
1.989121e+003,2.509979e+000
1.990085e+003,3.098663e+000
1.991049e+003,1.942505e+000
1.992014e+003,6.238098e-001
1.992978e+003,-1.923218e+000
1.993942e+003,-3.071533e+000
1.994906e+003,-7.464294e-001
1.995871e+003,2.073303e+000
1.996835e+003,3.199738e+000
1.997799e+003,3.549438e+000
1.998763e+003,4.548462e+000
1.999728e+003,6.006104e+000
