5.003444e+002,2.973187e+001
5.013087e+002,2.710434e+001
5.022729e+002,2.705829e+001
5.032371e+002,2.884393e+001
5.042014e+002,2.900717e+001
5.051656e+002,2.780682e+001
5.061298e+002,2.606870e+001
5.070941e+002,2.439545e+001
5.080583e+002,2.255054e+001
5.090225e+002,2.178735e+001
5.099868e+002,2.261554e+001
5.109510e+002,2.359430e+001
5.119152e+002,2.383768e+001
5.128795e+002,2.325034e+001
5.138437e+002,2.328610e+001
5.148079e+002,2.612662e+001
5.157722e+002,2.826138e+001
5.167364e+002,2.753357e+001
5.177006e+002,2.406219e+001
5.186649e+002,2.016568e+001
5.196291e+002,1.892114e+001
5.205933e+002,1.903912e+001
5.215576e+002,1.879675e+001
5.225218e+002,1.791669e+001
5.234860e+002,1.689105e+001
5.244503e+002,1.679645e+001
5.254145e+002,1.821225e+001
5.263787e+002,1.937439e+001
5.273430e+002,2.012637e+001
5.283072e+002,2.073877e+001
5.292714e+002,2.167474e+001
5.302357e+002,2.343793e+001
5.311999e+002,2.367056e+001
5.321641e+002,2.155988e+001
5.331284e+002,1.894156e+001
5.340926e+002,1.707449e+001
5.350568e+002,1.634479e+001
5.360211e+002,1.599783e+001
5.369853e+002,1.580841e+001
5.379495e+002,1.568433e+001
5.389138e+002,1.538306e+001
5.398780e+002,1.483203e+001
5.408422e+002,1.423984e+001
5.418065e+002,1.447418e+001
5.427707e+002,1.536469e+001
5.437349e+002,1.547806e+001
5.446992e+002,1.404492e+001
5.456634e+002,1.177570e+001
5.466276e+002,1.128168e+001
5.475919e+002,1.560522e+001
5.485561e+002,1.807388e+001
5.495203e+002,1.735645e+001
5.504846e+002,1.488611e+001
5.514488e+002,1.275949e+001
5.524130e+002,1.185861e+001
5.533773e+002,1.123178e+001
5.543415e+002,1.045410e+001
5.553057e+002,9.579987e+000
5.562700e+002,8.446991e+000
5.572342e+002,6.947662e+000
5.581984e+002,5.605499e+000
5.591627e+002,6.252747e+000
5.601269e+002,8.181122e+000
5.610911e+002,9.765472e+000
5.620554e+002,1.010565e+001
5.630196e+002,9.289795e+000
5.639838e+002,8.669556e+000
5.649481e+002,8.420502e+000
5.659123e+002,8.128601e+000
5.668765e+002,7.856232e+000
5.678408e+002,7.715881e+000
5.688050e+002,7.774597e+000
5.697692e+002,7.923767e+000
5.707335e+002,7.950134e+000
5.716977e+002,7.997772e+000
5.726619e+002,7.955750e+000
5.736262e+002,7.607361e+000
5.745904e+002,6.754974e+000
5.755546e+002,5.911774e+000
5.765189e+002,5.848114e+000
5.774831e+002,6.112305e+000
5.784473e+002,6.042603e+000
5.794116e+002,5.263214e+000
5.803758e+002,4.000397e+000
5.813400e+002,3.910675e+000
5.823043e+002,5.361572e+000
5.832685e+002,6.057922e+000
5.842327e+002,4.365173e+000
5.851970e+002,1.025482e+000
5.861612e+002,2.746582e-001
5.871254e+002,6.157684e+000
5.880897e+002,1.069696e+001
5.890539e+002,1.190485e+001
5.900181e+002,1.075247e+001
5.909824e+002,9.030975e+000
5.919466e+002,7.650696e+000
5.929108e+002,6.639557e+000
5.938751e+002,5.963348e+000
5.948393e+002,5.521759e+000
5.958035e+002,5.079529e+000
5.967678e+002,4.499023e+000
5.977320e+002,3.993347e+000
5.986962e+002,5.293579e+000
5.996605e+002,8.354034e+000
6.006247e+002,1.045633e+001
6.015889e+002,1.023337e+001
6.025532e+002,7.826263e+000
6.035174e+002,5.151215e+000
6.044816e+002,6.658020e-001
6.054459e+002,-2.236267e+000
6.064101e+002,-2.434448e+000
6.073743e+002,-8.137207e-001
6.083386e+002,1.164490e+000
6.093028e+002,3.161865e+000
6.102670e+002,4.597931e+000
6.112313e+002,5.009613e+000
6.121955e+002,4.734192e+000
6.131597e+002,3.953278e+000
6.141240e+002,2.826874e+000
6.150882e+002,1.726379e+000
6.160524e+002,3.074066e+000
6.170167e+002,6.486694e+000
6.179809e+002,8.975281e+000
6.189451e+002,8.862854e+000
6.199094e+002,6.448608e+000
6.208736e+002,4.656311e+000
6.218378e+002,4.842896e+000
6.228021e+002,4.412567e+000
6.237663e+002,2.399811e+000
6.247305e+002,-1.274414e-001
6.256948e+002,-1.427460e+000
6.266590e+002,-5.901794e-001
6.276232e+002,6.873779e-001
6.285875e+002,1.708435e+000
6.295517e+002,2.509949e+000
6.305159e+002,3.113220e+000
6.314802e+002,3.474304e+000
6.324444e+002,3.435699e+000
6.334086e+002,2.234070e+000
6.343729e+002,4.593201e-001
6.353371e+002,-3.604431e-001
6.363013e+002,4.254150e-001
6.372656e+002,2.252045e+000
6.382298e+002,3.225159e+000
6.391940e+002,2.267365e+000
6.401583e+002,1.684204e+000
6.411225e+002,2.118530e+000
6.420867e+002,2.959259e+000
6.430510e+002,3.465576e+000
6.440152e+002,3.420349e+000
6.449794e+002,2.475555e+000
6.459437e+002,-5.321350e-001
6.469079e+002,-3.624664e+000
6.478721e+002,-5.087708e+000
6.488364e+002,-4.373077e+000
6.498006e+002,-2.487976e+000
6.507648e+002,-7.685547e-001
6.517291e+002,5.107727e-001
6.526933e+002,4.087524e-001
6.536575e+002,-1.355408e+000
6.546218e+002,-3.674377e+000
6.555860e+002,-4.337891e+000
6.565502e+002,-1.954102e+000
6.575145e+002,-9.507141e-001
6.584787e+002,-2.141602e+000
6.594429e+002,-3.835144e+000
6.604072e+002,-4.550842e+000
6.613714e+002,-3.949707e+000
6.623356e+002,-3.838959e+000
6.632999e+002,-6.708618e+000
6.642641e+002,-9.104919e+000
6.652283e+002,-8.508148e+000
6.661926e+002,-5.152527e+000
6.671568e+002,-1.346313e+000
6.681210e+002,6.387329e-002
6.690853e+002,-2.592773e-001
6.700495e+002,-2.294617e-001
6.710137e+002,2.328796e-001
6.719780e+002,1.197601e+000
6.729422e+002,2.876740e+000
6.739064e+002,5.625549e+000
6.748707e+002,6.327332e+000
6.758349e+002,3.839355e+000
6.767991e+002,1.216797e+000
6.777634e+002,-1.006165e-001
6.787276e+002,-1.488953e-001
6.796918e+002,-2.529907e-001
6.806561e+002,-1.862793e+000
6.816203e+002,-2.732330e+000
6.825845e+002,-1.204926e+000
6.835488e+002,1.507324e+000
6.845130e+002,3.430298e+000
6.854772e+002,3.096771e+000
6.864415e+002,1.446167e+000
6.874057e+002,-4.660034e-002
6.883699e+002,-1.377686e+000
6.893342e+002,-1.782562e+000
6.902984e+002,-6.764526e-001
6.912626e+002,1.630035e+000
6.922269e+002,2.654602e+000
6.931911e+002,1.627594e+000
6.941553e+002,7.722168e-001
6.951196e+002,9.149170e-002
6.960838e+002,-5.551147e-001
6.970480e+002,-1.384583e+000
6.980123e+002,-2.693817e+000
6.989765e+002,-3.231293e+000
6.999407e+002,-2.041382e+000
7.009050e+002,-4.533081e-001
7.018692e+002,4.223938e-001
7.028334e+002,2.276611e-001
7.037977e+002,-3.827515e-001
7.047619e+002,-1.057129e-001
7.057261e+002,6.024475e-001
7.066904e+002,2.714539e-001
7.076546e+002,-1.337280e+000
7.086188e+002,-3.086304e+000
7.095831e+002,-3.111511e+000
7.105473e+002,-7.130127e-001
7.115115e+002,1.040619e+000
7.124758e+002,1.949738e+000
7.134400e+002,2.473602e+000
7.144042e+002,3.185944e+000
7.153685e+002,4.117950e+000
7.163327e+002,4.096802e+000
7.172969e+002,7.788391e-001
7.182612e+002,-1.898682e+000
7.192254e+002,-1.471985e+000
7.201896e+002,7.838440e-001
7.211539e+002,1.891571e+000
7.221181e+002,-8.360291e-001
7.230823e+002,-5.377106e+000
7.240466e+002,-6.165405e+000
7.250108e+002,-3.831879e+000
7.259750e+002,-6.524658e-001
7.269393e+002,2.164307e+000
7.279035e+002,4.311157e+000
7.288677e+002,4.602051e+000
7.298320e+002,5.188904e-001
7.307962e+002,-1.630005e+000
7.317604e+002,-3.858032e-001
7.327247e+002,2.642792e+000
7.336889e+002,5.385773e+000
7.346531e+002,7.386292e+000
7.356174e+002,7.777008e+000
7.365816e+002,5.329102e+000
7.375458e+002,2.498108e+000
7.385101e+002,1.316345e+000
7.394743e+002,2.148315e+000
7.404385e+002,3.591949e+000
7.414028e+002,3.443359e+000
7.423670e+002,1.705994e+000
7.433312e+002,1.614380e-001
7.442955e+002,-8.679810e-001
7.452597e+002,-1.344971e+000
7.462239e+002,-1.328064e+000
7.471882e+002,-8.206177e-001
7.481524e+002,-6.735229e-002
7.491166e+002,1.133606e+000
7.500809e+002,1.872650e+000
7.510451e+002,1.663666e+000
7.520093e+002,6.916504e-001
7.529736e+002,-4.176331e-001
7.539378e+002,-1.650848e+000
7.549020e+002,-2.018799e+000
7.558663e+002,-2.567444e-001
7.568306e+002,2.335938e+000
7.577948e+002,3.918365e+000
7.587590e+002,3.361664e+000
7.597233e+002,1.266937e+000
7.606875e+002,-5.699463e-001
7.616517e+002,-2.028137e+000
7.626160e+002,-2.670227e+000
7.635802e+002,-2.308197e+000
7.645444e+002,-1.053925e+000
7.655087e+002,1.098846e+000
7.664729e+002,5.424774e+000
7.674371e+002,7.521454e+000
7.684014e+002,5.605927e+000
7.693656e+002,3.191406e+000
7.703298e+002,2.866974e+000
7.712941e+002,4.770020e+000
7.722583e+002,6.231537e+000
7.732225e+002,4.477905e+000
7.741868e+002,2.269226e+000
7.751510e+002,2.030487e+000
7.761152e+002,3.261627e+000
7.770795e+002,4.193817e+000
7.780437e+002,3.228424e+000
7.790079e+002,7.485657e-001
7.799722e+002,1.030060e+000
7.809364e+002,4.386108e+000
7.819006e+002,6.754761e+000
7.828649e+002,6.023834e+000
7.838291e+002,3.274811e+000
7.847933e+002,2.000671e+000
7.857576e+002,3.507751e+000
7.867218e+002,3.946808e+000
7.876860e+002,1.606812e+000
7.886503e+002,-8.922729e-001
7.896145e+002,-1.101929e+000
7.905787e+002,1.497284e+000
7.915430e+002,4.676147e+000
7.925072e+002,6.001526e+000
7.934714e+002,6.311096e+000
7.944357e+002,6.843597e+000
7.953999e+002,7.653198e+000
7.963641e+002,7.888977e+000
7.973284e+002,6.455475e+000
7.982926e+002,3.192413e+000
7.992568e+002,1.557831e+000
8.002211e+002,1.606537e+000
8.011853e+002,1.914520e+000
8.021495e+002,2.585510e+000
8.031138e+002,3.590393e+000
8.040780e+002,4.022003e+000
8.050422e+002,2.787140e+000
8.060065e+002,2.062347e+000
8.069707e+002,2.604156e+000
8.079349e+002,3.686249e+000
8.088992e+002,4.877930e+000
8.098634e+002,5.994293e+000
8.108276e+002,6.802307e+000
8.117919e+002,6.540222e+000
8.127561e+002,5.457520e+000
8.137203e+002,4.446808e+000
8.146846e+002,3.798767e+000
8.156488e+002,3.888855e+000
8.166130e+002,5.327423e+000
8.175773e+002,8.750275e+000
8.185415e+002,9.261017e+000
8.195057e+002,3.813599e+000
8.204700e+002,-5.421143e-001
8.214342e+002,-4.530640e-001
8.223984e+002,2.533386e+000
8.233627e+002,3.916534e+000
8.243269e+002,1.185913e+000
8.252911e+002,-1.164032e+000
8.262554e+002,-4.050598e-001
8.272196e+002,1.834717e+000
8.281838e+002,4.192261e+000
8.291481e+002,5.978790e+000
8.301123e+002,7.081909e+000
8.310765e+002,7.045319e+000
8.320408e+002,5.997589e+000
8.330050e+002,6.148041e+000
8.339692e+002,8.056000e+000
8.349335e+002,9.914185e+000
8.358977e+002,9.541046e+000
8.368619e+002,6.526520e+000
8.378262e+002,5.034271e+000
8.387904e+002,7.057648e+000
8.397546e+002,8.183624e+000
8.407189e+002,6.197144e+000
8.416831e+002,2.876312e+000
8.426473e+002,1.593567e+000
8.436116e+002,4.211884e+000
8.445758e+002,7.707672e+000
8.455400e+002,8.822784e+000
8.465043e+002,8.613403e+000
8.474685e+002,8.372772e+000
8.484327e+002,8.584381e+000
8.493970e+002,8.811554e+000
8.503612e+002,8.052307e+000
8.513254e+002,5.903290e+000
8.522897e+002,5.595856e+000
8.532539e+002,8.313477e+000
8.542181e+002,1.088858e+001
8.551824e+002,1.123730e+001
8.561466e+002,9.849274e+000
8.571108e+002,9.623810e+000
8.580751e+002,1.194788e+001
8.590393e+002,1.364581e+001
8.600035e+002,1.361664e+001
8.609678e+002,1.278970e+001
8.619320e+002,1.220865e+001
8.628962e+002,1.227307e+001
8.638605e+002,1.244873e+001
8.648247e+002,1.177295e+001
8.657889e+002,1.066769e+001
8.667532e+002,1.010379e+001
8.677174e+002,1.021002e+001
8.686816e+002,1.074869e+001
8.696459e+002,1.150644e+001
8.706101e+002,1.256180e+001
8.715743e+002,1.387061e+001
8.725386e+002,1.618622e+001
8.735028e+002,1.783331e+001
8.744670e+002,1.775278e+001
8.754313e+002,1.663812e+001
8.763955e+002,1.592798e+001
8.773597e+002,1.619016e+001
8.783240e+002,1.686673e+001
8.792882e+002,1.818567e+001
8.802524e+002,1.915076e+001
8.812167e+002,1.829797e+001
8.821809e+002,1.579321e+001
8.831451e+002,1.349664e+001
8.841094e+002,1.393280e+001
8.850736e+002,1.709680e+001
8.860378e+002,1.899045e+001
8.870021e+002,1.918402e+001
8.879663e+002,1.945551e+001
8.889305e+002,2.111078e+001
8.898948e+002,2.367810e+001
8.908590e+002,2.487927e+001
8.918232e+002,2.376004e+001
8.927875e+002,2.280020e+001
8.937517e+002,2.268088e+001
8.947159e+002,2.281778e+001
8.956802e+002,2.246732e+001
8.966444e+002,2.149002e+001
8.976086e+002,2.060181e+001
8.985729e+002,2.074213e+001
8.995371e+002,2.162054e+001
9.005013e+002,2.274701e+001
9.014656e+002,2.402222e+001
9.024298e+002,2.473611e+001
9.033940e+002,2.414615e+001
9.043583e+002,2.241574e+001
9.053225e+002,2.184900e+001
9.062867e+002,2.311942e+001
9.072510e+002,2.461105e+001
9.082152e+002,2.707111e+001
9.091794e+002,2.956085e+001
9.101437e+002,3.106537e+001
9.111079e+002,3.140063e+001
9.120721e+002,3.136804e+001
9.130364e+002,3.170618e+001
9.140006e+002,3.117972e+001
9.149648e+002,2.790784e+001
9.159291e+002,2.349985e+001
9.168933e+002,2.136923e+001
9.178575e+002,2.376865e+001
9.188218e+002,2.877097e+001
9.197860e+002,2.962717e+001
9.207502e+002,2.616263e+001
9.217145e+002,2.390631e+001
9.226787e+002,2.461511e+001
9.236429e+002,2.662198e+001
9.246072e+002,2.774951e+001
9.255714e+002,2.788705e+001
9.265356e+002,2.707886e+001
9.274999e+002,2.468906e+001
9.284641e+002,2.193555e+001
9.294283e+002,1.852078e+001
9.303926e+002,1.531396e+001
9.313568e+002,1.376477e+001
9.323210e+002,1.468228e+001
9.332853e+002,1.656906e+001
9.342495e+002,1.731122e+001
9.352137e+002,1.728979e+001
9.361780e+002,1.699658e+001
9.371422e+002,1.666611e+001
9.381064e+002,1.636066e+001
9.390707e+002,1.591608e+001
9.400349e+002,1.496967e+001
9.409991e+002,1.530850e+001
9.419634e+002,1.823468e+001
9.429276e+002,2.052036e+001
9.438918e+002,2.113315e+001
9.448561e+002,2.070529e+001
9.458203e+002,2.024457e+001
9.467845e+002,2.000146e+001
9.477488e+002,2.011597e+001
9.487130e+002,2.121964e+001
9.496772e+002,2.227838e+001
9.506415e+002,2.223727e+001
9.516057e+002,2.122195e+001
9.525699e+002,2.018198e+001
9.535342e+002,2.002979e+001
9.544984e+002,2.057819e+001
9.554626e+002,2.086014e+001
9.564269e+002,2.137106e+001
9.573911e+002,2.087646e+001
9.583553e+002,1.784906e+001
9.593196e+002,1.403976e+001
9.602838e+002,1.253888e+001
9.612480e+002,1.395654e+001
9.622123e+002,1.538464e+001
9.631765e+002,1.600809e+001
9.641407e+002,1.654309e+001
9.651050e+002,1.702289e+001
9.660692e+002,1.761734e+001
9.670334e+002,1.902457e+001
9.679977e+002,2.182260e+001
9.689619e+002,2.468988e+001
9.699261e+002,2.349084e+001
9.708904e+002,1.952972e+001
9.718546e+002,1.663763e+001
9.728188e+002,1.552905e+001
9.737831e+002,1.588205e+001
9.747473e+002,1.774237e+001
9.757115e+002,2.167691e+001
9.766758e+002,2.429520e+001
9.776400e+002,2.471521e+001
9.786042e+002,2.514609e+001
9.795685e+002,2.663837e+001
9.805327e+002,2.796872e+001
9.814969e+002,2.725607e+001
9.824612e+002,2.396024e+001
9.834254e+002,2.043481e+001
9.843896e+002,1.895529e+001
9.853539e+002,1.823621e+001
9.863181e+002,1.691837e+001
9.872823e+002,1.493066e+001
9.882466e+002,1.287589e+001
9.892108e+002,1.138074e+001
9.901750e+002,1.073297e+001
9.911393e+002,1.160114e+001
9.921035e+002,1.557593e+001
9.930677e+002,1.756326e+001
9.940320e+002,1.595822e+001
9.949962e+002,1.368613e+001
9.959604e+002,1.362906e+001
9.969247e+002,1.593591e+001
9.978889e+002,1.791443e+001
9.988531e+002,1.729401e+001
9.998174e+002,1.688791e+001
1.000782e+003,1.907968e+001
1.001746e+003,2.259412e+001
1.002710e+003,2.551923e+001
1.003674e+003,2.695853e+001
1.004639e+003,2.739886e+001
1.005603e+003,2.767276e+001
1.006567e+003,2.770239e+001
1.007531e+003,2.752194e+001
1.008495e+003,2.698596e+001
1.009460e+003,2.658728e+001
1.010424e+003,2.681491e+001
1.011388e+003,2.751129e+001
1.012352e+003,2.800208e+001
1.013317e+003,2.860837e+001
1.014281e+003,2.784573e+001
1.015245e+003,2.429822e+001
1.016209e+003,2.025552e+001
1.017174e+003,1.732809e+001
1.018138e+003,1.568237e+001
1.019102e+003,1.448730e+001
1.020066e+003,1.308572e+001
1.021031e+003,1.183597e+001
1.021995e+003,1.188333e+001
1.022959e+003,1.276297e+001
1.023923e+003,1.273279e+001
1.024887e+003,1.112320e+001
1.025852e+003,8.462311e+000
1.026816e+003,5.197571e+000
1.027780e+003,8.617859e-001
1.028744e+003,-1.230408e+000
1.029709e+003,8.911743e-001
1.030673e+003,3.170959e+000
1.031637e+003,4.822479e+000
1.032601e+003,5.663513e+000
1.033566e+003,5.453064e+000
1.034530e+003,4.196014e+000
1.035494e+003,2.815155e+000
1.036458e+003,2.064789e+000
1.037422e+003,1.930969e+000
1.038387e+003,2.470276e+000
1.039351e+003,3.607361e+000
1.040315e+003,5.164429e+000
1.041279e+003,7.186920e+000
1.042244e+003,9.474457e+000
1.043208e+003,1.066223e+001
1.044172e+003,9.779999e+000
1.045136e+003,9.055634e+000
1.046101e+003,8.815979e+000
1.047065e+003,8.619659e+000
1.048029e+003,8.137115e+000
1.048993e+003,7.371155e+000
1.049958e+003,6.458313e+000
1.050922e+003,5.301392e+000
1.051886e+003,4.714355e+000
1.052850e+003,6.337921e+000
1.053814e+003,8.533844e+000
1.054779e+003,8.830841e+000
1.055743e+003,6.860748e+000
1.056707e+003,4.511597e+000
1.057671e+003,4.133057e+000
1.058636e+003,5.711121e+000
1.059600e+003,5.681854e+000
1.060564e+003,1.947357e+000
1.061528e+003,9.594727e-002
1.062493e+003,1.962830e+000
1.063457e+003,5.060028e+000
1.064421e+003,7.033844e+000
1.065385e+003,7.641876e+000
1.066349e+003,7.219452e+000
1.067314e+003,4.971588e+000
1.068278e+003,2.887360e+000
1.069242e+003,2.490601e+000
1.070206e+003,3.214874e+000
1.071171e+003,4.112244e+000
1.072135e+003,4.687164e+000
1.073099e+003,5.073456e+000
1.074063e+003,5.630280e+000
1.075028e+003,6.461121e+000
1.075992e+003,6.778717e+000
1.076956e+003,6.439758e+000
1.077920e+003,5.715240e+000
1.078885e+003,5.059052e+000
1.079849e+003,4.171783e+000
1.080813e+003,1.818237e+000
1.081777e+003,-2.722290e+000
1.082741e+003,-5.473206e+000
1.083706e+003,-2.418121e+000
1.084670e+003,1.016510e+000
1.085634e+003,1.733185e+000
1.086598e+003,5.149841e-001
1.087563e+003,-5.804138e-001
1.088527e+003,-3.247986e-001
1.089491e+003,8.257751e-001
1.090455e+003,1.817169e+000
1.091420e+003,2.509155e+000
1.092384e+003,2.966644e+000
1.093348e+003,3.131500e+000
1.094312e+003,2.968048e+000
1.095276e+003,2.252899e+000
1.096241e+003,1.375488e+000
1.097205e+003,1.473389e+000
1.098169e+003,3.157715e+000
1.099133e+003,4.056305e+000
1.100098e+003,2.389008e+000
1.101062e+003,6.765442e-001
1.102026e+003,6.537781e-001
1.102990e+003,1.940674e+000
1.103955e+003,3.271484e+000
1.104919e+003,3.836365e+000
1.105883e+003,3.752258e+000
1.106847e+003,3.171021e+000
1.107812e+003,2.095032e+000
1.108776e+003,1.916534e+000
1.109740e+003,2.906128e+000
1.110704e+003,4.360046e+000
1.111668e+003,6.433990e+000
1.112633e+003,8.830841e+000
1.113597e+003,9.557098e+000
1.114561e+003,7.317474e+000
1.115525e+003,5.710449e+000
1.116490e+003,6.483459e+000
1.117454e+003,7.526367e+000
1.118418e+003,7.626129e+000
1.119382e+003,6.948303e+000
1.120347e+003,6.034302e+000
1.121311e+003,5.105011e+000
1.122275e+003,4.365570e+000
1.123239e+003,4.805176e+000
1.124203e+003,6.502625e+000
1.125168e+003,7.809631e+000
1.126132e+003,8.472443e+000
1.127096e+003,9.226715e+000
1.128060e+003,1.092563e+001
1.129025e+003,1.314694e+001
1.129989e+003,1.389206e+001
1.130953e+003,1.196701e+001
1.131917e+003,1.086102e+001
1.132882e+003,1.242603e+001
1.133846e+003,1.421008e+001
1.134810e+003,1.447873e+001
1.135774e+003,1.374194e+001
1.136739e+003,1.351770e+001
1.137703e+003,1.464890e+001
1.138667e+003,1.656216e+001
1.139631e+003,1.839771e+001
1.140595e+003,2.012463e+001
1.141560e+003,2.172910e+001
1.142524e+003,2.308359e+001
1.143488e+003,2.519974e+001
1.144452e+003,2.917300e+001
1.145417e+003,3.441470e+001
1.146381e+003,3.836557e+001
1.147345e+003,3.944379e+001
1.148309e+003,4.332562e+001
1.149274e+003,5.364886e+001
1.150238e+003,6.471078e+001
1.151202e+003,7.458807e+001
1.152166e+003,8.291055e+001
1.153130e+003,8.920056e+001
1.154095e+003,9.328976e+001
1.155059e+003,9.660635e+001
1.156023e+003,1.018801e+002
1.156987e+003,1.084847e+002
1.157952e+003,1.117357e+002
1.158916e+003,1.118658e+002
1.159880e+003,1.093500e+002
1.160844e+003,1.031042e+002
1.161809e+003,9.422531e+001
1.162773e+003,8.561105e+001
1.163737e+003,7.737708e+001
1.164701e+003,6.900885e+001
1.165666e+003,5.829242e+001
1.166630e+003,4.992386e+001
1.167594e+003,4.711041e+001
1.168558e+003,4.706198e+001
1.169522e+003,4.597461e+001
1.170487e+003,4.271988e+001
1.171451e+003,3.928268e+001
1.172415e+003,3.792764e+001
1.173379e+003,3.812869e+001
1.174344e+003,3.706195e+001
1.175308e+003,3.466333e+001
1.176272e+003,3.303568e+001
1.177236e+003,3.363950e+001
1.178201e+003,3.484058e+001
1.179165e+003,3.452905e+001
1.180129e+003,3.258759e+001
1.181093e+003,2.968469e+001
1.182057e+003,2.444476e+001
1.183022e+003,2.074423e+001
1.183986e+003,2.042477e+001
1.184950e+003,2.181586e+001
1.185914e+003,2.398337e+001
1.186879e+003,2.630231e+001
1.187843e+003,2.794189e+001
1.188807e+003,2.817380e+001
1.189771e+003,2.730704e+001
1.190736e+003,2.629080e+001
1.191700e+003,2.505023e+001
1.192664e+003,2.440454e+001
1.193628e+003,2.465182e+001
1.194593e+003,2.539249e+001
1.195557e+003,2.684348e+001
1.196521e+003,2.853922e+001
1.197485e+003,2.883890e+001
1.198449e+003,2.730496e+001
1.199414e+003,2.505487e+001
1.200378e+003,2.167529e+001
1.201342e+003,1.860962e+001
1.202306e+003,1.678226e+001
1.203271e+003,1.593790e+001
1.204235e+003,1.542841e+001
1.205199e+003,1.495032e+001
1.206163e+003,1.477628e+001
1.207128e+003,1.543161e+001
1.208092e+003,1.701526e+001
1.209056e+003,1.706598e+001
1.210020e+003,1.546017e+001
1.210984e+003,1.299130e+001
1.211949e+003,9.050659e+000
1.212913e+003,4.806732e+000
1.213877e+003,1.794403e+000
1.214841e+003,1.471252e-001
1.215806e+003,-8.020325e-001
1.216770e+003,-9.084778e-001
1.217734e+003,-1.069214e+000
1.218698e+003,-2.311523e+000
1.219663e+003,-3.840393e+000
1.220627e+003,-4.385223e+000
1.221591e+003,-3.941345e+000
1.222555e+003,-3.784515e+000
1.223520e+003,-5.091980e+000
1.224484e+003,-7.474884e+000
1.225448e+003,-9.359299e+000
1.226412e+003,-1.088861e+001
1.227376e+003,-1.147397e+001
1.228341e+003,-1.047653e+001
1.229305e+003,-9.386230e+000
1.230269e+003,-9.057571e+000
1.231233e+003,-9.213181e+000
1.232198e+003,-9.143768e+000
1.233162e+003,-8.594193e+000
1.234126e+003,-7.991089e+000
1.235090e+003,-7.559631e+000
1.236055e+003,-7.519409e+000
1.237019e+003,-8.620056e+000
1.237983e+003,-1.025545e+001
1.238947e+003,-1.039996e+001
1.239911e+003,-8.178574e+000
1.240876e+003,-5.656921e+000
1.241840e+003,-6.251907e+000
1.242804e+003,-1.024155e+001
1.243768e+003,-1.206511e+001
1.244733e+003,-9.673233e+000
1.245697e+003,-7.673096e+000
1.246661e+003,-6.816299e+000
1.247625e+003,-6.331619e+000
1.248590e+003,-5.425720e+000
1.249554e+003,-4.190613e+000
1.250518e+003,-3.429291e+000
1.251482e+003,-3.620331e+000
1.252447e+003,-3.948853e+000
1.253411e+003,-2.895538e+000
1.254375e+003,-1.358612e+000
1.255339e+003,-1.605743e+000
1.256303e+003,-3.591309e+000
1.257268e+003,-5.429016e+000
1.258232e+003,-6.228836e+000
1.259196e+003,-6.329514e+000
1.260160e+003,-6.149612e+000
1.261125e+003,-5.548950e+000
1.262089e+003,-4.789978e+000
1.263053e+003,-3.990387e+000
1.264017e+003,-3.168488e+000
1.264982e+003,-2.083557e+000
1.265946e+003,-1.054504e+000
1.266910e+003,-4.169617e-001
1.267874e+003,-1.455688e-001
1.268839e+003,8.474731e-002
1.269803e+003,4.991455e-001
1.270767e+003,8.599243e-001
1.271731e+003,7.327881e-001
1.272695e+003,1.484070e-001
1.273660e+003,-9.157715e-001
1.274624e+003,-3.147339e+000
1.275588e+003,-4.583740e+000
1.276552e+003,-3.082489e+000
1.277517e+003,-3.193359e-001
1.278481e+003,1.144409e-001
1.279445e+003,-2.205627e+000
1.280409e+003,-4.015411e+000
1.281374e+003,-3.484772e+000
1.282338e+003,-3.275726e+000
1.283302e+003,-5.277100e+000
1.284266e+003,-8.033859e+000
1.285230e+003,-1.005618e+001
1.286195e+003,-1.100879e+001
1.287159e+003,-1.112868e+001
1.288123e+003,-1.054495e+001
1.289087e+003,-9.546158e+000
1.290052e+003,-9.304993e+000
1.291016e+003,-1.036386e+001
1.291980e+003,-1.053220e+001
1.292944e+003,-9.267761e+000
1.293909e+003,-8.133118e+000
1.294873e+003,-7.637024e+000
1.295837e+003,-7.461975e+000
1.296801e+003,-7.169495e+000
1.297766e+003,-6.723618e+000
1.298730e+003,-6.549088e+000
1.299694e+003,-6.995468e+000
1.300658e+003,-7.775894e+000
1.301622e+003,-9.146805e+000
1.302587e+003,-1.029759e+001
1.303551e+003,-9.389771e+000
1.304515e+003,-6.307617e+000
1.305479e+003,-3.604156e+000
1.306444e+003,-3.495544e+000
1.307408e+003,-5.262207e+000
1.308372e+003,-6.192612e+000
1.309336e+003,-5.708649e+000
1.310301e+003,-6.225159e+000
1.311265e+003,-9.474762e+000
1.312229e+003,-1.156892e+001
1.313193e+003,-1.056786e+001
1.314157e+003,-8.430511e+000
1.315122e+003,-7.086929e+000
1.316086e+003,-6.902710e+000
1.317050e+003,-7.373871e+000
1.318014e+003,-8.178848e+000
1.318979e+003,-8.851639e+000
1.319943e+003,-8.580856e+000
1.320907e+003,-7.381180e+000
1.321871e+003,-6.043945e+000
1.322836e+003,-4.598907e+000
1.323800e+003,-3.622559e+000
1.324764e+003,-3.158905e+000
1.325728e+003,-3.432495e+000
1.326693e+003,-5.518158e+000
1.327657e+003,-9.559250e+000
1.328621e+003,-1.180109e+001
1.329585e+003,-1.001924e+001
1.330549e+003,-7.617294e+000
1.331514e+003,-6.297089e+000
1.332478e+003,-5.855743e+000
1.333442e+003,-6.376938e+000
1.334406e+003,-7.435898e+000
1.335371e+003,-8.181091e+000
1.336335e+003,-8.095245e+000
1.337299e+003,-7.344009e+000
1.338263e+003,-6.214279e+000
1.339228e+003,-4.576691e+000
1.340192e+003,-3.736450e+000
1.341156e+003,-3.835266e+000
1.342120e+003,-4.459259e+000
1.343084e+003,-6.653793e+000
1.344049e+003,-8.603455e+000
1.345013e+003,-8.149811e+000
1.345977e+003,-5.990768e+000
1.346941e+003,-4.748154e+000
1.347906e+003,-5.405685e+000
1.348870e+003,-6.511902e+000
1.349834e+003,-6.615341e+000
1.350798e+003,-6.530563e+000
1.351763e+003,-8.342484e+000
1.352727e+003,-1.145615e+001
1.353691e+003,-1.234845e+001
1.354655e+003,-9.309219e+000
1.355620e+003,-5.138626e+000
1.356584e+003,-3.026459e+000
1.357548e+003,-2.729980e+000
1.358512e+003,-2.448486e+000
1.359476e+003,-2.093597e+000
1.360441e+003,-2.318695e+000
1.361405e+003,-3.264160e+000
1.362369e+003,-4.681946e+000
1.363333e+003,-7.177811e+000
1.364298e+003,-9.724228e+000
1.365262e+003,-1.071736e+001
1.366226e+003,-1.000124e+001
1.367190e+003,-9.159683e+000
1.368155e+003,-9.641266e+000
1.369119e+003,-1.056766e+001
1.370083e+003,-8.965363e+000
1.371047e+003,-3.593689e+000
1.372011e+003,-8.395081e-001
1.372976e+003,-2.571655e+000
1.373940e+003,-4.590393e+000
1.374904e+003,-5.272705e+000
1.375868e+003,-5.347321e+000
1.376833e+003,-6.128036e+000
1.377797e+003,-7.497955e+000
1.378761e+003,-7.505371e+000
1.379725e+003,-4.908813e+000
1.380690e+003,-1.949127e+000
1.381654e+003,-8.569641e-001
1.382618e+003,-8.448181e-001
1.383582e+003,-1.177032e+000
1.384547e+003,-1.687958e+000
1.385511e+003,-1.800415e+000
1.386475e+003,-1.155762e+000
1.387439e+003,-4.332275e-001
1.388403e+003,-9.876404e-001
1.389368e+003,-2.823792e+000
1.390332e+003,-3.007629e+000
1.391296e+003,-1.028137e-001
1.392260e+003,1.879425e+000
1.393225e+003,1.888916e+000
1.394189e+003,9.720764e-001
1.395153e+003,-1.204315e+000
1.396117e+003,-3.510468e+000
1.397082e+003,-4.169556e+000
1.398046e+003,-2.901703e+000
1.399010e+003,-1.159119e+000
1.399974e+003,-3.307190e-001
1.400938e+003,-4.132996e-001
1.401903e+003,-1.035034e+000
1.402867e+003,-2.062500e+000
1.403831e+003,-2.581085e+000
1.404795e+003,-2.876526e+000
1.405760e+003,-2.652832e+000
1.406724e+003,-1.416412e+000
1.407688e+003,-3.148193e-001
1.408652e+003,-9.354858e-001
1.409617e+003,-2.769379e+000
1.410581e+003,-3.100464e+000
1.411545e+003,-5.561218e-001
1.412509e+003,2.040863e+000
1.413474e+003,1.448395e+000
1.414438e+003,-7.525330e-001
1.415402e+003,-1.774872e+000
1.416366e+003,-1.543457e+000
1.417330e+003,-6.807251e-001
1.418295e+003,7.663574e-001
1.419259e+003,2.053223e+000
1.420223e+003,2.091553e+000
1.421187e+003,1.006683e+000
1.422152e+003,7.025146e-002
1.423116e+003,-5.947876e-001
1.424080e+003,-9.246826e-001
1.425044e+003,-5.479126e-001
1.426009e+003,-4.832153e-001
1.426973e+003,-1.526215e+000
1.427937e+003,-2.905640e+000
1.428901e+003,-3.735123e+000
1.429865e+003,-3.814529e+000
1.430830e+003,-3.344055e+000
1.431794e+003,-2.529480e+000
1.432758e+003,-1.524536e+000
1.433722e+003,-4.126892e-001
1.434687e+003,1.082886e+000
1.435651e+003,1.687408e+000
1.436615e+003,-4.255066e-001
1.437579e+003,-1.588684e+000
1.438544e+003,-6.480713e-001
1.439508e+003,5.985413e-001
1.440472e+003,8.962402e-001
1.441436e+003,7.991943e-001
1.442401e+003,1.577728e+000
1.443365e+003,3.398132e+000
1.444329e+003,5.016144e+000
1.445293e+003,5.601440e+000
1.446257e+003,5.380096e+000
1.447222e+003,4.279358e+000
1.448186e+003,2.551575e+000
1.449150e+003,1.937073e+000
1.450114e+003,2.897034e+000
1.451079e+003,3.502533e+000
1.452043e+003,2.157776e+000
1.453007e+003,5.202026e-001
1.453971e+003,1.203156e+000
1.454936e+003,3.788910e+000
1.455900e+003,5.221222e+000
1.456864e+003,4.640350e+000
1.457828e+003,3.939911e+000
1.458792e+003,4.442535e+000
1.459757e+003,4.862549e+000
1.460721e+003,3.730103e+000
1.461685e+003,1.825806e+000
1.462649e+003,1.004089e+000
1.463614e+003,1.701843e+000
1.464578e+003,2.408783e+000
1.465542e+003,1.630005e+000
1.466506e+003,1.977539e-002
1.467471e+003,-1.946716e-001
1.468435e+003,1.526855e+000
1.469399e+003,2.693573e+000
1.470363e+003,2.660522e+000
1.471328e+003,2.444336e+000
1.472292e+003,1.946777e+000
1.473256e+003,1.395691e+000
1.474220e+003,1.108521e+000
1.475184e+003,1.135590e+000
1.476149e+003,1.350830e+000
1.477113e+003,1.625000e+000
1.478077e+003,1.899200e+000
1.479041e+003,2.205933e+000
1.480006e+003,2.767944e+000
1.480970e+003,4.094391e+000
1.481934e+003,6.407440e+000
1.482898e+003,7.895233e+000
1.483863e+003,8.297211e+000
1.484827e+003,8.274780e+000
1.485791e+003,8.025116e+000
1.486755e+003,7.622040e+000
1.487719e+003,6.391998e+000
1.488684e+003,5.009460e+000
1.489648e+003,5.804932e+000
1.490612e+003,9.474426e+000
1.491576e+003,1.270108e+001
1.492541e+003,1.239728e+001
1.493505e+003,1.040512e+001
1.494469e+003,1.109161e+001
1.495433e+003,1.378876e+001
1.496398e+003,1.513486e+001
1.497362e+003,1.440756e+001
1.498326e+003,1.413229e+001
1.499290e+003,1.556729e+001
1.500255e+003,1.817267e+001
1.501219e+003,2.163470e+001
1.502183e+003,2.564444e+001
1.503147e+003,2.876215e+001
1.504111e+003,3.052271e+001
1.505076e+003,3.209637e+001
1.506040e+003,3.348788e+001
1.507004e+003,3.582776e+001
1.507968e+003,4.055640e+001
1.508933e+003,4.682715e+001
1.509897e+003,5.294714e+001
1.510861e+003,5.878476e+001
1.511825e+003,6.503247e+001
1.512790e+003,7.184824e+001
1.513754e+003,7.949060e+001
1.514718e+003,8.911948e+001
1.515682e+003,1.005865e+002
1.516646e+003,1.107214e+002
1.517611e+003,1.189447e+002
1.518575e+003,1.270352e+002
1.519539e+003,1.361568e+002
1.520503e+003,1.449286e+002
1.521468e+003,1.540585e+002
1.522432e+003,1.615156e+002
1.523396e+003,1.643016e+002
1.524360e+003,1.624169e+002
1.525325e+003,1.582610e+002
1.526289e+003,1.534712e+002
1.527253e+003,1.484654e+002
1.528217e+003,1.441003e+002
1.529182e+003,1.405226e+002
1.530146e+003,1.345759e+002
1.531110e+003,1.248640e+002
1.532074e+003,1.150641e+002
1.533039e+003,1.057144e+002
1.534003e+003,9.542960e+001
1.534967e+003,8.315094e+001
1.535931e+003,7.049600e+001
1.536896e+003,5.863577e+001
1.537860e+003,4.820963e+001
1.538824e+003,3.999390e+001
1.539788e+003,3.423001e+001
1.540752e+003,2.971384e+001
1.541717e+003,2.489352e+001
1.542681e+003,2.017307e+001
1.543645e+003,1.765012e+001
1.544609e+003,1.911710e+001
1.545573e+003,1.853223e+001
1.546538e+003,1.289136e+001
1.547502e+003,8.810730e+000
1.548466e+003,1.050299e+001
1.549430e+003,1.375308e+001
1.550395e+003,1.378900e+001
1.551359e+003,1.129016e+001
1.552323e+003,9.993622e+000
1.553287e+003,1.114627e+001
1.554252e+003,1.224078e+001
1.555216e+003,1.091397e+001
1.556180e+003,8.456665e+000
1.557144e+003,8.134216e+000
1.558109e+003,1.008493e+001
1.559073e+003,1.061401e+001
1.560037e+003,8.371033e+000
1.561001e+003,6.966187e+000
1.561966e+003,8.775818e+000
1.562930e+003,1.117719e+001
1.563894e+003,1.178906e+001
1.564858e+003,1.087515e+001
1.565823e+003,8.972748e+000
1.566787e+003,6.335419e+000
1.567751e+003,4.972412e+000
1.568715e+003,6.406921e+000
1.569679e+003,8.564270e+000
1.570644e+003,8.555908e+000
1.571608e+003,7.145203e+000
1.572572e+003,6.914429e+000
1.573536e+003,8.042969e+000
1.574500e+003,9.236694e+000
1.575465e+003,1.001227e+001
1.576429e+003,1.072000e+001
1.577393e+003,1.239682e+001
1.578357e+003,1.377832e+001
1.579322e+003,1.149249e+001
1.580286e+003,5.821228e+000
1.581250e+003,2.631104e+000
1.582214e+003,4.214569e+000
1.583179e+003,6.611145e+000
1.584143e+003,6.833221e+000
1.585107e+003,6.248291e+000
1.586071e+003,7.144287e+000
1.587036e+003,9.083130e+000
1.588000e+003,1.008096e+001
1.588964e+003,9.561798e+000
1.589928e+003,8.999908e+000
1.590893e+003,9.654114e+000
1.591857e+003,1.058368e+001
1.592821e+003,9.838501e+000
1.593785e+003,7.961243e+000
1.594750e+003,8.411652e+000
1.595714e+003,1.205551e+001
1.596678e+003,1.465042e+001
1.597642e+003,1.406958e+001
1.598606e+003,1.258548e+001
1.599571e+003,1.178387e+001
1.600535e+003,1.144696e+001
1.601499e+003,1.127689e+001
1.602463e+003,1.122400e+001
1.603427e+003,1.138925e+001
1.604392e+003,1.182690e+001
1.605356e+003,1.247061e+001
1.606320e+003,1.346201e+001
1.607284e+003,1.455515e+001
1.608249e+003,1.488699e+001
1.609213e+003,1.441992e+001
1.610177e+003,1.448022e+001
1.611141e+003,1.574323e+001
1.612106e+003,1.641592e+001
1.613070e+003,1.541467e+001
1.614034e+003,1.363083e+001
1.614998e+003,1.075861e+001
1.615963e+003,7.939789e+000
1.616927e+003,7.205536e+000
1.617891e+003,8.654297e+000
1.618855e+003,1.067648e+001
1.619820e+003,1.238699e+001
1.620784e+003,1.347083e+001
1.621748e+003,1.356979e+001
1.622712e+003,1.298727e+001
1.623677e+003,1.240881e+001
1.624641e+003,1.184018e+001
1.625605e+003,1.128598e+001
1.626569e+003,9.744141e+000
1.627533e+003,9.263031e+000
1.628498e+003,1.236642e+001
1.629462e+003,1.584851e+001
1.630426e+003,1.679852e+001
1.631390e+003,1.592142e+001
1.632354e+003,1.508276e+001
1.633319e+003,1.479099e+001
1.634283e+003,1.464642e+001
1.635247e+003,1.433105e+001
1.636211e+003,1.397531e+001
1.637176e+003,1.410043e+001
1.638140e+003,1.467746e+001
1.639104e+003,1.407877e+001
1.640068e+003,1.162943e+001
1.641033e+003,1.024063e+001
1.641997e+003,1.182632e+001
1.642961e+003,1.303333e+001
1.643925e+003,1.144528e+001
1.644890e+003,9.292847e+000
1.645854e+003,8.985962e+000
1.646818e+003,9.959442e+000
1.647782e+003,9.963959e+000
1.648747e+003,8.429932e+000
1.649711e+003,7.785919e+000
1.650675e+003,1.047345e+001
1.651639e+003,1.462181e+001
1.652604e+003,1.630637e+001
1.653568e+003,1.551385e+001
1.654532e+003,1.316902e+001
1.655496e+003,8.219055e+000
1.656460e+003,5.757202e+000
1.657425e+003,9.381973e+000
1.658389e+003,1.304584e+001
1.659353e+003,1.327554e+001
1.660317e+003,1.202626e+001
1.661281e+003,1.113962e+001
1.662246e+003,1.067561e+001
1.663210e+003,1.011580e+001
1.664174e+003,9.344635e+000
1.665138e+003,8.792648e+000
1.666103e+003,8.739395e+000
1.667067e+003,9.093719e+000
1.668031e+003,1.014406e+001
1.668995e+003,1.178368e+001
1.669960e+003,1.179211e+001
1.670924e+003,9.581253e+000
1.671888e+003,7.727310e+000
1.672852e+003,7.064850e+000
1.673817e+003,6.732651e+000
1.674781e+003,5.882584e+000
1.675745e+003,5.239960e+000
1.676709e+003,5.932297e+000
1.677674e+003,7.530121e+000
1.678638e+003,8.547363e+000
1.679602e+003,8.523880e+000
1.680566e+003,8.287109e+000
1.681531e+003,8.642120e+000
1.682495e+003,9.106613e+000
1.683459e+003,8.328613e+000
1.684423e+003,6.594055e+000
1.685387e+003,6.637466e+000
1.686352e+003,9.121796e+000
1.687316e+003,1.017004e+001
1.688280e+003,7.954941e+000
1.689244e+003,5.129639e+000
1.690208e+003,2.902863e+000
1.691173e+003,1.567886e+000
1.692137e+003,1.913635e+000
1.693101e+003,3.607788e+000
1.694065e+003,5.568283e+000
1.695030e+003,7.471283e+000
1.695994e+003,8.226074e+000
1.696958e+003,6.641159e+000
1.697922e+003,4.338074e+000
1.698887e+003,3.198090e+000
1.699851e+003,3.043991e+000
1.700815e+003,3.552002e+000
1.701779e+003,4.585266e+000
1.702744e+003,4.509048e+000
1.703708e+003,2.638336e+000
1.704672e+003,8.080139e-001
1.705636e+003,-1.314545e-001
1.706601e+003,-1.368561e-001
1.707565e+003,1.908386e+000
1.708529e+003,5.138535e+000
1.709493e+003,6.223480e+000
1.710458e+003,4.535065e+000
1.711422e+003,2.894333e+000
1.712386e+003,2.443451e+000
1.713350e+003,2.652084e+000
1.714314e+003,3.081741e+000
1.715279e+003,3.669556e+000
1.716243e+003,4.611313e+000
1.717207e+003,5.774307e+000
1.718171e+003,6.629547e+000
1.719135e+003,7.059921e+000
1.720100e+003,6.544418e+000
1.721064e+003,4.397736e+000
1.722028e+003,1.924393e+000
1.722992e+003,1.310989e+000
1.723957e+003,2.240112e+000
1.724921e+003,1.980362e+000
1.725885e+003,2.067566e-002
1.726849e+003,-1.186523e+000
1.727814e+003,-1.176788e+000
1.728778e+003,-2.154541e-002
1.729742e+003,3.863098e+000
1.730706e+003,7.345444e+000
1.731671e+003,6.327850e+000
1.732635e+003,2.654266e+000
1.733599e+003,8.420715e-001
1.734563e+003,1.660187e+000
1.735528e+003,2.906769e+000
1.736492e+003,3.353439e+000
1.737456e+003,3.190155e+000
1.738420e+003,2.603363e+000
1.739385e+003,1.564804e+000
1.740349e+003,2.166443e-001
1.741313e+003,-1.797409e+000
1.742277e+003,-1.788742e+000
1.743241e+003,2.514496e+000
1.744206e+003,5.351471e+000
1.745170e+003,5.376236e+000
1.746134e+003,4.360565e+000
1.747098e+003,2.690979e+000
1.748063e+003,9.362488e-001
1.749027e+003,-5.534058e-001
1.749991e+003,-1.551285e+000
1.750955e+003,-1.613052e+000
1.751919e+003,-7.757874e-001
1.752884e+003,-4.074097e-003
1.753848e+003,-1.041870e-001
1.754812e+003,-6.118317e-001
1.755776e+003,-4.600220e-001
1.756741e+003,4.237518e-001
1.757705e+003,8.827667e-001
1.758669e+003,8.977051e-001
1.759633e+003,2.016144e-001
1.760598e+003,-2.688354e+000
1.761562e+003,-4.345428e+000
1.762526e+003,-2.424026e+000
1.763490e+003,-9.486389e-002
1.764455e+003,6.843109e-001
1.765419e+003,2.588959e-001
1.766383e+003,-1.162262e+000
1.767347e+003,-3.124451e+000
1.768312e+003,-4.150909e+000
1.769276e+003,-3.571991e+000
1.770240e+003,-2.275940e+000
1.771204e+003,-6.325226e-001
1.772168e+003,9.062958e-001
1.773133e+003,6.469727e-001
1.774097e+003,-1.159912e+000
1.775061e+003,-1.653625e+000
1.776025e+003,-3.963623e-001
1.776990e+003,-2.503815e-001
1.777954e+003,-2.977554e+000
1.778918e+003,-4.748520e+000
1.779882e+003,-1.520493e+000
1.780846e+003,2.958618e+000
1.781811e+003,3.186630e+000
1.782775e+003,5.462341e-001
1.783739e+003,-1.869202e-001
1.784703e+003,1.905060e+000
1.785668e+003,3.362823e+000
1.786632e+003,2.076752e+000
1.787596e+003,3.478546e-001
1.788560e+003,3.651428e-002
1.789525e+003,4.944763e-001
1.790489e+003,7.539368e-001
1.791453e+003,7.361298e-001
1.792417e+003,6.356659e-001
1.793382e+003,5.115662e-001
1.794346e+003,3.596039e-001
1.795310e+003,1.601257e-001
1.796274e+003,-9.648132e-002
1.797239e+003,-3.215790e-001
1.798203e+003,-4.751587e-001
1.799167e+003,-9.959259e-001
1.800131e+003,-2.348801e+000
1.801095e+003,-2.664307e+000
1.802060e+003,-4.254761e-001
1.803024e+003,8.021851e-001
1.803988e+003,-2.382355e-001
1.804952e+003,-1.398895e+000
1.805917e+003,-1.525665e+000
1.806881e+003,-1.410339e+000
1.807845e+003,-2.267212e+000
1.808809e+003,-3.362213e+000
1.809773e+003,-2.957916e+000
1.810738e+003,-8.807983e-001
1.811702e+003,1.557419e+000
1.812666e+003,3.493347e+000
1.813630e+003,4.629715e+000
1.814595e+003,4.461578e+000
1.815559e+003,3.265259e+000
1.816523e+003,2.298767e+000
1.817487e+003,1.620087e+000
1.818452e+003,9.257355e-001
1.819416e+003,3.415527e-001
1.820380e+003,-3.740997e-001
1.821344e+003,-1.896820e+000
1.822309e+003,-2.943481e+000
1.823273e+003,-2.226868e+000
1.824237e+003,-9.419098e-001
1.825201e+003,-7.195129e-001
1.826166e+003,-9.851837e-001
1.827130e+003,4.713135e-001
1.828094e+003,3.890335e+000
1.829058e+003,5.880493e+000
1.830022e+003,4.630020e+000
1.830987e+003,2.146698e+000
1.831951e+003,-6.018829e-001
1.832915e+003,-3.066467e+000
1.833879e+003,-4.854462e+000
1.834844e+003,-5.617538e+000
1.835808e+003,-3.656326e+000
1.836772e+003,8.092651e-001
1.837736e+003,3.537109e+000
1.838700e+003,2.569672e+000
1.839665e+003,6.898193e-001
1.840629e+003,4.773712e-001
1.841593e+003,1.098007e+000
1.842557e+003,6.223145e-001
1.843522e+003,-9.334106e-001
1.844486e+003,-1.794754e+000
1.845450e+003,-1.869415e+000
1.846414e+003,-1.055267e+000
1.847379e+003,2.216812e+000
1.848343e+003,3.791382e+000
1.849307e+003,6.133270e-001
1.850271e+003,-2.604431e+000
1.851236e+003,-1.646286e+000
1.852200e+003,1.014389e+000
1.853164e+003,1.398071e+000
1.854128e+003,-4.832001e-001
1.855093e+003,-2.244904e+000
1.856057e+003,-2.785919e+000
1.857021e+003,-2.307587e+000
1.857985e+003,-8.799286e-001
1.858949e+003,5.804596e-001
1.859914e+003,-4.335022e-002
1.860878e+003,-2.064926e+000
1.861842e+003,-1.417908e+000
1.862806e+003,1.947601e+000
1.863771e+003,4.712677e+000
1.864735e+003,6.399826e+000
1.865699e+003,6.942200e+000
1.866663e+003,6.229614e+000
1.867627e+003,4.714493e+000
1.868592e+003,2.011871e+000
1.869556e+003,-9.780579e-001
1.870520e+003,-2.207245e+000
1.871484e+003,-1.926483e+000
1.872449e+003,-1.720367e+000
1.873413e+003,-1.497055e+000
1.874377e+003,-9.202576e-001
1.875341e+003,-3.852844e-002
1.876306e+003,8.119354e-001
1.877270e+003,1.370636e+000
1.878234e+003,1.810837e+000
1.879198e+003,2.385071e+000
1.880163e+003,3.024734e+000
1.881127e+003,3.581345e+000
1.882091e+003,4.048721e+000
1.883055e+003,4.511230e+000
1.884020e+003,4.973801e+000
1.884984e+003,5.259064e+000
1.885948e+003,5.222321e+000
1.886912e+003,4.810867e+000
1.887876e+003,3.867859e+000
1.888841e+003,2.461990e+000
1.889805e+003,1.156769e+000
1.890769e+003,-2.860260e-001
1.891733e+003,-7.720947e-002
1.892698e+003,3.175446e+000
1.893662e+003,4.788361e+000
1.894626e+003,1.824509e+000
1.895590e+003,-1.366837e+000
1.896554e+003,-1.571304e+000
1.897519e+003,-3.995209e-001
1.898483e+003,1.116791e-001
1.899447e+003,1.379852e-001
1.900411e+003,1.131195e+000
1.901376e+003,3.451050e+000
1.902340e+003,5.193848e+000
1.903304e+003,5.476166e+000
1.904268e+003,5.238907e+000
1.905233e+003,5.051819e+000
1.906197e+003,4.721069e+000
1.907161e+003,3.674545e+000
1.908125e+003,2.575348e+000
1.909090e+003,2.735748e+000
1.910054e+003,3.882736e+000
1.911018e+003,4.676300e+000
1.911982e+003,4.713379e+000
1.912947e+003,4.503830e+000
1.913911e+003,4.388367e+000
1.914875e+003,4.157990e+000
1.915839e+003,3.345139e+000
1.916803e+003,2.173782e+000
1.917768e+003,2.609711e+000
1.918732e+003,5.308823e+000
1.919696e+003,5.599762e+000
1.920660e+003,2.107788e+000
1.921625e+003,2.012787e-001
1.922589e+003,1.593201e+000
1.923553e+003,3.669403e+000
1.924517e+003,6.145676e+000
1.925481e+003,7.774323e+000
1.926446e+003,6.562027e+000
1.927410e+003,4.061676e+000
1.928374e+003,3.445419e+000
1.929338e+003,4.735001e+000
1.930303e+003,5.675583e+000
1.931267e+003,5.856903e+000
1.932231e+003,5.795639e+000
1.933195e+003,5.671921e+000
1.934160e+003,5.177948e+000
1.935124e+003,3.243713e+000
1.936088e+003,1.423126e+000
1.937052e+003,2.014404e+000
1.938017e+003,4.318008e+000
1.938981e+003,6.715637e+000
1.939945e+003,8.599396e+000
1.940909e+003,9.719986e+000
1.941874e+003,9.881927e+000
1.942838e+003,8.413788e+000
1.943802e+003,4.614182e+000
1.944766e+003,4.971466e-001
1.945730e+003,5.827332e-002
1.946695e+003,2.750336e+000
1.947659e+003,4.991974e+000
1.948623e+003,6.841370e+000
1.949587e+003,7.059372e+000
1.950552e+003,5.090546e+000
1.951516e+003,3.488159e+000
1.952480e+003,3.075485e+000
1.953444e+003,3.248459e+000
1.954408e+003,3.732788e+000
1.955373e+003,4.287354e+000
1.956337e+003,4.944977e+000
1.957301e+003,5.619598e+000
1.958265e+003,5.305191e+000
1.959230e+003,3.761780e+000
1.960194e+003,3.285934e+000
1.961158e+003,4.456284e+000
1.962122e+003,5.908844e+000
1.963087e+003,8.023926e+000
1.964051e+003,9.510056e+000
1.965015e+003,9.185150e+000
1.965979e+003,8.492859e+000
1.966944e+003,9.124344e+000
1.967908e+003,1.019785e+001
1.968872e+003,9.651764e+000
1.969836e+003,7.674393e+000
1.970801e+003,6.600037e+000
1.971765e+003,7.346481e+000
1.972729e+003,7.903519e+000
1.973693e+003,6.298828e+000
1.974657e+003,4.348328e+000
1.975622e+003,4.853561e+000
1.976586e+003,7.042755e+000
1.977550e+003,9.572708e+000
1.978514e+003,1.207423e+001
1.979479e+003,1.212958e+001
1.980443e+003,9.557144e+000
1.981407e+003,7.962631e+000
1.982371e+003,8.758575e+000
1.983335e+003,1.027263e+001
1.984300e+003,1.127031e+001
1.985264e+003,1.183008e+001
1.986228e+003,1.223808e+001
1.987192e+003,1.226723e+001
1.988157e+003,1.056314e+001
1.989121e+003,6.395981e+000
1.990085e+003,4.643677e+000
1.991049e+003,6.986298e+000
1.992014e+003,8.473404e+000
1.992978e+003,7.192017e+000
1.993942e+003,6.675598e+000
1.994906e+003,9.126907e+000
1.995871e+003,1.174289e+001
1.996835e+003,1.260123e+001
1.997799e+003,1.231813e+001
1.998763e+003,1.150522e+001
1.999728e+003,1.038333e+001
