5.003444e+002,4.737941e+001
5.013087e+002,4.530019e+001
5.022729e+002,4.310588e+001
5.032371e+002,4.118649e+001
5.042014e+002,4.016559e+001
5.051656e+002,3.995236e+001
5.061298e+002,4.006041e+001
5.070941e+002,3.999501e+001
5.080583e+002,3.952789e+001
5.090225e+002,3.995421e+001
5.099868e+002,4.230884e+001
5.109510e+002,4.420615e+001
5.119152e+002,4.417319e+001
5.128795e+002,4.203699e+001
5.138437e+002,4.012254e+001
5.148079e+002,3.942619e+001
5.157722e+002,3.898007e+001
5.167364e+002,3.865271e+001
5.177006e+002,3.820422e+001
5.186649e+002,3.711324e+001
5.196291e+002,3.354959e+001
5.205933e+002,3.012244e+001
5.215576e+002,3.048048e+001
5.225218e+002,3.446085e+001
5.234860e+002,3.939301e+001
5.244503e+002,4.058832e+001
5.254145e+002,3.676714e+001
5.263787e+002,3.370897e+001
5.273430e+002,3.112381e+001
5.283072e+002,2.945851e+001
5.292714e+002,2.975246e+001
5.302357e+002,3.382816e+001
5.311999e+002,3.534746e+001
5.321641e+002,3.200655e+001
5.331284e+002,2.775191e+001
5.340926e+002,2.568091e+001
5.350568e+002,2.696941e+001
5.360211e+002,2.889651e+001
5.369853e+002,2.950734e+001
5.379495e+002,2.940421e+001
5.389138e+002,2.877362e+001
5.398780e+002,2.776511e+001
5.408422e+002,2.655624e+001
5.418065e+002,2.556924e+001
5.427707e+002,2.481917e+001
5.437349e+002,2.466664e+001
5.446992e+002,2.533044e+001
5.456634e+002,2.655885e+001
5.466276e+002,2.751964e+001
5.475919e+002,2.843649e+001
5.485561e+002,2.875180e+001
5.495203e+002,2.828749e+001
5.504846e+002,2.718719e+001
5.514488e+002,2.553882e+001
5.524130e+002,2.298071e+001
5.533773e+002,2.096309e+001
5.543415e+002,2.033777e+001
5.553057e+002,2.041643e+001
5.562700e+002,2.045242e+001
5.572342e+002,1.997838e+001
5.581984e+002,1.939525e+001
5.591627e+002,2.027779e+001
5.601269e+002,2.195641e+001
5.610911e+002,2.258224e+001
5.620554e+002,2.106511e+001
5.630196e+002,1.775473e+001
5.639838e+002,1.623486e+001
5.649481e+002,1.784557e+001
5.659123e+002,1.927908e+001
5.668765e+002,1.995609e+001
5.678408e+002,2.021733e+001
5.688050e+002,2.097093e+001
5.697692e+002,2.335490e+001
5.707335e+002,2.449980e+001
5.716977e+002,2.322900e+001
5.726619e+002,2.050479e+001
5.736262e+002,1.730403e+001
5.745904e+002,1.405693e+001
5.755546e+002,1.171242e+001
5.765189e+002,1.188243e+001
5.774831e+002,1.352888e+001
5.784473e+002,1.511900e+001
5.794116e+002,1.564845e+001
5.803758e+002,1.524686e+001
5.813400e+002,1.454109e+001
5.823043e+002,1.318663e+001
5.832685e+002,1.208281e+001
5.842327e+002,1.172525e+001
5.851970e+002,1.207338e+001
5.861612e+002,1.244035e+001
5.871254e+002,1.254951e+001
5.880897e+002,1.276218e+001
5.890539e+002,1.308264e+001
5.900181e+002,1.350781e+001
5.909824e+002,1.418806e+001
5.919466e+002,1.555083e+001
5.929108e+002,1.646429e+001
5.938751e+002,1.560751e+001
5.948393e+002,1.371652e+001
5.958035e+002,1.187816e+001
5.967678e+002,1.089825e+001
5.977320e+002,1.070253e+001
5.986962e+002,1.039006e+001
5.996605e+002,9.818787e+000
6.006247e+002,9.396393e+000
6.015889e+002,9.414520e+000
6.025532e+002,9.844864e+000
6.035174e+002,1.008275e+001
6.044816e+002,9.988297e+000
6.054459e+002,9.861298e+000
6.064101e+002,9.346436e+000
6.073743e+002,8.880997e+000
6.083386e+002,9.437592e+000
6.093028e+002,1.225537e+001
6.102670e+002,1.470811e+001
6.112313e+002,1.444891e+001
6.121955e+002,1.277255e+001
6.131597e+002,1.137415e+001
6.141240e+002,1.140587e+001
6.150882e+002,1.241562e+001
6.160524e+002,1.253452e+001
6.170167e+002,1.197221e+001
6.179809e+002,1.126936e+001
6.189451e+002,1.058824e+001
6.199094e+002,9.877792e+000
6.208736e+002,9.105164e+000
6.218378e+002,8.424057e+000
6.228021e+002,7.680359e+000
6.237663e+002,6.561768e+000
6.247305e+002,5.477127e+000
6.256948e+002,5.073761e+000
6.266590e+002,5.692413e+000
6.276232e+002,6.649872e+000
6.285875e+002,7.808014e+000
6.295517e+002,8.952179e+000
6.305159e+002,9.801483e+000
6.314802e+002,1.018524e+001
6.324444e+002,1.021150e+001
6.334086e+002,1.049753e+001
6.343729e+002,1.091431e+001
6.353371e+002,1.043559e+001
6.363013e+002,8.433990e+000
6.372656e+002,5.566055e+000
6.382298e+002,4.295898e+000
6.391940e+002,6.756088e+000
6.401583e+002,8.019440e+000
6.411225e+002,7.690948e+000
6.420867e+002,6.526810e+000
6.430510e+002,5.108307e+000
6.440152e+002,3.178223e+000
6.449794e+002,2.055954e+000
6.459437e+002,3.102158e+000
6.469079e+002,4.582947e+000
6.478721e+002,5.011108e+000
6.488364e+002,3.992645e+000
6.498006e+002,2.642395e+000
6.507648e+002,3.158905e+000
6.517291e+002,4.785126e+000
6.526933e+002,5.764404e+000
6.536575e+002,5.752151e+000
6.546218e+002,5.081879e+000
6.555860e+002,4.386169e+000
6.565502e+002,3.647903e+000
6.575145e+002,2.879440e+000
6.584787e+002,1.745605e+000
6.594429e+002,8.533325e-001
6.604072e+002,8.669586e-001
6.613714e+002,1.988937e+000
6.623356e+002,2.894104e+000
6.632999e+002,2.597321e+000
6.642641e+002,2.113907e+000
6.652283e+002,2.047760e+000
6.661926e+002,2.452164e+000
6.671568e+002,2.943375e+000
6.681210e+002,2.953949e+000
6.690853e+002,2.718216e+000
6.700495e+002,3.068115e+000
6.710137e+002,3.975861e+000
6.719780e+002,4.844788e+000
6.729422e+002,5.042892e+000
6.739064e+002,4.469101e+000
6.748707e+002,3.498474e+000
6.758349e+002,1.591721e+000
6.767991e+002,-1.596069e-002
6.777634e+002,-6.667328e-001
6.787276e+002,-3.888397e-001
6.796918e+002,9.063721e-002
6.806561e+002,3.097229e-001
6.816203e+002,8.013458e-001
6.825845e+002,2.420624e+000
6.835488e+002,4.330795e+000
6.845130e+002,4.937057e+000
6.854772e+002,2.880173e+000
6.864415e+002,-2.919006e-002
6.874057e+002,4.879913e-001
6.883699e+002,3.263962e+000
6.893342e+002,5.771545e+000
6.902984e+002,6.659882e+000
6.912626e+002,6.101700e+000
6.922269e+002,5.118011e+000
6.931911e+002,2.922806e+000
6.941553e+002,1.657883e+000
6.951196e+002,1.953827e+000
6.960838e+002,2.959167e+000
6.970480e+002,3.366608e+000
6.980123e+002,2.724808e+000
6.989765e+002,2.062851e+000
6.999407e+002,1.652817e+000
7.009050e+002,1.475983e+000
7.018692e+002,1.479202e+000
7.028334e+002,1.655426e+000
7.037977e+002,2.125977e+000
7.047619e+002,3.463531e+000
7.057261e+002,5.219406e+000
7.066904e+002,6.292755e+000
7.076546e+002,6.494675e+000
7.086188e+002,6.217056e+000
7.095831e+002,6.091934e+000
7.105473e+002,6.308762e+000
7.115115e+002,5.811600e+000
7.124758e+002,4.035248e+000
7.134400e+002,2.204300e+000
7.144042e+002,8.842926e-001
7.153685e+002,1.676483e-001
7.163327e+002,2.444305e-001
7.172969e+002,2.397705e+000
7.182612e+002,4.317123e+000
7.192254e+002,5.032150e+000
7.201896e+002,4.691040e+000
7.211539e+002,3.748047e+000
7.221181e+002,2.502960e+000
7.230823e+002,1.221359e+000
7.240466e+002,4.712677e-001
7.250108e+002,2.659149e-001
7.259750e+002,6.571503e-001
7.269393e+002,1.717972e+000
7.279035e+002,3.203415e+000
7.288677e+002,3.823441e+000
7.298320e+002,2.365311e+000
7.307962e+002,1.935562e+000
7.317604e+002,3.894211e+000
7.327247e+002,6.559052e+000
7.336889e+002,7.267853e+000
7.346531e+002,4.609390e+000
7.356174e+002,1.942490e+000
7.365816e+002,1.273376e+000
7.375458e+002,1.538345e+000
7.385101e+002,2.369263e+000
7.394743e+002,3.387466e+000
7.404385e+002,3.928604e+000
7.414028e+002,2.592758e+000
7.423670e+002,-2.253723e-001
7.433312e+002,-1.774826e+000
7.442955e+002,-1.712082e+000
7.452597e+002,-6.277466e-001
7.462239e+002,1.013931e+000
7.471882e+002,3.612717e+000
7.481524e+002,4.690033e+000
7.491166e+002,2.626663e+000
7.500809e+002,9.154358e-001
7.510451e+002,1.288773e+000
7.520093e+002,3.206467e+000
7.529736e+002,4.433563e+000
7.539378e+002,3.518707e+000
7.549020e+002,2.539597e+000
7.558663e+002,3.081589e+000
7.568306e+002,4.300446e+000
7.577948e+002,4.912918e+000
7.587590e+002,4.152573e+000
7.597233e+002,2.535141e+000
7.606875e+002,1.750549e+000
7.616517e+002,1.768341e+000
7.626160e+002,2.061844e+000
7.635802e+002,2.593430e+000
7.645444e+002,3.289902e+000
7.655087e+002,4.021027e+000
7.664729e+002,4.967102e+000
7.674371e+002,5.425720e+000
7.684014e+002,5.129929e+000
7.693656e+002,4.632935e+000
7.703298e+002,4.123779e+000
7.712941e+002,3.715988e+000
7.722583e+002,3.762726e+000
7.732225e+002,5.099960e+000
7.741868e+002,6.434082e+000
7.751510e+002,6.535065e+000
7.761152e+002,5.748093e+000
7.770795e+002,4.995331e+000
7.780437e+002,5.077225e+000
7.790079e+002,5.891708e+000
7.799722e+002,7.108292e+000
7.809364e+002,8.962830e+000
7.819006e+002,9.847595e+000
7.828649e+002,8.505127e+000
7.838291e+002,5.788055e+000
7.847933e+002,4.532867e+000
7.857576e+002,6.026871e+000
7.867218e+002,6.677780e+000
7.876860e+002,4.862854e+000
7.886503e+002,2.932861e+000
7.896145e+002,3.273148e+000
7.905787e+002,6.333710e+000
7.915430e+002,9.523804e+000
7.925072e+002,9.649658e+000
7.934714e+002,8.412415e+000
7.944357e+002,7.694534e+000
7.953999e+002,7.680191e+000
7.963641e+002,7.712219e+000
7.973284e+002,6.976807e+000
7.982926e+002,5.377686e+000
7.992568e+002,5.101120e+000
8.002211e+002,6.598602e+000
8.011853e+002,7.851822e+000
8.021495e+002,8.264557e+000
8.031138e+002,8.099045e+000
8.040780e+002,7.941910e+000
8.050422e+002,8.030426e+000
8.060065e+002,7.545639e+000
8.069707e+002,5.479950e+000
8.079349e+002,3.137512e+000
8.088992e+002,1.820709e+000
8.098634e+002,2.012680e+000
8.108276e+002,3.142334e+000
8.117919e+002,4.826096e+000
8.127561e+002,6.467224e+000
8.137203e+002,6.967300e+000
8.146846e+002,6.317245e+000
8.156488e+002,5.461990e+000
8.166130e+002,5.559341e+000
8.175773e+002,6.883041e+000
8.185415e+002,7.321976e+000
8.195057e+002,6.091812e+000
8.204700e+002,4.958557e+000
8.214342e+002,4.548401e+000
8.223984e+002,4.690750e+000
8.233627e+002,4.837830e+000
8.243269e+002,4.715942e+000
8.252911e+002,4.873993e+000
8.262554e+002,6.070297e+000
8.272196e+002,7.372787e+000
8.281838e+002,7.544678e+000
8.291481e+002,6.303192e+000
8.301123e+002,4.774902e+000
8.310765e+002,5.211288e+000
8.320408e+002,7.277573e+000
8.330050e+002,7.225662e+000
8.339692e+002,4.340561e+000
8.349335e+002,1.032288e+000
8.358977e+002,-2.775574e-001
8.368619e+002,6.380768e-001
8.378262e+002,2.237045e+000
8.387904e+002,5.434982e+000
8.397546e+002,8.043564e+000
8.407189e+002,9.826431e+000
8.416831e+002,1.059552e+001
8.426473e+002,9.814102e+000
8.436116e+002,6.868988e+000
8.445758e+002,3.989166e+000
8.455400e+002,3.494080e+000
8.465043e+002,4.205750e+000
8.474685e+002,5.110550e+000
8.484327e+002,5.937790e+000
8.493970e+002,7.013962e+000
8.503612e+002,8.845001e+000
8.513254e+002,1.167566e+001
8.522897e+002,1.266948e+001
8.532539e+002,1.049368e+001
8.542181e+002,8.335236e+000
8.551824e+002,8.450348e+000
8.561466e+002,1.061513e+001
8.571108e+002,1.218951e+001
8.580751e+002,1.185925e+001
8.590393e+002,1.143272e+001
8.600035e+002,1.149323e+001
8.609678e+002,1.192145e+001
8.619320e+002,1.257430e+001
8.628962e+002,1.335889e+001
8.638605e+002,1.417863e+001
8.648247e+002,1.494353e+001
8.657889e+002,1.559691e+001
8.667532e+002,1.605417e+001
8.677174e+002,1.630103e+001
8.686816e+002,1.639276e+001
8.696459e+002,1.648183e+001
8.706101e+002,1.672824e+001
8.715743e+002,1.606470e+001
8.725386e+002,1.278036e+001
8.735028e+002,1.082840e+001
8.744670e+002,1.192024e+001
8.754313e+002,1.472795e+001
8.763955e+002,1.677371e+001
8.773597e+002,1.715105e+001
8.783240e+002,1.727039e+001
8.792882e+002,1.815329e+001
8.802524e+002,1.921118e+001
8.812167e+002,1.984596e+001
8.821809e+002,2.002696e+001
8.831451e+002,2.033083e+001
8.841094e+002,2.159787e+001
8.850736e+002,2.376457e+001
8.860378e+002,2.430835e+001
8.870021e+002,2.276004e+001
8.879663e+002,2.129976e+001
8.889305e+002,2.101176e+001
8.898948e+002,2.174095e+001
8.908590e+002,2.295781e+001
8.918232e+002,2.561478e+001
8.927875e+002,2.719685e+001
8.937517e+002,2.651437e+001
8.947159e+002,2.518295e+001
8.956802e+002,2.450209e+001
8.966444e+002,2.468936e+001
8.976086e+002,2.492763e+001
8.985729e+002,2.438168e+001
8.995371e+002,2.361353e+001
9.005013e+002,2.343156e+001
9.014656e+002,2.384586e+001
9.024298e+002,2.453893e+001
9.033940e+002,2.519012e+001
9.043583e+002,2.582578e+001
9.053225e+002,2.724463e+001
9.062867e+002,3.161151e+001
9.072510e+002,3.363220e+001
9.082152e+002,3.177850e+001
9.091794e+002,2.865822e+001
9.101437e+002,2.672986e+001
9.111079e+002,2.637506e+001
9.120721e+002,2.630597e+001
9.130364e+002,2.561938e+001
9.140006e+002,2.500960e+001
9.149648e+002,2.494508e+001
9.159291e+002,2.541216e+001
9.168933e+002,2.627414e+001
9.178575e+002,2.738129e+001
9.188218e+002,2.855981e+001
9.197860e+002,2.937735e+001
9.207502e+002,2.982321e+001
9.217145e+002,2.964334e+001
9.226787e+002,2.860231e+001
9.236429e+002,2.729671e+001
9.246072e+002,2.648758e+001
9.255714e+002,2.622426e+001
9.265356e+002,2.581050e+001
9.274999e+002,2.439816e+001
9.284641e+002,2.353893e+001
9.294283e+002,2.443423e+001
9.303926e+002,2.619299e+001
9.313568e+002,2.734377e+001
9.323210e+002,2.715245e+001
9.332853e+002,2.580611e+001
9.342495e+002,2.213170e+001
9.352137e+002,1.779230e+001
9.361780e+002,1.597595e+001
9.371422e+002,1.738483e+001
9.381064e+002,1.998596e+001
9.390707e+002,2.091257e+001
9.400349e+002,1.967786e+001
9.409991e+002,1.950206e+001
9.419634e+002,2.166702e+001
9.429276e+002,2.306602e+001
9.438918e+002,2.236015e+001
9.448561e+002,2.058560e+001
9.458203e+002,1.963725e+001
9.467845e+002,2.024049e+001
9.477488e+002,2.076216e+001
9.487130e+002,1.923898e+001
9.496772e+002,1.759862e+001
9.506415e+002,1.764403e+001
9.516057e+002,1.924046e+001
9.525699e+002,2.099290e+001
9.535342e+002,2.153607e+001
9.544984e+002,2.094452e+001
9.554626e+002,2.000755e+001
9.564269e+002,1.873145e+001
9.573911e+002,1.774306e+001
9.583553e+002,1.729379e+001
9.593196e+002,1.714105e+001
9.602838e+002,1.689963e+001
9.612480e+002,1.648117e+001
9.622123e+002,1.615874e+001
9.631765e+002,1.639120e+001
9.641407e+002,1.641882e+001
9.651050e+002,1.551823e+001
9.660692e+002,1.410770e+001
9.670334e+002,1.310896e+001
9.679977e+002,1.313785e+001
9.689619e+002,1.394833e+001
9.699261e+002,1.516513e+001
9.708904e+002,1.656418e+001
9.718546e+002,1.761813e+001
9.728188e+002,1.811682e+001
9.737831e+002,1.849457e+001
9.747473e+002,1.943965e+001
9.757115e+002,2.114807e+001
9.766758e+002,2.251495e+001
9.776400e+002,2.411418e+001
9.786042e+002,2.480833e+001
9.795685e+002,2.390271e+001
9.805327e+002,2.197871e+001
9.814969e+002,1.952791e+001
9.824612e+002,1.675804e+001
9.834254e+002,1.477812e+001
9.843896e+002,1.555415e+001
9.853539e+002,1.704721e+001
9.863181e+002,1.700084e+001
9.872823e+002,1.539294e+001
9.882466e+002,1.335663e+001
9.892108e+002,1.192369e+001
9.901750e+002,1.112704e+001
9.911393e+002,1.045052e+001
9.921035e+002,9.588989e+000
9.930677e+002,8.922989e+000
9.940320e+002,8.869476e+000
9.949962e+002,8.873581e+000
9.959604e+002,8.242508e+000
9.969247e+002,6.994186e+000
9.978889e+002,6.178680e+000
9.988531e+002,6.112000e+000
9.998174e+002,6.680603e+000
1.000782e+003,8.779327e+000
1.001746e+003,1.118536e+001
1.002710e+003,1.178580e+001
1.003674e+003,9.856796e+000
1.004639e+003,7.104813e+000
1.005603e+003,6.653702e+000
1.006567e+003,8.742310e+000
1.007531e+003,9.303833e+000
1.008495e+003,7.756531e+000
1.009460e+003,5.978973e+000
1.010424e+003,4.719757e+000
1.011388e+003,4.109680e+000
1.012352e+003,4.868423e+000
1.013317e+003,8.166061e+000
1.014281e+003,1.050223e+001
1.015245e+003,1.046420e+001
1.016209e+003,9.537277e+000
1.017174e+003,8.702164e+000
1.018138e+003,8.117126e+000
1.019102e+003,7.403931e+000
1.020066e+003,6.252014e+000
1.021031e+003,4.880798e+000
1.021995e+003,3.777176e+000
1.022959e+003,2.815247e+000
1.023923e+003,1.738297e+000
1.024887e+003,1.735840e-001
1.025852e+003,-1.079010e+000
1.026816e+003,-3.506622e-001
1.027780e+003,3.117996e+000
1.028744e+003,5.235046e+000
1.029709e+003,5.105927e+000
1.030673e+003,4.273575e+000
1.031637e+003,2.510483e+000
1.032601e+003,5.311279e-001
1.033566e+003,-7.394867e-001
1.034530e+003,-9.646759e-001
1.035494e+003,-6.052246e-001
1.036458e+003,1.718597e-001
1.037422e+003,9.250336e-001
1.038387e+003,6.225739e-001
1.039351e+003,-5.981293e-001
1.040315e+003,-1.247726e+000
1.041279e+003,-7.366943e-002
1.042244e+003,2.467529e+000
1.043208e+003,3.948685e+000
1.044172e+003,3.639877e+000
1.045136e+003,3.242035e+000
1.046101e+003,2.694565e+000
1.047065e+003,2.250641e+000
1.048029e+003,2.259659e+000
1.048993e+003,2.509903e+000
1.049958e+003,2.145569e+000
1.050922e+003,4.223328e-001
1.051886e+003,-9.837646e-001
1.052850e+003,2.723083e-001
1.053814e+003,2.506653e+000
1.054779e+003,3.445679e+000
1.055743e+003,2.656357e+000
1.056707e+003,1.350418e+000
1.057671e+003,9.933624e-001
1.058636e+003,1.577194e+000
1.059600e+003,1.854416e+000
1.060564e+003,1.842606e+000
1.061528e+003,1.711975e+000
1.062493e+003,1.018646e+000
1.063457e+003,3.722687e-001
1.064421e+003,8.368988e-001
1.065385e+003,2.507034e+000
1.066349e+003,3.421280e+000
1.067314e+003,1.731033e+000
1.068278e+003,1.855469e-002
1.069242e+003,6.612244e-001
1.070206e+003,2.378326e+000
1.071171e+003,2.839661e+000
1.072135e+003,1.160904e+000
1.073099e+003,-1.307495e+000
1.074063e+003,-2.254272e+000
1.075028e+003,-1.527664e+000
1.075992e+003,-1.783752e-001
1.076956e+003,2.760864e+000
1.077920e+003,4.555817e+000
1.078885e+003,3.529068e+000
1.079849e+003,1.058929e+000
1.080813e+003,-3.529358e-001
1.081777e+003,-2.133026e-001
1.082741e+003,1.430969e-001
1.083706e+003,-2.357941e-001
1.084670e+003,-4.569092e-001
1.085634e+003,5.274048e-001
1.086598e+003,1.968491e+000
1.087563e+003,2.194107e+000
1.088527e+003,4.157562e-001
1.089491e+003,-2.026062e+000
1.090455e+003,-2.516464e+000
1.091420e+003,-8.423004e-001
1.092384e+003,-1.203461e-001
1.093348e+003,-1.046326e+000
1.094312e+003,-1.748886e+000
1.095276e+003,-6.195526e-001
1.096241e+003,1.638565e+000
1.097205e+003,2.654388e+000
1.098169e+003,1.755753e+000
1.099133e+003,5.959320e-001
1.100098e+003,-8.123474e-001
1.101062e+003,-1.650711e+000
1.102026e+003,-1.031143e+000
1.102990e+003,5.860443e-001
1.103955e+003,2.153076e+000
1.104919e+003,3.013885e+000
1.105883e+003,3.313980e+000
1.106847e+003,3.440903e+000
1.107812e+003,3.341415e+000
1.108776e+003,2.452774e+000
1.109740e+003,3.939972e-001
1.110704e+003,-1.717697e+000
1.111668e+003,-3.301781e+000
1.112633e+003,-4.235947e+000
1.113597e+003,-3.989372e+000
1.114561e+003,-1.961960e+000
1.115525e+003,-1.659851e-001
1.116490e+003,6.753998e-001
1.117454e+003,1.188629e+000
1.118418e+003,1.887360e+000
1.119382e+003,2.689774e+000
1.120347e+003,3.121338e+000
1.121311e+003,2.835983e+000
1.122275e+003,2.072647e+000
1.123239e+003,1.406189e+000
1.124203e+003,9.635162e-001
1.125168e+003,1.076096e+000
1.126132e+003,2.127396e+000
1.127096e+003,2.863831e+000
1.128060e+003,1.912903e+000
1.129025e+003,-2.944489e-001
1.129989e+003,-1.475258e+000
1.130953e+003,-9.648590e-001
1.131917e+003,-6.692200e-001
1.132882e+003,-1.423531e+000
1.133846e+003,-2.149796e+000
1.134810e+003,-2.267410e+000
1.135774e+003,-1.777512e+000
1.136739e+003,-8.108368e-001
1.137703e+003,5.363617e-001
1.138667e+003,1.935806e+000
1.139631e+003,2.742661e+000
1.140595e+003,3.040955e+000
1.141560e+003,3.866318e+000
1.142524e+003,5.512680e+000
1.143488e+003,6.997757e+000
1.144452e+003,7.331161e+000
1.145417e+003,6.930756e+000
1.146381e+003,7.402191e+000
1.147345e+003,9.039185e+000
1.148309e+003,1.080452e+001
1.149274e+003,1.233604e+001
1.150238e+003,1.408061e+001
1.151202e+003,1.661295e+001
1.152166e+003,1.950824e+001
1.153130e+003,2.201816e+001
1.154095e+003,2.371892e+001
1.155059e+003,2.466199e+001
1.156023e+003,2.510916e+001
1.156987e+003,2.491812e+001
1.157952e+003,2.315149e+001
1.158916e+003,1.956812e+001
1.159880e+003,1.643607e+001
1.160844e+003,1.519144e+001
1.161809e+003,1.492747e+001
1.162773e+003,1.377934e+001
1.163737e+003,1.159470e+001
1.164701e+003,9.212685e+000
1.165666e+003,5.795372e+000
1.166630e+003,3.434547e+000
1.167594e+003,3.711143e+000
1.168558e+003,5.169624e+000
1.169522e+003,6.015808e+000
1.170487e+003,5.606506e+000
1.171451e+003,4.292343e+000
1.172415e+003,2.286667e+000
1.173379e+003,-1.242447e-001
1.174344e+003,-1.157951e+000
1.175308e+003,-7.261810e-001
1.176272e+003,-6.008911e-001
1.177236e+003,-2.000847e+000
1.178201e+003,-3.447929e+000
1.179165e+003,-2.498596e+000
1.180129e+003,8.513870e-001
1.181093e+003,2.279663e+000
1.182057e+003,-7.424927e-001
1.183022e+003,-3.281212e+000
1.183986e+003,-3.192986e+000
1.184950e+003,-2.028763e+000
1.185914e+003,-1.110123e+000
1.186879e+003,-6.967316e-001
1.187843e+003,-4.205933e-001
1.188807e+003,-2.723694e-003
1.189771e+003,4.971237e-001
1.190736e+003,1.088371e+000
1.191700e+003,1.841911e+000
1.192664e+003,1.678802e+000
1.193628e+003,9.162140e-002
1.194593e+003,-1.805855e+000
1.195557e+003,-3.513306e+000
1.196521e+003,-4.931793e+000
1.197485e+003,-5.601418e+000
1.198449e+003,-5.272797e+000
1.199414e+003,-4.714668e+000
1.200378e+003,-3.953766e+000
1.201342e+003,-3.361694e+000
1.202306e+003,-3.240623e+000
1.203271e+003,-3.518242e+000
1.204235e+003,-3.971283e+000
1.205199e+003,-4.472542e+000
1.206163e+003,-5.090370e+000
1.207128e+003,-5.985069e+000
1.208092e+003,-7.173149e+000
1.209056e+003,-8.066368e+000
1.210020e+003,-8.942711e+000
1.210984e+003,-9.085205e+000
1.211949e+003,-7.346771e+000
1.212913e+003,-5.372665e+000
1.213877e+003,-5.505547e+000
1.214841e+003,-7.818787e+000
1.215806e+003,-1.002492e+001
1.216770e+003,-1.132729e+001
1.217734e+003,-1.219800e+001
1.218698e+003,-1.310155e+001
1.219663e+003,-1.384428e+001
1.220627e+003,-1.425468e+001
1.221591e+003,-1.424382e+001
1.222555e+003,-1.356125e+001
1.223520e+003,-1.191404e+001
1.224484e+003,-9.682243e+000
1.225448e+003,-8.796486e+000
1.226412e+003,-9.832146e+000
1.227376e+003,-1.114823e+001
1.228341e+003,-1.376484e+001
1.229305e+003,-1.556149e+001
1.230269e+003,-1.456657e+001
1.231233e+003,-1.216358e+001
1.232198e+003,-1.141166e+001
1.233162e+003,-1.316112e+001
1.234126e+003,-1.471067e+001
1.235090e+003,-1.384371e+001
1.236055e+003,-1.216267e+001
1.237019e+003,-1.128178e+001
1.237983e+003,-1.108356e+001
1.238947e+003,-1.102552e+001
1.239911e+003,-1.085237e+001
1.240876e+003,-1.083243e+001
1.241840e+003,-1.149574e+001
1.242804e+003,-1.291576e+001
1.243768e+003,-1.359992e+001
1.244733e+003,-1.263053e+001
1.245697e+003,-1.211728e+001
1.246661e+003,-1.276398e+001
1.247625e+003,-1.353268e+001
1.248590e+003,-1.348653e+001
1.249554e+003,-1.279066e+001
1.250518e+003,-1.235674e+001
1.251482e+003,-1.266244e+001
1.252447e+003,-1.296049e+001
1.253411e+003,-1.193073e+001
1.254375e+003,-1.038042e+001
1.255339e+003,-1.044009e+001
1.256303e+003,-1.206441e+001
1.257268e+003,-1.284439e+001
1.258232e+003,-1.101627e+001
1.259196e+003,-8.229591e+000
1.260160e+003,-8.229607e+000
1.261125e+003,-1.174714e+001
1.262089e+003,-1.314030e+001
1.263053e+003,-9.389610e+000
1.264017e+003,-6.610558e+000
1.264982e+003,-6.673416e+000
1.265946e+003,-7.958473e+000
1.266910e+003,-9.408920e+000
1.267874e+003,-1.049847e+001
1.268839e+003,-1.057580e+001
1.269803e+003,-9.179832e+000
1.270767e+003,-7.221840e+000
1.271731e+003,-6.381950e+000
1.272695e+003,-6.686630e+000
1.273660e+003,-7.713814e+000
1.274624e+003,-9.996239e+000
1.275588e+003,-1.178811e+001
1.276552e+003,-1.162504e+001
1.277517e+003,-1.047555e+001
1.278481e+003,-1.036234e+001
1.279445e+003,-1.150760e+001
1.280409e+003,-1.223737e+001
1.281374e+003,-1.142391e+001
1.282338e+003,-1.088304e+001
1.283302e+003,-1.217352e+001
1.284266e+003,-1.386155e+001
1.285230e+003,-1.415754e+001
1.286195e+003,-1.297732e+001
1.287159e+003,-1.155031e+001
1.288123e+003,-1.086277e+001
1.289087e+003,-1.070973e+001
1.290052e+003,-1.057376e+001
1.291016e+003,-1.045135e+001
1.291980e+003,-1.055665e+001
1.292944e+003,-1.102585e+001
1.293909e+003,-1.162010e+001
1.294873e+003,-1.253295e+001
1.295837e+003,-1.327407e+001
1.296801e+003,-1.293002e+001
1.297766e+003,-1.149949e+001
1.298730e+003,-1.041178e+001
1.299694e+003,-1.049505e+001
1.300658e+003,-1.115147e+001
1.301622e+003,-1.196210e+001
1.302587e+003,-1.271099e+001
1.303551e+003,-1.310757e+001
1.304515e+003,-1.306536e+001
1.305479e+003,-1.243350e+001
1.306444e+003,-1.091241e+001
1.307408e+003,-9.054771e+000
1.308372e+003,-8.860870e+000
1.309336e+003,-1.115971e+001
1.310301e+003,-1.257308e+001
1.311265e+003,-1.227988e+001
1.312229e+003,-1.185034e+001
1.313193e+003,-1.181471e+001
1.314157e+003,-1.182830e+001
1.315122e+003,-1.134792e+001
1.316086e+003,-1.047161e+001
1.317050e+003,-9.855919e+000
1.318014e+003,-9.911308e+000
1.318979e+003,-1.039081e+001
1.319943e+003,-1.101067e+001
1.320907e+003,-1.169787e+001
1.321871e+003,-1.213150e+001
1.322836e+003,-1.245798e+001
1.323800e+003,-1.222418e+001
1.324764e+003,-1.039144e+001
1.325728e+003,-8.232315e+000
1.326693e+003,-8.282204e+000
1.327657e+003,-1.067955e+001
1.328621e+003,-1.257561e+001
1.329585e+003,-1.323391e+001
1.330549e+003,-1.291833e+001
1.331514e+003,-1.120328e+001
1.332478e+003,-9.411644e+000
1.333442e+003,-8.961533e+000
1.334406e+003,-9.628731e+000
1.335371e+003,-1.019559e+001
1.336335e+003,-9.921089e+000
1.337299e+003,-9.162987e+000
1.338263e+003,-8.592484e+000
1.339228e+003,-8.193398e+000
1.340192e+003,-8.124023e+000
1.341156e+003,-8.805901e+000
1.342120e+003,-9.182106e+000
1.343084e+003,-8.939262e+000
1.344049e+003,-8.583389e+000
1.345013e+003,-8.512054e+000
1.345977e+003,-8.616432e+000
1.346941e+003,-8.585098e+000
1.347906e+003,-8.317673e+000
1.348870e+003,-7.751053e+000
1.349834e+003,-6.442497e+000
1.350798e+003,-5.167549e+000
1.351763e+003,-5.453697e+000
1.352727e+003,-7.035721e+000
1.353691e+003,-8.435997e+000
1.354655e+003,-9.135910e+000
1.355620e+003,-9.420586e+000
1.356584e+003,-9.773697e+000
1.357548e+003,-1.007555e+001
1.358512e+003,-9.104408e+000
1.359476e+003,-5.806229e+000
1.360441e+003,-4.100044e+000
1.361405e+003,-6.508499e+000
1.362369e+003,-8.974167e+000
1.363333e+003,-9.453995e+000
1.364298e+003,-8.767281e+000
1.365262e+003,-8.298996e+000
1.366226e+003,-8.359810e+000
1.367190e+003,-8.139320e+000
1.368155e+003,-6.891830e+000
1.369119e+003,-5.153069e+000
1.370083e+003,-4.685577e+000
1.371047e+003,-5.999115e+000
1.372011e+003,-6.236237e+000
1.372976e+003,-4.096268e+000
1.373940e+003,-2.763985e+000
1.374904e+003,-4.122475e+000
1.375868e+003,-6.411163e+000
1.376833e+003,-7.423538e+000
1.377797e+003,-7.074631e+000
1.378761e+003,-6.562782e+000
1.379725e+003,-6.324226e+000
1.380690e+003,-6.224327e+000
1.381654e+003,-6.264565e+000
1.382618e+003,-6.262367e+000
1.383582e+003,-5.738426e+000
1.384547e+003,-4.819229e+000
1.385511e+003,-4.622849e+000
1.386475e+003,-5.973572e+000
1.387439e+003,-7.491425e+000
1.388403e+003,-6.598099e+000
1.389368e+003,-3.312004e+000
1.390332e+003,-1.733559e+000
1.391296e+003,-2.630547e+000
1.392260e+003,-3.879936e+000
1.393225e+003,-5.362686e+000
1.394189e+003,-6.660942e+000
1.395153e+003,-7.582962e+000
1.396117e+003,-8.133476e+000
1.397082e+003,-8.303665e+000
1.398046e+003,-8.122169e+000
1.399010e+003,-7.723747e+000
1.399974e+003,-7.263901e+000
1.400938e+003,-6.761856e+000
1.401903e+003,-6.070824e+000
1.402867e+003,-4.917542e+000
1.403831e+003,-4.167587e+000
1.404795e+003,-4.415741e+000
1.405760e+003,-4.389030e+000
1.406724e+003,-3.175789e+000
1.407688e+003,-1.979698e+000
1.408652e+003,-2.477173e+000
1.409617e+003,-4.329422e+000
1.410581e+003,-5.362236e+000
1.411545e+003,-4.606857e+000
1.412509e+003,-3.461670e+000
1.413474e+003,-3.141129e+000
1.414438e+003,-3.485138e+000
1.415402e+003,-4.250633e+000
1.416366e+003,-5.289665e+000
1.417330e+003,-6.203896e+000
1.418295e+003,-6.953323e+000
1.419259e+003,-7.087837e+000
1.420223e+003,-5.453239e+000
1.421187e+003,-2.595451e+000
1.422152e+003,-2.144691e+000
1.423116e+003,-5.250458e+000
1.424080e+003,-6.978157e+000
1.425044e+003,-4.493477e+000
1.426009e+003,-2.072319e+000
1.426973e+003,-1.510826e+000
1.427937e+003,-1.973450e+000
1.428901e+003,-2.530724e+000
1.429865e+003,-2.906296e+000
1.430830e+003,-3.204117e+000
1.431794e+003,-3.515839e+000
1.432758e+003,-3.712379e+000
1.433722e+003,-3.437950e+000
1.434687e+003,-2.554436e+000
1.435651e+003,-1.907448e+000
1.436615e+003,-1.551758e+000
1.437579e+003,-1.735931e+000
1.438544e+003,-2.937019e+000
1.439508e+003,-4.169670e+000
1.440472e+003,-4.969734e+000
1.441436e+003,-5.184074e+000
1.442401e+003,-4.368164e+000
1.443365e+003,-2.606644e+000
1.444329e+003,-1.425011e+000
1.445293e+003,-2.156097e+000
1.446257e+003,-3.451294e+000
1.447222e+003,-2.355721e+000
1.448186e+003,5.406342e-001
1.449150e+003,2.024879e+000
1.450114e+003,1.736229e+000
1.451079e+003,3.527603e-001
1.452043e+003,-3.129784e+000
1.453007e+003,-6.506256e+000
1.453971e+003,-6.158829e+000
1.454936e+003,-2.620506e+000
1.455900e+003,4.886627e-002
1.456864e+003,1.038383e+000
1.457828e+003,1.117363e+000
1.458792e+003,2.485657e-002
1.459757e+003,-1.273323e+000
1.460721e+003,-2.094139e+000
1.461685e+003,-2.478310e+000
1.462649e+003,-2.530525e+000
1.463614e+003,-2.283279e+000
1.464578e+003,-1.850708e+000
1.465542e+003,-1.312263e+000
1.466506e+003,-7.829742e-001
1.467471e+003,-5.068436e-001
1.468435e+003,-3.942108e-001
1.469399e+003,-6.679459e-001
1.470363e+003,-2.142433e+000
1.471328e+003,-2.977356e+000
1.472292e+003,-2.475975e+000
1.473256e+003,-1.612999e+000
1.474220e+003,-7.252579e-001
1.475184e+003,-2.920532e-002
1.476149e+003,1.063919e-001
1.477113e+003,-3.889923e-001
1.478077e+003,-1.064728e+000
1.479041e+003,-1.442963e+000
1.480006e+003,-1.544197e+000
1.480970e+003,-1.531670e+000
1.481934e+003,-1.430405e+000
1.482898e+003,-1.357964e+000
1.483863e+003,-1.425064e+000
1.484827e+003,-1.389015e+000
1.485791e+003,-9.135666e-001
1.486755e+003,-4.508133e-001
1.487719e+003,-5.449829e-001
1.488684e+003,-1.053642e+000
1.489648e+003,-1.558739e+000
1.490612e+003,-1.877220e+000
1.491576e+003,-1.637665e+000
1.492541e+003,-3.911591e-001
1.493505e+003,1.287025e+000
1.494469e+003,2.265984e+000
1.495433e+003,2.534248e+000
1.496398e+003,1.972473e+000
1.497362e+003,1.353760e-001
1.498326e+003,-8.622360e-001
1.499290e+003,8.112717e-001
1.500255e+003,3.400574e+000
1.501219e+003,4.320938e+000
1.502183e+003,3.856865e+000
1.503147e+003,4.168686e+000
1.504111e+003,5.837761e+000
1.505076e+003,7.730316e+000
1.506040e+003,9.299454e+000
1.507004e+003,1.070801e+001
1.507968e+003,1.221367e+001
1.508933e+003,1.368101e+001
1.509897e+003,1.464690e+001
1.510861e+003,1.516092e+001
1.511825e+003,1.631211e+001
1.512790e+003,1.902091e+001
1.513754e+003,2.232993e+001
1.514718e+003,2.413445e+001
1.515682e+003,2.440892e+001
1.516646e+003,2.641414e+001
1.517611e+003,3.152144e+001
1.518575e+003,3.581252e+001
1.519539e+003,3.803946e+001
1.520503e+003,3.925851e+001
1.521468e+003,3.991685e+001
1.522432e+003,3.988329e+001
1.523396e+003,3.851534e+001
1.524360e+003,3.611449e+001
1.525325e+003,3.413907e+001
1.526289e+003,3.357901e+001
1.527253e+003,3.368480e+001
1.528217e+003,3.315965e+001
1.529182e+003,3.204276e+001
1.530146e+003,3.005460e+001
1.531110e+003,2.621055e+001
1.532074e+003,2.326798e+001
1.533039e+003,2.226278e+001
1.534003e+003,2.087600e+001
1.534967e+003,1.793125e+001
1.535931e+003,1.437859e+001
1.536896e+003,1.086910e+001
1.537860e+003,7.889641e+000
1.538824e+003,6.234520e+000
1.539788e+003,6.220757e+000
1.540752e+003,6.960960e+000
1.541717e+003,7.426956e+000
1.542681e+003,7.562561e+000
1.543645e+003,6.854095e+000
1.544609e+003,4.766319e+000
1.545573e+003,3.370346e+000
1.546538e+003,2.364197e+000
1.547502e+003,2.250526e+000
1.548466e+003,3.769646e+000
1.549430e+003,5.953445e+000
1.550395e+003,8.361664e+000
1.551359e+003,1.041386e+001
1.552323e+003,1.086840e+001
1.553287e+003,9.370827e+000
1.554252e+003,6.997345e+000
1.555216e+003,4.466072e+000
1.556180e+003,2.283951e+000
1.557144e+003,1.905518e+000
1.558109e+003,3.429474e+000
1.559073e+003,4.179665e+000
1.560037e+003,3.779572e+000
1.561001e+003,3.098572e+000
1.561966e+003,2.303795e+000
1.562930e+003,1.610054e+000
1.563894e+003,9.591904e-001
1.564858e+003,5.519257e-001
1.565823e+003,1.166443e+000
1.566787e+003,2.844666e+000
1.567751e+003,3.963287e+000
1.568715e+003,3.479858e+000
1.569679e+003,2.532555e+000
1.570644e+003,2.432625e+000
1.571608e+003,2.971809e+000
1.572572e+003,3.777649e+000
1.573536e+003,4.894768e+000
1.574500e+003,5.430229e+000
1.575465e+003,4.586487e+000
1.576429e+003,3.827477e+000
1.577393e+003,4.511887e+000
1.578357e+003,5.990303e+000
1.579322e+003,7.165558e+000
1.580286e+003,7.950470e+000
1.581250e+003,8.209251e+000
1.582214e+003,7.722305e+000
1.583179e+003,7.376495e+000
1.584143e+003,7.937691e+000
1.585107e+003,8.837883e+000
1.586071e+003,9.483261e+000
1.587036e+003,9.926880e+000
1.588000e+003,1.010612e+001
1.588964e+003,9.956696e+000
1.589928e+003,9.670708e+000
1.590893e+003,9.372185e+000
1.591857e+003,9.034241e+000
1.592821e+003,8.409370e+000
1.593785e+003,7.664436e+000
1.594750e+003,7.938072e+000
1.595714e+003,9.595779e+000
1.596678e+003,1.053821e+001
1.597642e+003,9.298370e+000
1.598606e+003,8.040932e+000
1.599571e+003,8.683456e+000
1.600535e+003,1.024849e+001
1.601499e+003,1.154620e+001
1.602463e+003,1.250327e+001
1.603427e+003,1.354083e+001
1.604392e+003,1.487649e+001
1.605356e+003,1.605086e+001
1.606320e+003,1.675211e+001
1.607284e+003,1.689758e+001
1.608249e+003,1.588464e+001
1.609213e+003,1.364741e+001
1.610177e+003,1.258916e+001
1.611141e+003,1.354233e+001
1.612106e+003,1.460516e+001
1.613070e+003,1.503159e+001
1.614034e+003,1.505355e+001
1.614998e+003,1.445197e+001
1.615963e+003,1.371557e+001
1.616927e+003,1.376356e+001
1.617891e+003,1.461636e+001
1.618855e+003,1.535382e+001
1.619820e+003,1.539592e+001
1.620784e+003,1.507175e+001
1.621748e+003,1.470987e+001
1.622712e+003,1.450836e+001
1.623677e+003,1.561980e+001
1.624641e+003,1.856318e+001
1.625605e+003,1.970244e+001
1.626569e+003,1.677328e+001
1.627533e+003,1.412391e+001
1.628498e+003,1.424391e+001
1.629462e+003,1.530806e+001
1.630426e+003,1.587628e+001
1.631390e+003,1.609061e+001
1.632354e+003,1.676256e+001
1.633319e+003,1.797456e+001
1.634283e+003,1.849285e+001
1.635247e+003,1.715821e+001
1.636211e+003,1.534259e+001
1.637176e+003,1.600484e+001
1.638140e+003,1.891501e+001
1.639104e+003,1.998743e+001
1.640068e+003,1.865958e+001
1.641033e+003,1.706784e+001
1.641997e+003,1.505876e+001
1.642961e+003,1.392451e+001
1.643925e+003,1.518290e+001
1.644890e+003,1.680965e+001
1.645854e+003,1.637170e+001
1.646818e+003,1.461554e+001
1.647782e+003,1.395710e+001
1.648747e+003,1.510220e+001
1.649711e+003,1.676779e+001
1.650675e+003,1.811608e+001
1.651639e+003,1.894224e+001
1.652604e+003,1.842128e+001
1.653568e+003,1.659606e+001
1.654532e+003,1.565440e+001
1.655496e+003,1.586442e+001
1.656460e+003,1.643069e+001
1.657425e+003,1.766389e+001
1.658389e+003,1.852717e+001
1.659353e+003,1.833431e+001
1.660317e+003,1.761941e+001
1.661281e+003,1.679971e+001
1.662246e+003,1.597437e+001
1.663210e+003,1.517282e+001
1.664174e+003,1.444025e+001
1.665138e+003,1.418727e+001
1.666103e+003,1.507344e+001
1.667067e+003,1.607024e+001
1.668031e+003,1.449745e+001
1.668995e+003,1.067532e+001
1.669960e+003,9.344009e+000
1.670924e+003,1.150779e+001
1.671888e+003,1.339093e+001
1.672852e+003,1.367156e+001
1.673817e+003,1.358150e+001
1.674781e+003,1.434097e+001
1.675745e+003,1.485201e+001
1.676709e+003,1.324589e+001
1.677674e+003,1.032438e+001
1.678638e+003,8.895172e+000
1.679602e+003,9.826332e+000
1.680566e+003,1.113742e+001
1.681531e+003,1.131070e+001
1.682495e+003,1.102055e+001
1.683459e+003,1.166366e+001
1.684423e+003,1.290851e+001
1.685387e+003,1.258521e+001
1.686352e+003,1.028853e+001
1.687316e+003,8.322601e+000
1.688280e+003,7.316689e+000
1.689244e+003,6.985962e+000
1.690208e+003,7.487297e+000
1.691173e+003,8.296265e+000
1.692137e+003,9.161415e+000
1.693101e+003,9.891502e+000
1.694065e+003,9.704918e+000
1.695030e+003,8.327583e+000
1.695994e+003,6.961845e+000
1.696958e+003,6.325363e+000
1.697922e+003,6.167526e+000
1.698887e+003,6.296959e+000
1.699851e+003,6.636009e+000
1.700815e+003,6.941780e+000
1.701779e+003,7.163361e+000
1.702744e+003,7.175735e+000
1.703708e+003,6.944092e+000
1.704672e+003,6.721786e+000
1.705636e+003,6.640282e+000
1.706601e+003,6.577248e+000
1.707565e+003,6.388725e+000
1.708529e+003,6.173721e+000
1.709493e+003,6.201973e+000
1.710458e+003,6.544243e+000
1.711422e+003,6.666229e+000
1.712386e+003,6.211983e+000
1.713350e+003,5.707642e+000
1.714314e+003,5.474312e+000
1.715279e+003,5.425247e+000
1.716243e+003,5.618729e+000
1.717207e+003,5.931282e+000
1.718171e+003,5.622253e+000
1.719135e+003,4.499718e+000
1.720100e+003,3.961357e+000
1.721064e+003,5.101761e+000
1.722028e+003,6.737030e+000
1.722992e+003,7.248451e+000
1.723957e+003,6.838409e+000
1.724921e+003,6.357895e+000
1.725885e+003,5.689072e+000
1.726849e+003,5.127548e+000
1.727814e+003,4.770882e+000
1.728778e+003,4.643341e+000
1.729742e+003,5.093712e+000
1.730706e+003,5.436966e+000
1.731671e+003,4.832695e+000
1.732635e+003,3.564621e+000
1.733599e+003,2.076393e+000
1.734563e+003,7.579956e-001
1.735528e+003,7.919846e-001
1.736492e+003,2.766212e+000
1.737456e+003,4.956467e+000
1.738420e+003,5.327446e+000
1.739385e+003,4.222008e+000
1.740349e+003,2.947464e+000
1.741313e+003,1.273064e+000
1.742277e+003,8.217087e-001
1.743241e+003,2.508713e+000
1.744206e+003,3.968575e+000
1.745170e+003,5.280182e+000
1.746134e+003,5.816269e+000
1.747098e+003,4.605049e+000
1.748063e+003,2.897911e+000
1.749027e+003,2.087433e+000
1.749991e+003,2.130249e+000
1.750955e+003,2.426193e+000
1.751919e+003,2.655258e+000
1.752884e+003,2.520210e+000
1.753848e+003,1.761940e+000
1.754812e+003,8.046799e-001
1.755776e+003,5.321655e-001
1.756741e+003,9.721069e-001
1.757705e+003,1.766312e+000
1.758669e+003,3.127831e+000
1.759633e+003,4.107803e+000
1.760598e+003,4.744240e+000
1.761562e+003,4.684830e+000
1.762526e+003,3.169479e+000
1.763490e+003,1.708862e+000
1.764455e+003,1.555725e+000
1.765419e+003,2.078621e+000
1.766383e+003,2.083710e+000
1.767347e+003,1.523300e+000
1.768312e+003,1.380119e+000
1.769276e+003,2.118118e+000
1.770240e+003,2.746696e+000
1.771204e+003,2.153259e+000
1.772168e+003,9.470978e-001
1.773133e+003,3.570480e-001
1.774097e+003,3.542175e-001
1.775061e+003,7.348251e-001
1.776025e+003,1.480659e+000
1.776990e+003,2.261955e+000
1.777954e+003,3.034004e+000
1.778918e+003,3.858879e+000
1.779882e+003,5.130440e+000
1.780846e+003,6.100540e+000
1.781811e+003,5.590019e+000
1.782775e+003,4.031395e+000
1.783739e+003,2.715744e+000
1.784703e+003,1.805527e+000
1.785668e+003,1.504219e+000
1.786632e+003,2.059494e+000
1.787596e+003,2.915504e+000
1.788560e+003,4.377594e+000
1.789525e+003,5.517654e+000
1.790489e+003,4.255478e+000
1.791453e+003,1.504906e+000
1.792417e+003,5.018082e-001
1.793382e+003,1.794479e+000
1.794346e+003,3.168983e+000
1.795310e+003,3.448784e+000
1.796274e+003,3.461319e+000
1.797239e+003,4.330238e+000
1.798203e+003,5.465050e+000
1.799167e+003,4.521683e+000
1.800131e+003,7.073746e-001
1.801095e+003,-4.835892e-001
1.802060e+003,3.203484e+000
1.803024e+003,5.826187e+000
1.803988e+003,6.401764e+000
1.804952e+003,6.254555e+000
1.805917e+003,5.923592e+000
1.806881e+003,5.242905e+000
1.807845e+003,3.558083e+000
1.808809e+003,1.550705e+000
1.809773e+003,4.229126e-001
1.810738e+003,4.866333e-001
1.811702e+003,1.641548e+000
1.812666e+003,3.765457e+000
1.813630e+003,5.544594e+000
1.814595e+003,5.025246e+000
1.815559e+003,2.914734e+000
1.816523e+003,2.374802e+000
1.817487e+003,3.648193e+000
1.818452e+003,3.824959e+000
1.819416e+003,2.370949e+000
1.820380e+003,1.060905e+000
1.821344e+003,-5.875397e-002
1.822309e+003,-3.956375e-001
1.823273e+003,1.353737e+000
1.824237e+003,3.330948e+000
1.825201e+003,3.137596e+000
1.826166e+003,1.629303e+000
1.827130e+003,1.468300e+000
1.828094e+003,3.058548e+000
1.829058e+003,4.317657e+000
1.830022e+003,4.289825e+000
1.830987e+003,3.669792e+000
1.831951e+003,2.421776e+000
1.832915e+003,1.373055e+000
1.833879e+003,2.336380e+000
1.834844e+003,4.455711e+000
1.835808e+003,4.574615e+000
1.836772e+003,2.525482e+000
1.837736e+003,1.871384e+000
1.838700e+003,4.199913e+000
1.839665e+003,6.644630e+000
1.840629e+003,6.557152e+000
1.841593e+003,5.029961e+000
1.842557e+003,4.282898e+000
1.843522e+003,4.306091e+000
1.844486e+003,4.488243e+000
1.845450e+003,5.087509e+000
1.846414e+003,5.458557e+000
1.847379e+003,5.516953e+000
1.848343e+003,5.307663e+000
1.849307e+003,4.671814e+000
1.850271e+003,4.005127e+000
1.851236e+003,3.410858e+000
1.852200e+003,3.113548e+000
1.853164e+003,3.486252e+000
1.854128e+003,4.310913e+000
1.855093e+003,4.966080e+000
1.856057e+003,5.258034e+000
1.857021e+003,5.503929e+000
1.857985e+003,5.985741e+000
1.858949e+003,6.340385e+000
1.859914e+003,5.650932e+000
1.860878e+003,4.253700e+000
1.861842e+003,4.182487e+000
1.862806e+003,5.471008e+000
1.863771e+003,6.238007e+000
1.864735e+003,6.060448e+000
1.865699e+003,5.766800e+000
1.866663e+003,5.599037e+000
1.867627e+003,5.756027e+000
1.868592e+003,6.842690e+000
1.869556e+003,8.005379e+000
1.870520e+003,7.404518e+000
1.871484e+003,5.369743e+000
1.872449e+003,4.176628e+000
1.873413e+003,4.337822e+000
1.874377e+003,4.690346e+000
1.875341e+003,4.554756e+000
1.876306e+003,4.761917e+000
1.877270e+003,6.209969e+000
1.878234e+003,7.769585e+000
1.879198e+003,8.405197e+000
1.880163e+003,8.267082e+000
1.881127e+003,7.493210e+000
1.882091e+003,6.430275e+000
1.883055e+003,5.986618e+000
1.884020e+003,6.477325e+000
1.884984e+003,7.130531e+000
1.885948e+003,7.243546e+000
1.886912e+003,7.128433e+000
1.887876e+003,7.504814e+000
1.888841e+003,8.278397e+000
1.889805e+003,8.075203e+000
1.890769e+003,6.624893e+000
1.891733e+003,5.640274e+000
1.892698e+003,5.239433e+000
1.893662e+003,5.345123e+000
1.894626e+003,6.350937e+000
1.895590e+003,7.347069e+000
1.896554e+003,7.541367e+000
1.897519e+003,7.545158e+000
1.898483e+003,8.434074e+000
1.899447e+003,9.691063e+000
1.900411e+003,9.238808e+000
1.901376e+003,6.598312e+000
1.902340e+003,5.206184e+000
1.903304e+003,7.274353e+000
1.904268e+003,9.419289e+000
1.905233e+003,9.433540e+000
1.906197e+003,8.709358e+000
1.907161e+003,8.878906e+000
1.908125e+003,9.290833e+000
1.909090e+003,8.275085e+000
1.910054e+003,6.092613e+000
1.911018e+003,4.335587e+000
1.911982e+003,3.674568e+000
1.912947e+003,4.354462e+000
1.913911e+003,6.544647e+000
1.914875e+003,9.205399e+000
1.915839e+003,1.074620e+001
1.916803e+003,1.120288e+001
1.917768e+003,1.071923e+001
1.918732e+003,9.027664e+000
1.919696e+003,8.424065e+000
1.920660e+003,9.365318e+000
1.921625e+003,1.028876e+001
1.922589e+003,1.104423e+001
1.923553e+003,1.136388e+001
1.924517e+003,1.049352e+001
1.925481e+003,9.679649e+000
1.926446e+003,1.050005e+001
1.927410e+003,1.199226e+001
1.928374e+003,1.208424e+001
1.929338e+003,1.071252e+001
1.930303e+003,9.487106e+000
1.931267e+003,8.697517e+000
1.932231e+003,8.643303e+000
1.933195e+003,9.957657e+000
1.934160e+003,1.136800e+001
1.935124e+003,1.191867e+001
1.936088e+003,1.203940e+001
1.937052e+003,1.250326e+001
1.938017e+003,1.299425e+001
1.938981e+003,1.244172e+001
1.939945e+003,1.093263e+001
1.940909e+003,9.833794e+000
1.941874e+003,9.690788e+000
1.942838e+003,9.278404e+000
1.943802e+003,7.391747e+000
1.944766e+003,5.444916e+000
1.945730e+003,6.571274e+000
1.946695e+003,1.017675e+001
1.947659e+003,1.133063e+001
1.948623e+003,9.746071e+000
1.949587e+003,8.937317e+000
1.950552e+003,9.487236e+000
1.951516e+003,1.001307e+001
1.952480e+003,1.000768e+001
1.953444e+003,9.987503e+000
1.954408e+003,1.037969e+001
1.955373e+003,1.083132e+001
1.956337e+003,1.089794e+001
1.957301e+003,1.069753e+001
1.958265e+003,1.035063e+001
1.959230e+003,9.773315e+000
1.960194e+003,9.878265e+000
1.961158e+003,1.162402e+001
1.962122e+003,1.263316e+001
1.963087e+003,1.165843e+001
1.964051e+003,1.059279e+001
1.965015e+003,1.039079e+001
1.965979e+003,1.081860e+001
1.966944e+003,1.193074e+001
1.967908e+003,1.318456e+001
1.968872e+003,1.372334e+001
1.969836e+003,1.354535e+001
1.970801e+003,1.328153e+001
1.971765e+003,1.322130e+001
1.972729e+003,1.327491e+001
1.973693e+003,1.338580e+001
1.974657e+003,1.349268e+001
1.975622e+003,1.341935e+001
1.976586e+003,1.326794e+001
1.977550e+003,1.330176e+001
1.978514e+003,1.357451e+001
1.979479e+003,1.453164e+001
1.980443e+003,1.612330e+001
1.981407e+003,1.649365e+001
1.982371e+003,1.489214e+001
1.983335e+003,1.357678e+001
1.984300e+003,1.432059e+001
1.985264e+003,1.570406e+001
1.986228e+003,1.552538e+001
1.987192e+003,1.415803e+001
1.988157e+003,1.356111e+001
1.989121e+003,1.390508e+001
1.990085e+003,1.428886e+001
1.991049e+003,1.519630e+001
1.992014e+003,1.520990e+001
1.992978e+003,1.303002e+001
1.993942e+003,1.143188e+001
1.994906e+003,1.179723e+001
1.995871e+003,1.262257e+001
1.996835e+003,1.264412e+001
1.997799e+003,1.255496e+001
1.998763e+003,1.370721e+001
1.999728e+003,1.574948e+001
