5.003444e+002,3.690410e+001
5.013087e+002,3.456567e+001
5.022729e+002,3.205267e+001
5.032371e+002,2.993176e+001
5.042014e+002,2.954878e+001
5.051656e+002,3.063759e+001
5.061298e+002,3.169974e+001
5.070941e+002,3.125305e+001
5.080583e+002,2.870177e+001
5.090225e+002,2.778551e+001
5.099868e+002,2.926906e+001
5.109510e+002,3.099570e+001
5.119152e+002,3.203603e+001
5.128795e+002,3.234209e+001
5.138437e+002,3.209827e+001
5.148079e+002,3.067303e+001
5.157722e+002,2.940903e+001
5.167364e+002,2.899565e+001
5.177006e+002,2.936902e+001
5.186649e+002,2.977222e+001
5.196291e+002,2.932468e+001
5.205933e+002,2.858546e+001
5.215576e+002,2.796257e+001
5.225218e+002,2.744305e+001
5.234860e+002,2.697421e+001
5.244503e+002,2.659354e+001
5.254145e+002,2.654289e+001
5.263787e+002,2.585506e+001
5.273430e+002,2.373782e+001
5.283072e+002,2.150697e+001
5.292714e+002,2.108455e+001
5.302357e+002,2.341484e+001
5.311999e+002,2.530864e+001
5.321641e+002,2.704680e+001
5.331284e+002,2.810231e+001
5.340926e+002,2.767184e+001
5.350568e+002,2.529517e+001
5.360211e+002,2.275755e+001
5.369853e+002,2.186687e+001
5.379495e+002,2.172858e+001
5.389138e+002,2.183400e+001
5.398780e+002,2.185742e+001
5.408422e+002,2.162720e+001
5.418065e+002,2.043378e+001
5.427707e+002,1.845958e+001
5.437349e+002,1.706155e+001
5.446992e+002,1.668085e+001
5.456634e+002,1.703474e+001
5.466276e+002,1.715984e+001
5.475919e+002,1.680524e+001
5.485561e+002,1.659828e+001
5.495203e+002,1.668254e+001
5.504846e+002,1.680315e+001
5.514488e+002,1.662271e+001
5.524130e+002,1.600084e+001
5.533773e+002,1.526277e+001
5.543415e+002,1.459781e+001
5.553057e+002,1.394017e+001
5.562700e+002,1.313188e+001
5.572342e+002,1.206642e+001
5.581984e+002,1.097221e+001
5.591627e+002,1.063554e+001
5.601269e+002,1.080409e+001
5.610911e+002,1.070970e+001
5.620554e+002,9.866516e+000
5.630196e+002,8.442413e+000
5.639838e+002,8.388077e+000
5.649481e+002,1.100926e+001
5.659123e+002,1.309972e+001
5.668765e+002,1.431148e+001
5.678408e+002,1.477614e+001
5.688050e+002,1.465538e+001
5.697692e+002,1.342110e+001
5.707335e+002,1.195271e+001
5.716977e+002,1.047688e+001
5.726619e+002,9.053879e+000
5.736262e+002,7.682861e+000
5.745904e+002,6.353180e+000
5.755546e+002,5.256363e+000
5.765189e+002,4.219849e+000
5.774831e+002,3.433121e+000
5.784473e+002,3.655014e+000
5.794116e+002,5.430359e+000
5.803758e+002,8.580978e+000
5.813400e+002,9.789093e+000
5.823043e+002,8.569733e+000
5.832685e+002,7.053146e+000
5.842327e+002,5.799042e+000
5.851970e+002,4.893784e+000
5.861612e+002,4.492661e+000
5.871254e+002,4.894943e+000
5.880897e+002,5.433334e+000
5.890539e+002,6.086761e+000
5.900181e+002,6.717880e+000
5.909824e+002,7.176224e+000
5.919466e+002,7.386765e+000
5.929108e+002,7.428421e+000
5.938751e+002,7.592865e+000
5.948393e+002,7.666382e+000
5.958035e+002,7.182114e+000
5.967678e+002,5.829697e+000
5.977320e+002,3.887100e+000
5.986962e+002,3.392059e+000
5.996605e+002,4.200180e+000
6.006247e+002,4.997742e+000
6.015889e+002,5.162598e+000
6.025532e+002,4.756348e+000
6.035174e+002,4.548248e+000
6.044816e+002,4.751175e+000
6.054459e+002,4.981689e+000
6.064101e+002,5.100128e+000
6.073743e+002,5.215057e+000
6.083386e+002,5.681641e+000
6.093028e+002,7.128830e+000
6.102670e+002,8.027435e+000
6.112313e+002,6.668228e+000
6.121955e+002,4.347672e+000
6.131597e+002,2.866241e+000
6.141240e+002,3.430344e+000
6.150882e+002,5.350983e+000
6.160524e+002,5.609604e+000
6.170167e+002,4.556091e+000
6.179809e+002,3.550751e+000
6.189451e+002,3.181122e+000
6.199094e+002,3.304504e+000
6.208736e+002,3.167755e+000
6.218378e+002,2.322540e+000
6.228021e+002,1.948715e+000
6.237663e+002,2.396790e+000
6.247305e+002,3.347839e+000
6.256948e+002,4.352493e+000
6.266590e+002,5.419693e+000
6.276232e+002,5.798126e+000
6.285875e+002,4.740051e+000
6.295517e+002,3.260239e+000
6.305159e+002,2.403412e+000
6.314802e+002,2.701981e+000
6.324444e+002,3.662369e+000
6.334086e+002,4.307922e+000
6.343729e+002,4.726883e+000
6.353371e+002,4.701248e+000
6.363013e+002,4.089355e+000
6.372656e+002,2.983490e+000
6.382298e+002,1.769058e+000
6.391940e+002,-1.668091e-001
6.401583e+002,-1.375137e+000
6.411225e+002,-1.416809e+000
6.420867e+002,-7.684631e-001
6.430510e+002,4.757690e-002
6.440152e+002,9.529877e-001
6.449794e+002,1.513504e+000
6.459437e+002,1.593079e+000
6.469079e+002,1.293228e+000
6.478721e+002,5.170135e-001
6.488364e+002,-6.507721e-001
6.498006e+002,-1.785538e+000
6.507648e+002,-2.144806e+000
6.517291e+002,-1.940750e+000
6.526933e+002,-1.419739e+000
6.536575e+002,-5.913544e-001
6.546218e+002,1.072388e-001
6.555860e+002,-2.391205e-001
6.565502e+002,-2.717392e+000
6.575145e+002,-3.836121e+000
6.584787e+002,-2.759064e+000
6.594429e+002,-1.176178e+000
6.604072e+002,-4.407806e-001
6.613714e+002,-8.118286e-001
6.623356e+002,-1.125931e+000
6.632999e+002,-9.908600e-001
6.642641e+002,-6.421356e-001
6.652283e+002,2.604675e-001
6.661926e+002,1.478546e+000
6.671568e+002,2.191345e+000
6.681210e+002,1.089569e+000
6.690853e+002,-1.097977e+000
6.700495e+002,-2.161133e+000
6.710137e+002,-2.107712e+000
6.719780e+002,-1.818756e+000
6.729422e+002,-2.321243e+000
6.739064e+002,-3.981033e+000
6.748707e+002,-4.304810e+000
6.758349e+002,-2.359268e+000
6.767991e+002,-6.049652e-001
6.777634e+002,8.984375e-002
6.787276e+002,-1.853485e-001
6.796918e+002,-9.701385e-001
6.806561e+002,-3.710571e+000
6.816203e+002,-5.209763e+000
6.825845e+002,-3.367874e+000
6.835488e+002,3.806610e-001
6.845130e+002,3.810562e+000
6.854772e+002,5.344360e+000
6.864415e+002,5.435257e+000
6.874057e+002,4.948425e+000
6.883699e+002,3.927719e+000
6.893342e+002,2.525269e+000
6.902984e+002,7.983551e-001
6.912626e+002,-1.088882e+000
6.922269e+002,-2.210968e+000
6.931911e+002,-1.945480e+000
6.941553e+002,-1.477432e+000
6.951196e+002,-8.733215e-001
6.960838e+002,-2.675171e-001
6.970480e+002,1.767578e-001
6.980123e+002,3.892059e-001
6.989765e+002,6.569824e-001
6.999407e+002,8.176727e-001
7.009050e+002,1.211029e+000
7.018692e+002,2.484283e+000
7.028334e+002,4.639984e+000
7.037977e+002,6.550949e+000
7.047619e+002,6.145615e+000
7.057261e+002,4.326294e+000
7.066904e+002,2.680954e+000
7.076546e+002,1.457886e+000
7.086188e+002,5.116272e-001
7.095831e+002,-3.882599e-001
7.105473e+002,-1.384659e+000
7.115115e+002,-1.942368e+000
7.124758e+002,-2.183792e+000
7.134400e+002,-2.044647e+000
7.144042e+002,-1.227646e+000
7.153685e+002,2.630768e-001
7.163327e+002,1.516876e+000
7.172969e+002,2.278503e+000
7.182612e+002,2.523849e+000
7.192254e+002,1.750244e+000
7.201896e+002,4.096069e-001
7.211539e+002,-6.154175e-001
7.221181e+002,-5.376129e-001
7.230823e+002,1.899261e-001
7.240466e+002,1.490021e-001
7.250108e+002,-3.800812e-001
7.259750e+002,-4.945984e-001
7.269393e+002,3.205109e-001
7.279035e+002,1.829910e+000
7.288677e+002,2.810471e+000
7.298320e+002,3.518265e+000
7.307962e+002,3.650269e+000
7.317604e+002,2.762741e+000
7.327247e+002,1.469208e+000
7.336889e+002,5.447388e-001
7.346531e+002,1.184998e-001
7.356174e+002,-2.582550e-001
7.365816e+002,-5.956421e-001
7.375458e+002,-8.619843e-001
7.385101e+002,-9.705658e-001
7.394743e+002,-9.563446e-001
7.404385e+002,-1.065018e+000
7.414028e+002,-1.901398e+000
7.423670e+002,-3.296692e+000
7.433312e+002,-3.665543e+000
7.442955e+002,-2.704544e+000
7.452597e+002,-1.208710e+000
7.462239e+002,-7.803345e-002
7.471882e+002,6.108093e-001
7.481524e+002,1.010361e+000
7.491166e+002,5.813904e-001
7.500809e+002,2.771759e-001
7.510451e+002,8.614197e-001
7.520093e+002,1.949371e+000
7.529736e+002,2.054031e+000
7.539378e+002,-3.072205e-001
7.549020e+002,-2.333344e+000
7.558663e+002,-1.947754e+000
7.568306e+002,-3.028870e-001
7.577948e+002,9.070435e-001
7.587590e+002,6.670074e-001
7.597233e+002,-3.715363e-001
7.606875e+002,2.030487e-001
7.616517e+002,2.204346e+000
7.626160e+002,3.323807e+000
7.635802e+002,2.741211e+000
7.645444e+002,1.248779e+000
7.655087e+002,5.273895e-001
7.664729e+002,1.158508e+000
7.674371e+002,1.223999e+000
7.684014e+002,3.484650e-001
7.693656e+002,-7.926636e-001
7.703298e+002,-2.319580e+000
7.712941e+002,-3.970779e+000
7.722583e+002,-4.167191e+000
7.732225e+002,-2.726898e-001
7.741868e+002,4.199493e+000
7.751510e+002,6.575668e+000
7.761152e+002,7.107391e+000
7.770795e+002,6.934586e+000
7.780437e+002,7.041397e+000
7.790079e+002,7.335526e+000
7.799722e+002,7.168076e+000
7.809364e+002,6.559036e+000
7.819006e+002,5.798676e+000
7.828649e+002,4.858505e+000
7.838291e+002,3.930313e+000
7.847933e+002,3.580200e+000
7.857576e+002,4.311646e+000
7.867218e+002,4.509186e+000
7.876860e+002,3.307693e+000
7.886503e+002,2.107803e+000
7.896145e+002,2.462982e+000
7.905787e+002,4.623901e+000
7.915430e+002,6.580917e+000
7.925072e+002,5.385452e+000
7.934714e+002,3.104935e+000
7.944357e+002,2.197144e+000
7.953999e+002,2.770508e+000
7.963641e+002,3.620392e+000
7.973284e+002,3.328735e+000
7.982926e+002,1.774841e+000
7.992568e+002,1.555115e+000
8.002211e+002,3.282974e+000
8.011853e+002,4.546188e+000
8.021495e+002,4.230408e+000
8.031138e+002,2.942123e+000
8.040780e+002,2.567383e+000
8.050422e+002,4.100708e+000
8.060065e+002,5.211197e+000
8.069707e+002,4.451385e+000
8.079349e+002,3.268539e+000
8.088992e+002,3.171341e+000
8.098634e+002,4.692810e+000
8.108276e+002,7.037064e+000
8.117919e+002,9.740219e+000
8.127561e+002,1.187668e+001
8.137203e+002,1.144031e+001
8.146846e+002,8.353455e+000
8.156488e+002,4.545700e+000
8.166130e+002,2.216171e+000
8.175773e+002,1.382248e+000
8.185415e+002,1.881546e+000
8.195057e+002,4.928268e+000
8.204700e+002,7.401566e+000
8.214342e+002,8.043839e+000
8.223984e+002,7.316376e+000
8.233627e+002,6.558289e+000
8.243269e+002,6.325027e+000
8.252911e+002,5.927979e+000
8.262554e+002,4.662811e+000
8.272196e+002,3.220886e+000
8.281838e+002,2.320374e+000
8.291481e+002,2.204865e+000
8.301123e+002,2.554779e+000
8.310765e+002,2.910416e+000
8.320408e+002,3.202866e+000
8.330050e+002,3.107620e+000
8.339692e+002,2.521072e+000
8.349335e+002,1.883682e+000
8.358977e+002,1.511307e+000
8.368619e+002,1.360565e+000
8.378262e+002,2.185120e+000
8.387904e+002,5.470978e+000
8.397546e+002,7.888565e+000
8.407189e+002,8.148895e+000
8.416831e+002,7.111313e+000
8.426473e+002,6.366425e+000
8.436116e+002,6.677399e+000
8.445758e+002,7.215500e+000
8.455400e+002,6.829102e+000
8.465043e+002,6.093994e+000
8.474685e+002,5.754669e+000
8.484327e+002,6.087814e+000
8.493970e+002,6.969818e+000
8.503612e+002,8.142303e+000
8.513254e+002,9.720779e+000
8.522897e+002,1.001205e+001
8.532539e+002,8.279541e+000
8.542181e+002,6.293365e+000
8.551824e+002,5.037613e+000
8.561466e+002,4.559097e+000
8.571108e+002,4.519028e+000
8.580751e+002,4.378128e+000
8.590393e+002,5.026230e+000
8.600035e+002,7.613113e+000
8.609678e+002,1.078114e+001
8.619320e+002,1.298892e+001
8.628962e+002,1.361768e+001
8.638605e+002,1.345401e+001
8.648247e+002,1.339804e+001
8.657889e+002,1.350804e+001
8.667532e+002,1.418520e+001
8.677174e+002,1.547366e+001
8.686816e+002,1.650459e+001
8.696459e+002,1.620274e+001
8.706101e+002,1.437451e+001
8.715743e+002,1.302858e+001
8.725386e+002,1.179192e+001
8.735028e+002,1.143774e+001
8.744670e+002,1.238107e+001
8.754313e+002,1.417891e+001
8.763955e+002,1.630707e+001
8.773597e+002,1.894281e+001
8.783240e+002,2.083844e+001
8.792882e+002,2.067799e+001
8.802524e+002,1.968703e+001
8.812167e+002,1.858961e+001
8.821809e+002,1.776280e+001
8.831451e+002,1.753090e+001
8.841094e+002,1.838025e+001
8.850736e+002,2.033437e+001
8.860378e+002,2.200009e+001
8.870021e+002,2.340718e+001
8.879663e+002,2.435826e+001
8.889305e+002,2.443001e+001
8.898948e+002,2.381496e+001
8.908590e+002,2.372414e+001
8.918232e+002,2.503717e+001
8.927875e+002,2.564351e+001
8.937517e+002,2.439320e+001
8.947159e+002,2.286333e+001
8.956802e+002,2.231595e+001
8.966444e+002,2.296475e+001
8.976086e+002,2.407436e+001
8.985729e+002,2.513014e+001
8.995371e+002,2.619975e+001
9.005013e+002,2.742271e+001
9.014656e+002,2.875168e+001
9.024298e+002,2.979495e+001
9.033940e+002,3.016493e+001
9.043583e+002,2.989494e+001
9.053225e+002,2.983107e+001
9.062867e+002,3.049522e+001
9.072510e+002,3.051547e+001
9.082152e+002,2.940576e+001
9.091794e+002,2.814348e+001
9.101437e+002,2.767787e+001
9.111079e+002,2.815387e+001
9.120721e+002,2.888004e+001
9.130364e+002,2.954134e+001
9.140006e+002,3.011861e+001
9.149648e+002,3.090263e+001
9.159291e+002,3.168784e+001
9.168933e+002,3.186777e+001
9.178575e+002,3.099748e+001
9.188218e+002,2.947902e+001
9.197860e+002,2.886789e+001
9.207502e+002,2.911543e+001
9.217145e+002,2.969002e+001
9.226787e+002,3.125645e+001
9.236429e+002,3.262154e+001
9.246072e+002,3.155322e+001
9.255714e+002,2.718625e+001
9.265356e+002,2.462631e+001
9.274999e+002,2.651108e+001
9.284641e+002,2.827867e+001
9.294283e+002,2.807458e+001
9.303926e+002,2.676247e+001
9.313568e+002,2.645078e+001
9.323210e+002,2.833104e+001
9.332853e+002,3.025705e+001
9.342495e+002,2.730428e+001
9.352137e+002,2.232880e+001
9.361780e+002,2.030911e+001
9.371422e+002,2.232512e+001
9.381064e+002,2.524852e+001
9.390707e+002,2.453502e+001
9.400349e+002,1.911491e+001
9.409991e+002,1.680006e+001
9.419634e+002,1.989705e+001
9.429276e+002,2.263583e+001
9.438918e+002,2.341382e+001
9.448561e+002,2.296530e+001
9.458203e+002,2.263016e+001
9.467845e+002,2.283095e+001
9.477488e+002,2.300359e+001
9.487130e+002,2.256569e+001
9.496772e+002,2.199724e+001
9.506415e+002,2.165068e+001
9.516057e+002,2.155467e+001
9.525699e+002,2.162050e+001
9.535342e+002,2.176459e+001
9.544984e+002,2.187361e+001
9.554626e+002,2.109006e+001
9.564269e+002,1.933661e+001
9.573911e+002,1.788991e+001
9.583553e+002,1.680209e+001
9.593196e+002,1.628937e+001
9.602838e+002,1.708945e+001
9.612480e+002,1.976454e+001
9.622123e+002,2.131857e+001
9.631765e+002,1.982782e+001
9.641407e+002,1.817921e+001
9.651050e+002,1.777606e+001
9.660692e+002,1.823180e+001
9.670334e+002,1.838162e+001
9.679977e+002,1.753435e+001
9.689619e+002,1.642610e+001
9.699261e+002,1.660132e+001
9.708904e+002,1.763319e+001
9.718546e+002,1.852126e+001
9.728188e+002,1.891013e+001
9.737831e+002,1.954799e+001
9.747473e+002,2.188799e+001
9.757115e+002,2.663089e+001
9.766758e+002,2.935825e+001
9.776400e+002,2.890121e+001
9.786042e+002,2.798618e+001
9.795685e+002,2.692397e+001
9.805327e+002,2.576343e+001
9.814969e+002,2.459038e+001
9.824612e+002,2.349364e+001
9.834254e+002,2.227129e+001
9.843896e+002,2.045227e+001
9.853539e+002,1.838271e+001
9.863181e+002,1.629332e+001
9.872823e+002,1.426379e+001
9.882466e+002,1.259506e+001
9.892108e+002,1.163618e+001
9.901750e+002,1.140477e+001
9.911393e+002,1.128615e+001
9.921035e+002,1.126855e+001
9.930677e+002,1.092506e+001
9.940320e+002,9.972366e+000
9.949962e+002,9.048050e+000
9.959604e+002,8.697189e+000
9.969247e+002,8.975372e+000
9.978889e+002,9.734985e+000
9.988531e+002,1.158257e+001
9.998174e+002,1.279277e+001
1.000782e+003,1.173485e+001
1.001746e+003,9.755081e+000
1.002710e+003,8.956909e+000
1.003674e+003,1.014043e+001
1.004639e+003,1.208786e+001
1.005603e+003,1.267447e+001
1.006567e+003,1.170557e+001
1.007531e+003,1.048909e+001
1.008495e+003,8.761795e+000
1.009460e+003,7.323425e+000
1.010424e+003,6.974075e+000
1.011388e+003,7.384079e+000
1.012352e+003,7.035980e+000
1.013317e+003,5.071457e+000
1.014281e+003,3.667450e+000
1.015245e+003,3.082108e+000
1.016209e+003,3.397385e+000
1.017174e+003,5.498199e+000
1.018138e+003,8.732117e+000
1.019102e+003,1.107915e+001
1.020066e+003,1.085628e+001
1.021031e+003,8.848953e+000
1.021995e+003,6.769196e+000
1.022959e+003,4.608231e+000
1.023923e+003,3.046478e+000
1.024887e+003,2.280792e+000
1.025852e+003,2.220657e+000
1.026816e+003,3.040527e+000
1.027780e+003,5.219940e+000
1.028744e+003,6.257744e+000
1.029709e+003,5.056175e+000
1.030673e+003,3.742851e+000
1.031637e+003,2.455170e+000
1.032601e+003,1.584015e+000
1.033566e+003,1.788528e+000
1.034530e+003,3.281960e+000
1.035494e+003,5.097969e+000
1.036458e+003,6.389084e+000
1.037422e+003,7.080688e+000
1.038387e+003,6.800034e+000
1.039351e+003,5.686119e+000
1.040315e+003,4.951698e+000
1.041279e+003,5.656837e+000
1.042244e+003,7.360107e+000
1.043208e+003,7.612473e+000
1.044172e+003,4.523987e+000
1.045136e+003,3.140083e+000
1.046101e+003,4.841042e+000
1.047065e+003,6.952263e+000
1.048029e+003,7.880920e+000
1.048993e+003,7.656082e+000
1.049958e+003,6.907944e+000
1.050922e+003,5.554024e+000
1.051886e+003,4.880043e+000
1.052850e+003,7.100166e+000
1.053814e+003,1.025790e+001
1.054779e+003,1.177324e+001
1.055743e+003,1.111314e+001
1.056707e+003,9.374428e+000
1.057671e+003,7.814339e+000
1.058636e+003,6.416786e+000
1.059600e+003,5.798462e+000
1.060564e+003,6.569748e+000
1.061528e+003,7.369186e+000
1.062493e+003,8.246986e+000
1.063457e+003,8.787971e+000
1.064421e+003,8.449699e+000
1.065385e+003,7.222656e+000
1.066349e+003,5.864944e+000
1.067314e+003,3.993790e+000
1.068278e+003,3.127365e+000
1.069242e+003,5.569206e+000
1.070206e+003,9.263481e+000
1.071171e+003,1.058702e+001
1.072135e+003,8.207138e+000
1.073099e+003,4.433426e+000
1.074063e+003,3.248039e+000
1.075028e+003,4.984413e+000
1.075992e+003,5.771629e+000
1.076956e+003,4.904465e+000
1.077920e+003,4.322479e+000
1.078885e+003,5.130104e+000
1.079849e+003,6.641808e+000
1.080813e+003,7.542656e+000
1.081777e+003,7.592194e+000
1.082741e+003,7.473358e+000
1.083706e+003,7.029831e+000
1.084670e+003,6.795616e+000
1.085634e+003,7.458672e+000
1.086598e+003,8.508614e+000
1.087563e+003,8.930939e+000
1.088527e+003,8.225327e+000
1.089491e+003,7.001114e+000
1.090455e+003,6.400795e+000
1.091420e+003,6.458168e+000
1.092384e+003,5.492729e+000
1.093348e+003,2.253380e+000
1.094312e+003,1.284256e-001
1.095276e+003,2.231789e+000
1.096241e+003,7.008446e+000
1.097205e+003,9.405937e+000
1.098169e+003,8.083733e+000
1.099133e+003,6.422226e+000
1.100098e+003,5.107162e+000
1.101062e+003,4.476051e+000
1.102026e+003,5.254944e+000
1.102990e+003,6.875267e+000
1.103955e+003,8.152016e+000
1.104919e+003,8.346634e+000
1.105883e+003,7.724564e+000
1.106847e+003,6.822525e+000
1.107812e+003,5.617050e+000
1.108776e+003,4.226891e+000
1.109740e+003,2.336479e+000
1.110704e+003,9.190369e-001
1.111668e+003,8.007889e-001
1.112633e+003,1.828857e+000
1.113597e+003,3.293785e+000
1.114561e+003,5.505516e+000
1.115525e+003,7.113136e+000
1.116490e+003,7.234467e+000
1.117454e+003,7.125046e+000
1.118418e+003,7.998093e+000
1.119382e+003,9.407448e+000
1.120347e+003,9.863625e+000
1.121311e+003,8.400497e+000
1.122275e+003,5.873718e+000
1.123239e+003,4.024940e+000
1.124203e+003,2.983131e+000
1.125168e+003,2.772484e+000
1.126132e+003,3.663673e+000
1.127096e+003,4.765015e+000
1.128060e+003,5.549286e+000
1.129025e+003,5.959305e+000
1.129989e+003,5.700249e+000
1.130953e+003,4.202835e+000
1.131917e+003,3.238708e+000
1.132882e+003,3.922272e+000
1.133846e+003,4.644814e+000
1.134810e+003,4.263443e+000
1.135774e+003,3.109833e+000
1.136739e+003,2.093575e+000
1.137703e+003,1.733162e+000
1.138667e+003,1.973381e+000
1.139631e+003,2.909431e+000
1.140595e+003,4.429184e+000
1.141560e+003,5.507248e+000
1.142524e+003,5.939690e+000
1.143488e+003,6.688454e+000
1.144452e+003,9.031891e+000
1.145417e+003,1.220973e+001
1.146381e+003,1.313312e+001
1.147345e+003,1.046201e+001
1.148309e+003,8.857742e+000
1.149274e+003,1.042283e+001
1.150238e+003,1.233057e+001
1.151202e+003,1.280084e+001
1.152166e+003,1.265105e+001
1.153130e+003,1.380529e+001
1.154095e+003,1.701554e+001
1.155059e+003,2.075312e+001
1.156023e+003,2.307390e+001
1.156987e+003,2.391733e+001
1.157952e+003,2.355635e+001
1.158916e+003,2.191738e+001
1.159880e+003,2.016131e+001
1.160844e+003,1.889409e+001
1.161809e+003,1.772565e+001
1.162773e+003,1.566891e+001
1.163737e+003,1.226458e+001
1.164701e+003,1.010393e+001
1.165666e+003,1.120310e+001
1.166630e+003,1.234369e+001
1.167594e+003,1.260652e+001
1.168558e+003,1.205750e+001
1.169522e+003,1.068952e+001
1.170487e+003,8.683212e+000
1.171451e+003,6.682976e+000
1.172415e+003,5.327103e+000
1.173379e+003,4.655037e+000
1.174344e+003,5.348595e+000
1.175308e+003,7.628029e+000
1.176272e+003,8.500801e+000
1.177236e+003,5.674881e+000
1.178201e+003,2.031921e+000
1.179165e+003,1.641068e+000
1.180129e+003,4.504051e+000
1.181093e+003,6.268921e+000
1.182057e+003,5.326340e+000
1.183022e+003,4.304802e+000
1.183986e+003,3.725433e+000
1.184950e+003,3.865143e+000
1.185914e+003,5.723099e+000
1.186879e+003,8.726814e+000
1.187843e+003,1.063298e+001
1.188807e+003,9.566925e+000
1.189771e+003,6.526314e+000
1.190736e+003,4.485870e+000
1.191700e+003,3.529465e+000
1.192664e+003,2.851151e+000
1.193628e+003,2.621841e+000
1.194593e+003,2.427315e+000
1.195557e+003,1.894966e+000
1.196521e+003,1.133354e+000
1.197485e+003,4.442520e-001
1.198449e+003,-3.424606e-001
1.199414e+003,-3.214722e-001
1.200378e+003,2.112015e+000
1.201342e+003,4.405716e+000
1.202306e+003,4.833778e+000
1.203271e+003,3.785225e+000
1.204235e+003,2.209152e+000
1.205199e+003,7.033081e-001
1.206163e+003,-3.854065e-001
1.207128e+003,-4.261856e-001
1.208092e+003,6.601868e-001
1.209056e+003,1.285172e+000
1.210020e+003,1.513306e+000
1.210984e+003,1.291710e+000
1.211949e+003,2.006226e-001
1.212913e+003,-1.126221e+000
1.213877e+003,-1.769188e+000
1.214841e+003,-1.672783e+000
1.215806e+003,-1.674500e+000
1.216770e+003,-2.185287e+000
1.217734e+003,-2.762032e+000
1.218698e+003,-2.955498e+000
1.219663e+003,-3.145920e+000
1.220627e+003,-4.126175e+000
1.221591e+003,-5.756622e+000
1.222555e+003,-6.753380e+000
1.223520e+003,-5.878326e+000
1.224484e+003,-3.596512e+000
1.225448e+003,-2.256340e+000
1.226412e+003,-2.519508e+000
1.227376e+003,-2.326492e+000
1.228341e+003,-1.108093e+000
1.229305e+003,-1.281357e-001
1.230269e+003,-2.452087e-002
1.231233e+003,-6.647034e-001
1.232198e+003,-1.964981e+000
1.233162e+003,-3.946320e+000
1.234126e+003,-5.344467e+000
1.235090e+003,-4.690048e+000
1.236055e+003,-3.608704e+000
1.237019e+003,-4.181580e+000
1.237983e+003,-5.784401e+000
1.238947e+003,-6.497627e+000
1.239911e+003,-5.505074e+000
1.240876e+003,-3.927933e+000
1.241840e+003,-3.491608e+000
1.242804e+003,-4.272789e+000
1.243768e+003,-4.701576e+000
1.244733e+003,-4.869301e+000
1.245697e+003,-4.476051e+000
1.246661e+003,-2.550522e+000
1.247625e+003,-1.006485e+000
1.248590e+003,-1.812843e+000
1.249554e+003,-4.195602e+000
1.250518e+003,-5.620682e+000
1.251482e+003,-4.948746e+000
1.252447e+003,-3.412048e+000
1.253411e+003,-1.951408e+000
1.254375e+003,-8.615341e-001
1.255339e+003,-1.220100e+000
1.256303e+003,-2.928558e+000
1.257268e+003,-3.722916e+000
1.258232e+003,-2.005730e+000
1.259196e+003,8.099518e-001
1.260160e+003,1.725143e+000
1.261125e+003,3.274536e-001
1.262089e+003,-1.027908e-001
1.263053e+003,1.880966e+000
1.264017e+003,3.357185e+000
1.264982e+003,3.510429e+000
1.265946e+003,3.003174e+000
1.266910e+003,2.407127e+000
1.267874e+003,1.820534e+000
1.268839e+003,9.611511e-001
1.269803e+003,-3.628082e-001
1.270767e+003,-1.659889e+000
1.271731e+003,-1.876762e+000
1.272695e+003,-1.003227e+000
1.273660e+003,-3.647614e-001
1.274624e+003,-1.667023e-001
1.275588e+003,2.012634e-002
1.276552e+003,8.197708e-001
1.277517e+003,1.688690e+000
1.278481e+003,1.296364e+000
1.279445e+003,-5.654831e-001
1.280409e+003,-1.949211e+000
1.281374e+003,-1.992867e+000
1.282338e+003,-1.692459e+000
1.283302e+003,-1.401772e+000
1.284266e+003,-1.200134e+000
1.285230e+003,-1.446243e+000
1.286195e+003,-1.942024e+000
1.287159e+003,-1.637115e+000
1.288123e+003,3.652878e-001
1.289087e+003,3.192223e+000
1.290052e+003,4.015457e+000
1.291016e+003,2.063812e+000
1.291980e+003,5.855408e-001
1.292944e+003,-3.455963e-001
1.293909e+003,-1.052284e+000
1.294873e+003,-1.597359e+000
1.295837e+003,-1.934044e+000
1.296801e+003,-1.985794e+000
1.297766e+003,-1.753189e+000
1.298730e+003,-1.370926e+000
1.299694e+003,-9.353104e-001
1.300658e+003,-4.006729e-001
1.301622e+003,6.816177e-001
1.302587e+003,1.796867e+000
1.303551e+003,1.802116e+000
1.304515e+003,6.420746e-001
1.305479e+003,-2.703018e-001
1.306444e+003,2.716141e-001
1.307408e+003,1.720200e+000
1.308372e+003,2.277229e+000
1.309336e+003,1.664413e+000
1.310301e+003,9.850464e-001
1.311265e+003,-3.300171e-001
1.312229e+003,-8.668365e-001
1.313193e+003,4.591522e-001
1.314157e+003,2.309914e+000
1.315122e+003,3.248833e+000
1.316086e+003,3.157043e+000
1.317050e+003,2.870483e+000
1.318014e+003,2.948013e+000
1.318979e+003,3.255859e+000
1.319943e+003,3.675758e+000
1.320907e+003,4.123985e+000
1.321871e+003,3.748909e+000
1.322836e+003,2.218330e+000
1.323800e+003,6.614380e-001
1.324764e+003,-6.068192e-001
1.325728e+003,-1.367744e+000
1.326693e+003,-9.818649e-001
1.327657e+003,5.621796e-001
1.328621e+003,1.470222e+000
1.329585e+003,8.425064e-001
1.330549e+003,5.535202e-001
1.331514e+003,2.043320e+000
1.332478e+003,3.699081e+000
1.333442e+003,3.810417e+000
1.334406e+003,2.619156e+000
1.335371e+003,1.517410e+000
1.336335e+003,1.358177e+000
1.337299e+003,1.816963e+000
1.338263e+003,2.302834e+000
1.339228e+003,2.873802e+000
1.340192e+003,2.929474e+000
1.341156e+003,1.374496e+000
1.342120e+003,9.318542e-001
1.343084e+003,3.280052e+000
1.344049e+003,5.626884e+000
1.345013e+003,5.140549e+000
1.345977e+003,2.736023e+000
1.346941e+003,1.727661e+000
1.347906e+003,3.370125e+000
1.348870e+003,5.372620e+000
1.349834e+003,5.577171e+000
1.350798e+003,4.736649e+000
1.351763e+003,4.319962e+000
1.352727e+003,4.330704e+000
1.353691e+003,4.708672e+000
1.354655e+003,5.555016e+000
1.355620e+003,6.356369e+000
1.356584e+003,6.388641e+000
1.357548e+003,5.781265e+000
1.358512e+003,5.572144e+000
1.359476e+003,5.897339e+000
1.360441e+003,6.158661e+000
1.361405e+003,6.354095e+000
1.362369e+003,6.354622e+000
1.363333e+003,5.697006e+000
1.364298e+003,4.997292e+000
1.365262e+003,5.335213e+000
1.366226e+003,6.753342e+000
1.367190e+003,8.054161e+000
1.368155e+003,8.162643e+000
1.369119e+003,7.464249e+000
1.370083e+003,7.180168e+000
1.371047e+003,7.470337e+000
1.372011e+003,7.645607e+000
1.372976e+003,7.446625e+000
1.373940e+003,7.358513e+000
1.374904e+003,7.915985e+000
1.375868e+003,8.500633e+000
1.376833e+003,8.030136e+000
1.377797e+003,6.620956e+000
1.378761e+003,5.849716e+000
1.379725e+003,6.593323e+000
1.380690e+003,7.519279e+000
1.381654e+003,6.878487e+000
1.382618e+003,5.780945e+000
1.383582e+003,6.007866e+000
1.384547e+003,7.440750e+000
1.385511e+003,8.339622e+000
1.386475e+003,7.630020e+000
1.387439e+003,6.591843e+000
1.388403e+003,7.683815e+000
1.389368e+003,1.088686e+001
1.390332e+003,1.187530e+001
1.391296e+003,9.231865e+000
1.392260e+003,7.055946e+000
1.393225e+003,6.304283e+000
1.394189e+003,6.138420e+000
1.395153e+003,6.306976e+000
1.396117e+003,6.660851e+000
1.397082e+003,7.284431e+000
1.398046e+003,8.047729e+000
1.399010e+003,8.255569e+000
1.399974e+003,7.198540e+000
1.400938e+003,5.417252e+000
1.401903e+003,4.822594e+000
1.402867e+003,5.886345e+000
1.403831e+003,6.871887e+000
1.404795e+003,7.709404e+000
1.405760e+003,8.439453e+000
1.406724e+003,8.850868e+000
1.407688e+003,9.137550e+000
1.408652e+003,9.805283e+000
1.409617e+003,1.078183e+001
1.410581e+003,1.130960e+001
1.411545e+003,1.109373e+001
1.412509e+003,1.030747e+001
1.413474e+003,8.439072e+000
1.414438e+003,6.466919e+000
1.415402e+003,6.329086e+000
1.416366e+003,7.833847e+000
1.417330e+003,9.358109e+000
1.418295e+003,1.030025e+001
1.419259e+003,1.096036e+001
1.420223e+003,1.169659e+001
1.421187e+003,1.240997e+001
1.422152e+003,1.260398e+001
1.423116e+003,1.208775e+001
1.424080e+003,1.186832e+001
1.425044e+003,1.257796e+001
1.426009e+003,1.313467e+001
1.426973e+003,1.295644e+001
1.427937e+003,1.245164e+001
1.428901e+003,1.210675e+001
1.429865e+003,1.201974e+001
1.430830e+003,1.197166e+001
1.431794e+003,1.179976e+001
1.432758e+003,1.177915e+001
1.433722e+003,1.261259e+001
1.434687e+003,1.454410e+001
1.435651e+003,1.525138e+001
1.436615e+003,1.281237e+001
1.437579e+003,1.165227e+001
1.438544e+003,1.346590e+001
1.439508e+003,1.537903e+001
1.440472e+003,1.532498e+001
1.441436e+003,1.408113e+001
1.442401e+003,1.323789e+001
1.443365e+003,1.319333e+001
1.444329e+003,1.354327e+001
1.445293e+003,1.412550e+001
1.446257e+003,1.462055e+001
1.447222e+003,1.399992e+001
1.448186e+003,1.261455e+001
1.449150e+003,1.284440e+001
1.450114e+003,1.554297e+001
1.451079e+003,1.712640e+001
1.452043e+003,1.458587e+001
1.453007e+003,1.081819e+001
1.453971e+003,9.884529e+000
1.454936e+003,1.149120e+001
1.455900e+003,1.330846e+001
1.456864e+003,1.521362e+001
1.457828e+003,1.613853e+001
1.458792e+003,1.448768e+001
1.459757e+003,1.238016e+001
1.460721e+003,1.141029e+001
1.461685e+003,1.136044e+001
1.462649e+003,1.181062e+001
1.463614e+003,1.258250e+001
1.464578e+003,1.318604e+001
1.465542e+003,1.311171e+001
1.466506e+003,1.262442e+001
1.467471e+003,1.258881e+001
1.468435e+003,1.316284e+001
1.469399e+003,1.371577e+001
1.470363e+003,1.426748e+001
1.471328e+003,1.457212e+001
1.472292e+003,1.418043e+001
1.473256e+003,1.379784e+001
1.474220e+003,1.425688e+001
1.475184e+003,1.514111e+001
1.476149e+003,1.552328e+001
1.477113e+003,1.507328e+001
1.478077e+003,1.405193e+001
1.479041e+003,1.270638e+001
1.480006e+003,1.151573e+001
1.480970e+003,1.211155e+001
1.481934e+003,1.525403e+001
1.482898e+003,1.664429e+001
1.483863e+003,1.492274e+001
1.484827e+003,1.353942e+001
1.485791e+003,1.358938e+001
1.486755e+003,1.427176e+001
1.487719e+003,1.502415e+001
1.488684e+003,1.567275e+001
1.489648e+003,1.610000e+001
1.490612e+003,1.629138e+001
1.491576e+003,1.618663e+001
1.492541e+003,1.551591e+001
1.493505e+003,1.482164e+001
1.494469e+003,1.572124e+001
1.495433e+003,1.780219e+001
1.496398e+003,1.866012e+001
1.497362e+003,1.764978e+001
1.498326e+003,1.688145e+001
1.499290e+003,1.777135e+001
1.500255e+003,1.926669e+001
1.501219e+003,1.987218e+001
1.502183e+003,1.971112e+001
1.503147e+003,1.967970e+001
1.504111e+003,1.983720e+001
1.505076e+003,2.092644e+001
1.506040e+003,2.457298e+001
1.507004e+003,2.806188e+001
1.507968e+003,2.825128e+001
1.508933e+003,2.646225e+001
1.509897e+003,2.522332e+001
1.510861e+003,2.513890e+001
1.511825e+003,2.611111e+001
1.512790e+003,2.822028e+001
1.513754e+003,3.086721e+001
1.514718e+003,3.291972e+001
1.515682e+003,3.434408e+001
1.516646e+003,3.617097e+001
1.517611e+003,3.899965e+001
1.518575e+003,4.113020e+001
1.519539e+003,4.115295e+001
1.520503e+003,4.135014e+001
1.521468e+003,4.366352e+001
1.522432e+003,4.645591e+001
1.523396e+003,4.736079e+001
1.524360e+003,4.615680e+001
1.525325e+003,4.408809e+001
1.526289e+003,4.199920e+001
1.527253e+003,4.033576e+001
1.528217e+003,4.002346e+001
1.529182e+003,4.112614e+001
1.530146e+003,4.107341e+001
1.531110e+003,3.901388e+001
1.532074e+003,3.731219e+001
1.533039e+003,3.655807e+001
1.534003e+003,3.544348e+001
1.534967e+003,3.314096e+001
1.535931e+003,3.054057e+001
1.536896e+003,2.862649e+001
1.537860e+003,2.744264e+001
1.538824e+003,2.654131e+001
1.539788e+003,2.563063e+001
1.540752e+003,2.447270e+001
1.541717e+003,2.270968e+001
1.542681e+003,2.061853e+001
1.543645e+003,1.978410e+001
1.544609e+003,2.084249e+001
1.545573e+003,2.175324e+001
1.546538e+003,2.215671e+001
1.547502e+003,2.273001e+001
1.548466e+003,2.388086e+001
1.549430e+003,2.532777e+001
1.550395e+003,2.707063e+001
1.551359e+003,2.873643e+001
1.552323e+003,2.954307e+001
1.553287e+003,2.923007e+001
1.554252e+003,2.797781e+001
1.555216e+003,2.570379e+001
1.556180e+003,2.322990e+001
1.557144e+003,2.276379e+001
1.558109e+003,2.441029e+001
1.559073e+003,2.480361e+001
1.560037e+003,2.296064e+001
1.561001e+003,2.162469e+001
1.561966e+003,2.203020e+001
1.562930e+003,2.315207e+001
1.563894e+003,2.437438e+001
1.564858e+003,2.540499e+001
1.565823e+003,2.546725e+001
1.566787e+003,2.449731e+001
1.567751e+003,2.404768e+001
1.568715e+003,2.518283e+001
1.569679e+003,2.667685e+001
1.570644e+003,2.690118e+001
1.571608e+003,2.622272e+001
1.572572e+003,2.579220e+001
1.573536e+003,2.567516e+001
1.574500e+003,2.587450e+001
1.575465e+003,2.639597e+001
1.576429e+003,2.718134e+001
1.577393e+003,2.854523e+001
1.578357e+003,2.994289e+001
1.579322e+003,3.021239e+001
1.580286e+003,2.937226e+001
1.581250e+003,2.848428e+001
1.582214e+003,2.780219e+001
1.583179e+003,2.735352e+001
1.584143e+003,2.704748e+001
1.585107e+003,2.705199e+001
1.586071e+003,2.798717e+001
1.587036e+003,2.948168e+001
1.588000e+003,3.002293e+001
1.588964e+003,2.918451e+001
1.589928e+003,2.840453e+001
1.590893e+003,2.884988e+001
1.591857e+003,2.969689e+001
1.592821e+003,2.929783e+001
1.593785e+003,2.807357e+001
1.594750e+003,2.887029e+001
1.595714e+003,3.251052e+001
1.596678e+003,3.475100e+001
1.597642e+003,3.282750e+001
1.598606e+003,3.059271e+001
1.599571e+003,3.142978e+001
1.600535e+003,3.364968e+001
1.601499e+003,3.535635e+001
1.602463e+003,3.631223e+001
1.603427e+003,3.651324e+001
1.604392e+003,3.588905e+001
1.605356e+003,3.513423e+001
1.606320e+003,3.497376e+001
1.607284e+003,3.522379e+001
1.608249e+003,3.540154e+001
1.609213e+003,3.551104e+001
1.610177e+003,3.530129e+001
1.611141e+003,3.439431e+001
1.612106e+003,3.401880e+001
1.613070e+003,3.589999e+001
1.614034e+003,3.745802e+001
1.614998e+003,3.588159e+001
1.615963e+003,3.306712e+001
1.616927e+003,3.267301e+001
1.617891e+003,3.492760e+001
1.618855e+003,3.669740e+001
1.619820e+003,3.601743e+001
1.620784e+003,3.439534e+001
1.621748e+003,3.393658e+001
1.622712e+003,3.459464e+001
1.623677e+003,3.576707e+001
1.624641e+003,3.762530e+001
1.625605e+003,3.898742e+001
1.626569e+003,3.931991e+001
1.627533e+003,3.927222e+001
1.628498e+003,3.911049e+001
1.629462e+003,3.891208e+001
1.630426e+003,3.875146e+001
1.631390e+003,3.857112e+001
1.632354e+003,3.811870e+001
1.633319e+003,3.740373e+001
1.634283e+003,3.708757e+001
1.635247e+003,3.773144e+001
1.636211e+003,3.878782e+001
1.637176e+003,3.918457e+001
1.638140e+003,3.902310e+001
1.639104e+003,3.970699e+001
1.640068e+003,4.174031e+001
1.641033e+003,4.267460e+001
1.641997e+003,4.110849e+001
1.642961e+003,3.951631e+001
1.643925e+003,3.893771e+001
1.644890e+003,3.904964e+001
1.645854e+003,3.997089e+001
1.646818e+003,4.120571e+001
1.647782e+003,4.150111e+001
1.648747e+003,4.055295e+001
1.649711e+003,3.979396e+001
1.650675e+003,4.058570e+001
1.651639e+003,4.204129e+001
1.652604e+003,4.215660e+001
1.653568e+003,4.095544e+001
1.654532e+003,3.993155e+001
1.655496e+003,3.907867e+001
1.656460e+003,3.873120e+001
1.657425e+003,3.956489e+001
1.658389e+003,4.019405e+001
1.659353e+003,3.946921e+001
1.660317e+003,3.846665e+001
1.661281e+003,3.832407e+001
1.662246e+003,3.893273e+001
1.663210e+003,3.987881e+001
1.664174e+003,4.099323e+001
1.665138e+003,4.149516e+001
1.666103e+003,4.061961e+001
1.667067e+003,3.881239e+001
1.668031e+003,3.661415e+001
1.668995e+003,3.415820e+001
1.669960e+003,3.326491e+001
1.670924e+003,3.448023e+001
1.671888e+003,3.558907e+001
1.672852e+003,3.592512e+001
1.673817e+003,3.591383e+001
1.674781e+003,3.567570e+001
1.675745e+003,3.536145e+001
1.676709e+003,3.526376e+001
1.677674e+003,3.522958e+001
1.678638e+003,3.449538e+001
1.679602e+003,3.285096e+001
1.680566e+003,3.197276e+001
1.681531e+003,3.364165e+001
1.682495e+003,3.626338e+001
1.683459e+003,3.710221e+001
1.684423e+003,3.633042e+001
1.685387e+003,3.507511e+001
1.686352e+003,3.333689e+001
1.687316e+003,3.206505e+001
1.688280e+003,3.169139e+001
1.689244e+003,3.158999e+001
1.690208e+003,3.102890e+001
1.691173e+003,3.067299e+001
1.692137e+003,3.162270e+001
1.693101e+003,3.348142e+001
1.694065e+003,3.484341e+001
1.695030e+003,3.532118e+001
1.695994e+003,3.524351e+001
1.696958e+003,3.479153e+001
1.697922e+003,3.396917e+001
1.698887e+003,3.226692e+001
1.699851e+003,3.028381e+001
1.700815e+003,3.021268e+001
1.701779e+003,3.214891e+001
1.702744e+003,3.315945e+001
1.703708e+003,3.219872e+001
1.704672e+003,3.088969e+001
1.705636e+003,3.015038e+001
1.706601e+003,2.982661e+001
1.707565e+003,3.004324e+001
1.708529e+003,3.056882e+001
1.709493e+003,3.035277e+001
1.710458e+003,2.913052e+001
1.711422e+003,2.848128e+001
1.712386e+003,2.998406e+001
1.713350e+003,3.124731e+001
1.714314e+003,2.936687e+001
1.715279e+003,2.646583e+001
1.716243e+003,2.657078e+001
1.717207e+003,2.927776e+001
1.718171e+003,3.110954e+001
1.719135e+003,3.111466e+001
1.720100e+003,3.072651e+001
1.721064e+003,3.080891e+001
1.722028e+003,3.111698e+001
1.722992e+003,3.149798e+001
1.723957e+003,3.187599e+001
1.724921e+003,3.141094e+001
1.725885e+003,2.980994e+001
1.726849e+003,2.871382e+001
1.727814e+003,2.859649e+001
1.728778e+003,2.890881e+001
1.729742e+003,2.996993e+001
1.730706e+003,3.082215e+001
1.731671e+003,3.010914e+001
1.732635e+003,2.851561e+001
1.733599e+003,2.753671e+001
1.734563e+003,2.754874e+001
1.735528e+003,2.850707e+001
1.736492e+003,3.035470e+001
1.737456e+003,3.185278e+001
1.738420e+003,3.146101e+001
1.739385e+003,2.967296e+001
1.740349e+003,2.842606e+001
1.741313e+003,2.779461e+001
1.742277e+003,2.753737e+001
1.743241e+003,2.830458e+001
1.744206e+003,2.849246e+001
1.745170e+003,2.730332e+001
1.746134e+003,2.612608e+001
1.747098e+003,2.536839e+001
1.748063e+003,2.528840e+001
1.749027e+003,2.667438e+001
1.749991e+003,2.884958e+001
1.750955e+003,3.009777e+001
1.751919e+003,2.988155e+001
1.752884e+003,2.914919e+001
1.753848e+003,2.868504e+001
1.754812e+003,2.819916e+001
1.755776e+003,2.698263e+001
1.756741e+003,2.514425e+001
1.757705e+003,2.517898e+001
1.758669e+003,2.809760e+001
1.759633e+003,2.978845e+001
1.760598e+003,2.889172e+001
1.761562e+003,2.800669e+001
1.762526e+003,2.816843e+001
1.763490e+003,2.843278e+001
1.764455e+003,2.789970e+001
1.765419e+003,2.714212e+001
1.766383e+003,2.719248e+001
1.767347e+003,2.800673e+001
1.768312e+003,2.869171e+001
1.769276e+003,2.881516e+001
1.770240e+003,2.866519e+001
1.771204e+003,2.858241e+001
1.772168e+003,2.854264e+001
1.773133e+003,2.832346e+001
1.774097e+003,2.795848e+001
1.775061e+003,2.791257e+001
1.776025e+003,2.827795e+001
1.776990e+003,2.815493e+001
1.777954e+003,2.697180e+001
1.778918e+003,2.599651e+001
1.779882e+003,2.609161e+001
1.780846e+003,2.687548e+001
1.781811e+003,2.835365e+001
1.782775e+003,3.008742e+001
1.783739e+003,3.039909e+001
1.784703e+003,2.894202e+001
1.785668e+003,2.758898e+001
1.786632e+003,2.667736e+001
1.787596e+003,2.656400e+001
1.788560e+003,2.844783e+001
1.789525e+003,3.074636e+001
1.790489e+003,3.089264e+001
1.791453e+003,2.941151e+001
1.792417e+003,2.830744e+001
1.793382e+003,2.807117e+001
1.794346e+003,2.860782e+001
1.795310e+003,2.993555e+001
1.796274e+003,3.108239e+001
1.797239e+003,3.091686e+001
1.798203e+003,2.986468e+001
1.799167e+003,2.900768e+001
1.800131e+003,2.813361e+001
1.801095e+003,2.822813e+001
1.802060e+003,3.080804e+001
1.803024e+003,3.202316e+001
1.803988e+003,2.998518e+001
1.804952e+003,2.831897e+001
1.805917e+003,2.957261e+001
1.806881e+003,3.131099e+001
1.807845e+003,3.072523e+001
1.808809e+003,2.871590e+001
1.809773e+003,2.752727e+001
1.810738e+003,2.771710e+001
1.811702e+003,2.854741e+001
1.812666e+003,2.953376e+001
1.813630e+003,3.059096e+001
1.814595e+003,3.170364e+001
1.815559e+003,3.265012e+001
1.816523e+003,3.239073e+001
1.817487e+003,3.079581e+001
1.818452e+003,2.961324e+001
1.819416e+003,2.901053e+001
1.820380e+003,2.866635e+001
1.821344e+003,2.805472e+001
1.822309e+003,2.822376e+001
1.823273e+003,3.065633e+001
1.824237e+003,3.351885e+001
1.825201e+003,3.531824e+001
1.826166e+003,3.586941e+001
1.827130e+003,3.443040e+001
1.828094e+003,3.097914e+001
1.829058e+003,2.884034e+001
1.830022e+003,3.013299e+001
1.830987e+003,3.211308e+001
1.831951e+003,3.255868e+001
1.832915e+003,3.228040e+001
1.833879e+003,3.247986e+001
1.834844e+003,3.298108e+001
1.835808e+003,3.299646e+001
1.836772e+003,3.247038e+001
1.837736e+003,3.214916e+001
1.838700e+003,3.234926e+001
1.839665e+003,3.239090e+001
1.840629e+003,3.154711e+001
1.841593e+003,3.054760e+001
1.842557e+003,3.104456e+001
1.843522e+003,3.300334e+001
1.844486e+003,3.394842e+001
1.845450e+003,3.322899e+001
1.846414e+003,3.284689e+001
1.847379e+003,3.307676e+001
1.848343e+003,3.310921e+001
1.849307e+003,3.238152e+001
1.850271e+003,3.177128e+001
1.851236e+003,3.221069e+001
1.852200e+003,3.301960e+001
1.853164e+003,3.290782e+001
1.854128e+003,3.211163e+001
1.855093e+003,3.220575e+001
1.856057e+003,3.368977e+001
1.857021e+003,3.496635e+001
1.857985e+003,3.460371e+001
1.858949e+003,3.361237e+001
1.859914e+003,3.390753e+001
1.860878e+003,3.519189e+001
1.861842e+003,3.566806e+001
1.862806e+003,3.529374e+001
1.863771e+003,3.474587e+001
1.864735e+003,3.400880e+001
1.865699e+003,3.356705e+001
1.866663e+003,3.368711e+001
1.867627e+003,3.415791e+001
1.868592e+003,3.510992e+001
1.869556e+003,3.599839e+001
1.870520e+003,3.560326e+001
1.871484e+003,3.418327e+001
1.872449e+003,3.356293e+001
1.873413e+003,3.423256e+001
1.874377e+003,3.499239e+001
1.875341e+003,3.555280e+001
1.876306e+003,3.583195e+001
1.877270e+003,3.568726e+001
1.878234e+003,3.529857e+001
1.879198e+003,3.465372e+001
1.880163e+003,3.403236e+001
1.881127e+003,3.398402e+001
1.882091e+003,3.444855e+001
1.883055e+003,3.473181e+001
1.884020e+003,3.460632e+001
1.884984e+003,3.487674e+001
1.885948e+003,3.630511e+001
1.886912e+003,3.825070e+001
1.887876e+003,3.947514e+001
1.888841e+003,4.000977e+001
1.889805e+003,4.009597e+001
1.890769e+003,3.969382e+001
1.891733e+003,3.898394e+001
1.892698e+003,3.761005e+001
1.893662e+003,3.675853e+001
1.894626e+003,3.712138e+001
1.895590e+003,3.778695e+001
1.896554e+003,3.856851e+001
1.897519e+003,3.904494e+001
1.898483e+003,3.825082e+001
1.899447e+003,3.663329e+001
1.900411e+003,3.588181e+001
1.901376e+003,3.631211e+001
1.902340e+003,3.714857e+001
1.903304e+003,3.848097e+001
1.904268e+003,3.953234e+001
1.905233e+003,3.964436e+001
1.906197e+003,3.946062e+001
1.907161e+003,4.000069e+001
1.908125e+003,4.057387e+001
1.909090e+003,3.942085e+001
1.910054e+003,3.691905e+001
1.911018e+003,3.523379e+001
1.911982e+003,3.509483e+001
1.912947e+003,3.557799e+001
1.913911e+003,3.598899e+001
1.914875e+003,3.654299e+001
1.915839e+003,3.766231e+001
1.916803e+003,3.900612e+001
1.917768e+003,3.871555e+001
1.918732e+003,3.631248e+001
1.919696e+003,3.576979e+001
1.920660e+003,3.800615e+001
1.921625e+003,3.969685e+001
1.922589e+003,3.973200e+001
1.923553e+003,3.968623e+001
1.924517e+003,4.047563e+001
1.925481e+003,4.146528e+001
1.926446e+003,4.214655e+001
1.927410e+003,4.261208e+001
1.928374e+003,4.329974e+001
1.929338e+003,4.409397e+001
1.930303e+003,4.356329e+001
1.931267e+003,4.072015e+001
1.932231e+003,3.879896e+001
1.933195e+003,4.006602e+001
1.934160e+003,4.167841e+001
1.935124e+003,4.140150e+001
1.936088e+003,4.040752e+001
1.937052e+003,4.041822e+001
1.938017e+003,4.094147e+001
1.938981e+003,4.014523e+001
1.939945e+003,3.819548e+001
1.940909e+003,3.755613e+001
1.941874e+003,3.918430e+001
1.942838e+003,4.080816e+001
1.943802e+003,4.030891e+001
1.944766e+003,3.893785e+001
1.945730e+003,3.923502e+001
1.946695e+003,4.089409e+001
1.947659e+003,4.149123e+001
1.948623e+003,4.086674e+001
1.949587e+003,4.104427e+001
1.950552e+003,4.262996e+001
1.951516e+003,4.343244e+001
1.952480e+003,4.234222e+001
1.953444e+003,4.113637e+001
1.954408e+003,4.120232e+001
1.955373e+003,4.162166e+001
1.956337e+003,4.085857e+001
1.957301e+003,3.946458e+001
1.958265e+003,3.931970e+001
1.959230e+003,4.061585e+001
1.960194e+003,4.192760e+001
1.961158e+003,4.351746e+001
1.962122e+003,4.425499e+001
1.963087e+003,4.338095e+001
1.964051e+003,4.217097e+001
1.965015e+003,4.107413e+001
1.965979e+003,4.032716e+001
1.966944e+003,4.014985e+001
1.967908e+003,4.036244e+001
1.968872e+003,4.068600e+001
1.969836e+003,4.107610e+001
1.970801e+003,4.174529e+001
1.971765e+003,4.274006e+001
1.972729e+003,4.331451e+001
1.973693e+003,4.263365e+001
1.974657e+003,4.179150e+001
1.975622e+003,4.277109e+001
1.976586e+003,4.472749e+001
1.977550e+003,4.526361e+001
1.978514e+003,4.462718e+001
1.979479e+003,4.449268e+001
1.980443e+003,4.506969e+001
1.981407e+003,4.549376e+001
1.982371e+003,4.544854e+001
1.983335e+003,4.554618e+001
1.984300e+003,4.627418e+001
1.985264e+003,4.706840e+001
1.986228e+003,4.703130e+001
1.987192e+003,4.639442e+001
1.988157e+003,4.641706e+001
1.989121e+003,4.737391e+001
1.990085e+003,4.767114e+001
1.991049e+003,4.723843e+001
1.992014e+003,4.633782e+001
1.992978e+003,4.425950e+001
1.993942e+003,4.267992e+001
1.994906e+003,4.230907e+001
1.995871e+003,4.248734e+001
1.996835e+003,4.265514e+001
1.997799e+003,4.314487e+001
1.998763e+003,4.494554e+001
1.999728e+003,4.754947e+001
