5.003444e+002,2.138857e+002
5.013087e+002,2.110667e+002
5.022729e+002,2.064802e+002
5.032371e+002,2.016371e+002
5.042014e+002,1.994034e+002
5.051656e+002,1.994803e+002
5.061298e+002,1.996342e+002
5.070941e+002,1.975647e+002
5.080583e+002,1.921798e+002
5.090225e+002,1.890306e+002
5.099868e+002,1.896859e+002
5.109510e+002,1.901462e+002
5.119152e+002,1.881110e+002
5.128795e+002,1.833529e+002
5.138437e+002,1.791701e+002
5.148079e+002,1.769836e+002
5.157722e+002,1.755953e+002
5.167364e+002,1.749492e+002
5.177006e+002,1.744868e+002
5.186649e+002,1.729907e+002
5.196291e+002,1.679557e+002
5.205933e+002,1.630349e+002
5.215576e+002,1.627620e+002
5.225218e+002,1.664966e+002
5.234860e+002,1.701723e+002
5.244503e+002,1.668941e+002
5.254145e+002,1.544684e+002
5.263787e+002,1.470381e+002
5.273430e+002,1.466956e+002
5.283072e+002,1.498575e+002
5.292714e+002,1.516669e+002
5.302357e+002,1.510029e+002
5.311999e+002,1.492428e+002
5.321641e+002,1.468409e+002
5.331284e+002,1.447592e+002
5.340926e+002,1.439320e+002
5.350568e+002,1.445607e+002
5.360211e+002,1.436959e+002
5.369853e+002,1.382112e+002
5.379495e+002,1.315422e+002
5.389138e+002,1.258611e+002
5.398780e+002,1.220791e+002
5.408422e+002,1.199077e+002
5.418065e+002,1.194169e+002
5.427707e+002,1.203058e+002
5.437349e+002,1.204316e+002
5.446992e+002,1.190093e+002
5.456634e+002,1.164188e+002
5.466276e+002,1.141902e+002
5.475919e+002,1.126497e+002
5.485561e+002,1.116448e+002
5.495203e+002,1.117842e+002
5.504846e+002,1.118021e+002
5.514488e+002,1.098819e+002
5.524130e+002,1.047656e+002
5.533773e+002,9.993286e+001
5.543415e+002,9.696844e+001
5.553057e+002,9.523029e+001
5.562700e+002,9.399182e+001
5.572342e+002,9.273297e+001
5.581984e+002,9.163672e+001
5.591627e+002,9.230792e+001
5.601269e+002,9.413800e+001
5.610911e+002,9.481421e+001
5.620554e+002,9.287750e+001
5.630196e+002,8.854456e+001
5.639838e+002,8.569806e+001
5.649481e+002,8.628839e+001
5.659123e+002,8.560321e+001
5.668765e+002,8.276361e+001
5.678408e+002,7.880939e+001
5.688050e+002,7.584943e+001
5.697692e+002,7.417639e+001
5.707335e+002,7.219849e+001
5.716977e+002,6.958014e+001
5.726619e+002,6.676758e+001
5.736262e+002,6.438684e+001
5.745904e+002,6.296851e+001
5.755546e+002,6.222424e+001
5.765189e+002,6.115863e+001
5.774831e+002,5.956158e+001
5.784473e+002,5.756494e+001
5.794116e+002,5.549512e+001
5.803758e+002,5.378979e+001
5.813400e+002,5.390680e+001
5.823043e+002,5.621051e+001
5.832685e+002,5.684882e+001
5.842327e+002,5.359363e+001
5.851970e+002,4.767377e+001
5.861612e+002,4.498047e+001
5.871254e+002,4.977686e+001
5.880897e+002,5.338513e+001
5.890539e+002,5.305884e+001
5.900181e+002,5.035907e+001
5.909824e+002,4.852826e+001
5.919466e+002,5.038702e+001
5.929108e+002,5.233356e+001
5.938751e+002,4.955591e+001
5.948393e+002,4.448291e+001
5.958035e+002,4.104474e+001
5.967678e+002,4.215289e+001
5.977320e+002,4.721631e+001
5.986962e+002,5.044012e+001
5.996605e+002,5.158057e+001
6.006247e+002,5.103766e+001
6.015889e+002,4.818066e+001
6.025532e+002,4.331738e+001
6.035174e+002,4.003271e+001
6.044816e+002,4.052924e+001
6.054459e+002,4.051642e+001
6.064101e+002,3.924860e+001
6.073743e+002,3.702686e+001
6.083386e+002,3.453876e+001
6.093028e+002,3.211920e+001
6.102670e+002,2.984851e+001
6.112313e+002,2.615656e+001
6.121955e+002,2.290857e+001
6.131597e+002,2.334125e+001
6.141240e+002,2.951764e+001
6.150882e+002,3.908173e+001
6.160524e+002,4.158362e+001
6.170167e+002,3.854919e+001
6.179809e+002,3.545294e+001
6.189451e+002,3.452155e+001
6.199094e+002,3.517743e+001
6.208736e+002,3.483221e+001
6.218378e+002,3.319037e+001
6.228021e+002,3.184650e+001
6.237663e+002,3.047314e+001
6.247305e+002,2.976105e+001
6.256948e+002,3.104541e+001
6.266590e+002,3.584277e+001
6.276232e+002,3.901050e+001
6.285875e+002,3.710260e+001
6.295517e+002,3.331122e+001
6.305159e+002,3.097577e+001
6.314802e+002,3.170209e+001
6.324444e+002,3.358026e+001
6.334086e+002,3.123297e+001
6.343729e+002,2.646338e+001
6.353371e+002,2.290540e+001
6.363013e+002,2.175134e+001
6.372656e+002,2.238293e+001
6.382298e+002,2.308557e+001
6.391940e+002,2.578540e+001
6.401583e+002,2.519824e+001
6.411225e+002,1.900653e+001
6.420867e+002,1.169550e+001
6.430510e+002,8.473511e+000
6.440152e+002,1.125244e+001
6.449794e+002,1.448254e+001
6.459437e+002,1.634357e+001
6.469079e+002,1.674152e+001
6.478721e+002,1.502795e+001
6.488364e+002,1.143195e+001
6.498006e+002,7.684937e+000
6.507648e+002,7.132202e+000
6.517291e+002,8.355774e+000
6.526933e+002,8.001465e+000
6.536575e+002,5.302368e+000
6.546218e+002,1.837952e+000
6.555860e+002,7.430420e-001
6.565502e+002,3.696472e+000
6.575145e+002,5.422058e+000
6.584787e+002,5.587891e+000
6.594429e+002,5.062439e+000
6.604072e+002,4.425659e+000
6.613714e+002,3.754883e+000
6.623356e+002,3.103577e+000
6.632999e+002,1.930115e+000
6.642641e+002,6.379395e-001
6.652283e+002,-4.567261e-001
6.661926e+002,-9.658203e-001
6.671568e+002,-3.945923e-001
6.681210e+002,2.019531e+000
6.690853e+002,5.177856e+000
6.700495e+002,6.754089e+000
6.710137e+002,6.786316e+000
6.719780e+002,6.203308e+000
6.729422e+002,5.854980e+000
6.739064e+002,5.507446e+000
6.748707e+002,5.862305e+000
6.758349e+002,7.858704e+000
6.767991e+002,9.093506e+000
6.777634e+002,8.595154e+000
6.787276e+002,6.897034e+000
6.796918e+002,5.884705e+000
6.806561e+002,6.853943e+000
6.816203e+002,6.934143e+000
6.825845e+002,3.757996e+000
6.835488e+002,-7.736206e-001
6.845130e+002,-3.391357e+000
6.854772e+002,-1.450623e+000
6.864415e+002,3.428040e+000
6.874057e+002,7.229187e+000
6.883699e+002,9.598877e+000
6.893342e+002,1.047028e+001
6.902984e+002,9.833435e+000
6.912626e+002,8.076904e+000
6.922269e+002,6.877930e+000
6.931911e+002,7.571106e+000
6.941553e+002,8.382080e+000
6.951196e+002,8.449402e+000
6.960838e+002,7.970032e+000
6.970480e+002,7.705383e+000
6.980123e+002,8.267517e+000
6.989765e+002,8.519714e+000
6.999407e+002,7.456299e+000
7.009050e+002,6.170959e+000
7.018692e+002,5.396362e+000
7.028334e+002,5.379578e+000
7.037977e+002,5.944763e+000
7.047619e+002,7.758911e+000
7.057261e+002,1.022937e+001
7.066904e+002,1.114288e+001
7.076546e+002,1.010773e+001
7.086188e+002,8.281616e+000
7.095831e+002,7.483093e+000
7.105473e+002,7.883789e+000
7.115115e+002,8.043274e+000
7.124758e+002,7.631714e+000
7.134400e+002,7.053894e+000
7.144042e+002,6.974121e+000
7.153685e+002,7.541809e+000
7.163327e+002,7.582397e+000
7.172969e+002,5.752502e+000
7.182612e+002,4.114868e+000
7.192254e+002,3.086304e+000
7.201896e+002,2.713013e+000
7.211539e+002,3.170471e+000
7.221181e+002,4.821960e+000
7.230823e+002,6.895325e+000
7.240466e+002,6.895569e+000
7.250108e+002,5.764099e+000
7.259750e+002,6.042175e+000
7.269393e+002,9.139648e+000
7.279035e+002,1.396082e+001
7.288677e+002,1.544067e+001
7.298320e+002,1.234021e+001
7.307962e+002,9.098267e+000
7.317604e+002,4.277161e+000
7.327247e+002,2.409058e-001
7.336889e+002,7.859497e-001
7.346531e+002,7.922607e+000
7.356174e+002,1.299091e+001
7.365816e+002,1.136041e+001
7.375458e+002,7.715942e+000
7.385101e+002,5.194824e+000
7.394743e+002,4.731689e+000
7.404385e+002,5.124695e+000
7.414028e+002,4.286865e+000
7.423670e+002,1.755737e+000
7.433312e+002,9.002686e-002
7.442955e+002,2.313232e-001
7.452597e+002,1.318542e+000
7.462239e+002,1.826111e+000
7.471882e+002,9.862061e-001
7.481524e+002,2.084656e+000
7.491166e+002,5.906433e+000
7.500809e+002,9.048584e+000
7.510451e+002,1.023444e+001
7.520093e+002,9.701111e+000
7.529736e+002,8.718506e+000
7.539378e+002,8.538208e+000
7.549020e+002,8.126221e+000
7.558663e+002,5.970398e+000
7.568306e+002,3.340881e+000
7.577948e+002,2.027222e+000
7.587590e+002,2.885681e+000
7.597233e+002,4.668457e+000
7.606875e+002,4.236023e+000
7.616517e+002,2.266357e+000
7.626160e+002,2.015320e+000
7.635802e+002,4.950378e+000
7.645444e+002,9.595337e+000
7.655087e+002,1.270752e+001
7.664729e+002,1.336139e+001
7.674371e+002,1.402246e+001
7.684014e+002,1.590186e+001
7.693656e+002,1.688080e+001
7.703298e+002,1.473676e+001
7.712941e+002,9.741638e+000
7.722583e+002,5.846252e+000
7.732225e+002,6.333313e+000
7.741868e+002,8.858215e+000
7.751510e+002,1.234613e+001
7.761152e+002,1.625677e+001
7.770795e+002,2.007385e+001
7.780437e+002,2.329504e+001
7.790079e+002,2.556287e+001
7.799722e+002,2.365826e+001
7.809364e+002,1.692859e+001
7.819006e+002,1.227844e+001
7.828649e+002,1.431274e+001
7.838291e+002,2.097601e+001
7.847933e+002,2.427344e+001
7.857576e+002,2.011169e+001
7.867218e+002,1.768964e+001
7.876860e+002,2.082098e+001
7.886503e+002,2.541113e+001
7.896145e+002,2.798846e+001
7.905787e+002,2.764612e+001
7.915430e+002,2.644482e+001
7.925072e+002,2.565643e+001
7.934714e+002,2.495844e+001
7.944357e+002,2.511896e+001
7.953999e+002,2.614886e+001
7.963641e+002,2.662872e+001
7.973284e+002,2.461493e+001
7.982926e+002,1.978247e+001
7.992568e+002,1.960187e+001
8.002211e+002,2.579321e+001
8.011853e+002,3.024963e+001
8.021495e+002,3.008051e+001
8.031138e+002,2.708099e+001
8.040780e+002,2.548901e+001
8.050422e+002,2.548810e+001
8.060065e+002,2.665314e+001
8.069707e+002,2.974072e+001
8.079349e+002,3.263000e+001
8.088992e+002,3.310547e+001
8.098634e+002,3.077649e+001
8.108276e+002,2.802521e+001
8.117919e+002,2.839410e+001
8.127561e+002,2.951147e+001
8.137203e+002,2.762842e+001
8.146846e+002,2.289966e+001
8.156488e+002,1.837610e+001
8.166130e+002,1.761755e+001
8.175773e+002,2.132996e+001
8.185415e+002,2.374609e+001
8.195057e+002,2.328754e+001
8.204700e+002,2.284662e+001
8.214342e+002,2.339258e+001
8.223984e+002,2.471594e+001
8.233627e+002,2.626184e+001
8.243269e+002,2.836829e+001
8.252911e+002,2.997729e+001
8.262554e+002,3.026843e+001
8.272196e+002,2.992896e+001
8.281838e+002,2.952087e+001
8.291481e+002,2.928271e+001
8.301123e+002,2.913269e+001
8.310765e+002,2.895074e+001
8.320408e+002,2.862805e+001
8.330050e+002,2.827655e+001
8.339692e+002,2.788501e+001
8.349335e+002,2.791919e+001
8.358977e+002,2.946472e+001
8.368619e+002,3.324231e+001
8.378262e+002,3.523486e+001
8.387904e+002,3.332562e+001
8.397546e+002,3.114801e+001
8.407189e+002,2.918738e+001
8.416831e+002,2.773639e+001
8.426473e+002,2.700934e+001
8.436116e+002,2.712866e+001
8.445758e+002,2.827875e+001
8.455400e+002,3.072656e+001
8.465043e+002,3.317169e+001
8.474685e+002,3.471027e+001
8.484327e+002,3.548566e+001
8.493970e+002,3.631543e+001
8.503612e+002,3.800220e+001
8.513254e+002,4.056232e+001
8.522897e+002,4.202271e+001
8.532539e+002,4.142993e+001
8.542181e+002,4.050342e+001
8.551824e+002,4.091028e+001
8.561466e+002,4.291742e+001
8.571108e+002,4.479669e+001
8.580751e+002,4.431543e+001
8.590393e+002,4.377075e+001
8.600035e+002,4.379462e+001
8.609678e+002,4.500970e+001
8.619320e+002,4.855011e+001
8.628962e+002,5.456696e+001
8.638605e+002,6.078064e+001
8.648247e+002,6.356317e+001
8.657889e+002,6.386884e+001
8.667532e+002,6.332312e+001
8.677174e+002,6.214624e+001
8.686816e+002,6.192273e+001
8.696459e+002,6.490948e+001
8.706101e+002,7.199756e+001
8.715743e+002,7.740594e+001
8.725386e+002,8.051007e+001
8.735028e+002,8.305725e+001
8.744670e+002,8.454840e+001
8.754313e+002,8.528949e+001
8.763955e+002,8.622632e+001
8.773597e+002,8.791022e+001
8.783240e+002,8.997052e+001
8.792882e+002,9.223944e+001
8.802524e+002,9.423077e+001
8.812167e+002,9.566815e+001
8.821809e+002,9.645581e+001
8.831451e+002,9.640442e+001
8.841094e+002,9.515424e+001
8.850736e+002,9.333240e+001
8.860378e+002,9.548578e+001
8.870021e+002,1.022196e+002
8.879663e+002,1.090037e+002
8.889305e+002,1.132994e+002
8.898948e+002,1.152872e+002
8.908590e+002,1.164631e+002
8.918232e+002,1.161735e+002
8.927875e+002,1.172442e+002
8.937517e+002,1.213848e+002
8.947159e+002,1.261714e+002
8.956802e+002,1.292189e+002
8.966444e+002,1.298388e+002
8.976086e+002,1.293214e+002
8.985729e+002,1.290649e+002
8.995371e+002,1.294764e+002
9.005013e+002,1.305801e+002
9.014656e+002,1.325202e+002
9.024298e+002,1.350850e+002
9.033940e+002,1.378842e+002
9.043583e+002,1.404422e+002
9.053225e+002,1.420994e+002
9.062867e+002,1.416966e+002
9.072510e+002,1.410824e+002
9.082152e+002,1.413802e+002
9.091794e+002,1.418689e+002
9.101437e+002,1.410836e+002
9.111079e+002,1.387088e+002
9.120721e+002,1.378089e+002
9.130364e+002,1.418272e+002
9.140006e+002,1.456044e+002
9.149648e+002,1.463374e+002
9.159291e+002,1.450641e+002
9.168933e+002,1.438464e+002
9.178575e+002,1.439111e+002
9.188218e+002,1.446536e+002
9.197860e+002,1.452896e+002
9.207502e+002,1.457590e+002
9.217145e+002,1.429792e+002
9.226787e+002,1.346433e+002
9.236429e+002,1.255715e+002
9.246072e+002,1.224073e+002
9.255714e+002,1.260705e+002
9.265356e+002,1.287504e+002
9.274999e+002,1.291650e+002
9.284641e+002,1.279917e+002
9.294283e+002,1.253046e+002
9.303926e+002,1.215667e+002
9.313568e+002,1.167546e+002
9.323210e+002,1.106505e+002
9.332853e+002,1.051412e+002
9.342495e+002,1.047941e+002
9.352137e+002,1.067108e+002
9.361780e+002,1.071774e+002
9.371422e+002,1.057058e+002
9.381064e+002,1.030556e+002
9.390707e+002,9.940295e+001
9.400349e+002,9.353723e+001
9.409991e+002,9.157373e+001
9.419634e+002,9.744244e+001
9.429276e+002,1.013953e+002
9.438918e+002,9.976947e+001
9.448561e+002,9.518921e+001
9.458203e+002,9.221497e+001
9.467845e+002,9.241113e+001
9.477488e+002,9.339099e+001
9.487130e+002,9.314758e+001
9.496772e+002,9.285162e+001
9.506415e+002,9.383337e+001
9.516057e+002,9.582520e+001
9.525699e+002,9.720911e+001
9.535342e+002,9.630664e+001
9.544984e+002,9.334833e+001
9.554626e+002,9.204779e+001
9.564269e+002,9.318274e+001
9.573911e+002,9.492896e+001
9.583553e+002,9.754767e+001
9.593196e+002,9.989233e+001
9.602838e+002,9.992804e+001
9.612480e+002,9.695856e+001
9.622123e+002,9.353448e+001
9.631765e+002,9.011719e+001
9.641407e+002,8.700952e+001
9.651050e+002,8.428961e+001
9.660692e+002,8.167859e+001
9.670334e+002,7.894073e+001
9.679977e+002,7.619073e+001
9.689619e+002,7.380548e+001
9.699261e+002,7.056915e+001
9.708904e+002,6.714880e+001
9.718546e+002,6.761047e+001
9.728188e+002,7.298468e+001
9.737831e+002,8.108728e+001
9.747473e+002,9.009882e+001
9.757115e+002,1.009706e+002
9.766758e+002,1.082814e+002
9.776400e+002,1.113497e+002
9.786042e+002,1.124543e+002
9.795685e+002,1.119730e+002
9.805327e+002,1.091540e+002
9.814969e+002,1.026295e+002
9.824612e+002,9.222974e+001
9.834254e+002,8.132483e+001
9.843896e+002,7.137524e+001
9.853539e+002,6.304468e+001
9.863181e+002,5.747906e+001
9.872823e+002,5.435718e+001
9.882466e+002,5.318658e+001
9.892108e+002,5.410706e+001
9.901750e+002,5.723810e+001
9.911393e+002,5.885846e+001
9.921035e+002,5.511847e+001
9.930677e+002,5.367975e+001
9.940320e+002,5.741077e+001
9.949962e+002,6.246124e+001
9.959604e+002,6.483667e+001
9.969247e+002,6.447974e+001
9.978889e+002,6.556183e+001
9.988531e+002,7.081372e+001
9.998174e+002,7.565332e+001
1.000782e+003,7.744476e+001
1.001746e+003,7.773413e+001
1.002710e+003,7.915424e+001
1.003674e+003,8.252032e+001
1.004639e+003,8.559766e+001
1.005603e+003,8.434070e+001
1.006567e+003,7.804388e+001
1.007531e+003,7.211218e+001
1.008495e+003,6.560260e+001
1.009460e+003,6.127551e+001
1.010424e+003,6.243213e+001
1.011388e+003,6.755426e+001
1.012352e+003,7.000934e+001
1.013317e+003,6.806201e+001
1.014281e+003,6.457587e+001
1.015245e+003,5.939111e+001
1.016209e+003,5.391931e+001
1.017174e+003,4.932190e+001
1.018138e+003,4.569617e+001
1.019102e+003,4.249963e+001
1.020066e+003,3.950018e+001
1.021031e+003,3.656714e+001
1.021995e+003,3.175262e+001
1.022959e+003,2.517194e+001
1.023923e+003,2.026978e+001
1.024887e+003,1.856482e+001
1.025852e+003,1.815436e+001
1.026816e+003,1.610602e+001
1.027780e+003,1.229279e+001
1.028744e+003,9.079468e+000
1.029709e+003,5.768616e+000
1.030673e+003,3.887634e+000
1.031637e+003,4.773682e+000
1.032601e+003,6.760681e+000
1.033566e+003,7.830688e+000
1.034530e+003,7.390503e+000
1.035494e+003,6.235291e+000
1.036458e+003,4.442017e+000
1.037422e+003,2.647705e+000
1.038387e+003,2.090637e+000
1.039351e+003,2.655090e+000
1.040315e+003,3.862244e+000
1.041279e+003,5.694885e+000
1.042244e+003,7.959473e+000
1.043208e+003,8.708191e+000
1.044172e+003,5.854492e+000
1.045136e+003,4.195862e+000
1.046101e+003,4.857361e+000
1.047065e+003,6.051758e+000
1.048029e+003,6.269470e+000
1.048993e+003,5.757080e+000
1.049958e+003,6.236206e+000
1.050922e+003,9.030334e+000
1.051886e+003,1.247327e+001
1.052850e+003,1.559821e+001
1.053814e+003,1.781482e+001
1.054779e+003,1.761212e+001
1.055743e+003,1.494519e+001
1.056707e+003,1.189972e+001
1.057671e+003,1.102295e+001
1.058636e+003,1.224359e+001
1.059600e+003,1.323260e+001
1.060564e+003,1.478229e+001
1.061528e+003,1.606787e+001
1.062493e+003,1.638458e+001
1.063457e+003,1.594092e+001
1.064421e+003,1.532050e+001
1.065385e+003,1.475049e+001
1.066349e+003,1.371271e+001
1.067314e+003,1.165662e+001
1.068278e+003,9.393616e+000
1.069242e+003,6.753906e+000
1.070206e+003,4.754150e+000
1.071171e+003,5.398438e+000
1.072135e+003,8.985596e+000
1.073099e+003,1.280347e+001
1.074063e+003,1.248865e+001
1.075028e+003,7.679199e+000
1.075992e+003,5.163513e+000
1.076956e+003,5.320618e+000
1.077920e+003,5.901306e+000
1.078885e+003,6.779175e+000
1.079849e+003,7.880493e+000
1.080813e+003,8.809937e+000
1.081777e+003,9.573853e+000
1.082741e+003,1.023029e+001
1.083706e+003,1.038800e+001
1.084670e+003,9.907410e+000
1.085634e+003,8.463989e+000
1.086598e+003,6.360718e+000
1.087563e+003,4.064575e+000
1.088527e+003,2.100098e+000
1.089491e+003,1.113220e+000
1.090455e+003,1.950623e+000
1.091420e+003,4.530518e+000
1.092384e+003,5.763184e+000
1.093348e+003,4.849731e+000
1.094312e+003,3.472595e+000
1.095276e+003,3.124268e+000
1.096241e+003,3.548645e+000
1.097205e+003,2.876892e+000
1.098169e+003,-3.438721e-001
1.099133e+003,-1.992004e+000
1.100098e+003,1.561035e+000
1.101062e+003,5.496155e+000
1.102026e+003,6.849243e+000
1.102990e+003,6.042786e+000
1.103955e+003,4.555725e+000
1.104919e+003,3.251953e+000
1.105883e+003,2.519409e+000
1.106847e+003,3.783752e+000
1.107812e+003,6.976746e+000
1.108776e+003,8.315491e+000
1.109740e+003,7.102905e+000
1.110704e+003,5.171997e+000
1.111668e+003,3.971863e+000
1.112633e+003,3.626099e+000
1.113597e+003,3.449219e+000
1.114561e+003,2.709045e+000
1.115525e+003,2.953979e+000
1.116490e+003,6.150635e+000
1.117454e+003,8.857178e+000
1.118418e+003,8.208252e+000
1.119382e+003,5.613464e+000
1.120347e+003,4.585449e+000
1.121311e+003,6.945862e+000
1.122275e+003,1.055487e+001
1.123239e+003,1.219885e+001
1.124203e+003,1.250781e+001
1.125168e+003,1.311017e+001
1.126132e+003,1.405426e+001
1.127096e+003,1.581085e+001
1.128060e+003,1.920251e+001
1.129025e+003,2.352460e+001
1.129989e+003,2.592853e+001
1.130953e+003,2.526147e+001
1.131917e+003,2.438550e+001
1.132882e+003,2.391772e+001
1.133846e+003,2.401819e+001
1.134810e+003,2.465179e+001
1.135774e+003,2.601160e+001
1.136739e+003,2.850238e+001
1.137703e+003,3.229828e+001
1.138667e+003,3.678961e+001
1.139631e+003,4.082642e+001
1.140595e+003,4.460645e+001
1.141560e+003,5.012244e+001
1.142524e+003,5.773468e+001
1.143488e+003,6.732471e+001
1.144452e+003,7.864587e+001
1.145417e+003,9.172852e+001
1.146381e+003,1.070649e+002
1.147345e+003,1.256907e+002
1.148309e+003,1.433807e+002
1.149274e+003,1.570408e+002
1.150238e+003,1.720773e+002
1.151202e+003,1.940496e+002
1.152166e+003,2.192477e+002
1.153130e+003,2.410199e+002
1.154095e+003,2.557396e+002
1.155059e+003,2.639241e+002
1.156023e+003,2.669666e+002
1.156987e+003,2.645458e+002
1.157952e+003,2.562432e+002
1.158916e+003,2.423961e+002
1.159880e+003,2.257031e+002
1.160844e+003,2.045745e+002
1.161809e+003,1.810203e+002
1.162773e+003,1.611129e+002
1.163737e+003,1.456222e+002
1.164701e+003,1.305704e+002
1.165666e+003,1.140325e+002
1.166630e+003,9.937305e+001
1.167594e+003,8.823206e+001
1.168558e+003,7.947815e+001
1.169522e+003,7.125830e+001
1.170487e+003,6.321692e+001
1.171451e+003,5.739050e+001
1.172415e+003,5.635028e+001
1.173379e+003,5.886047e+001
1.174344e+003,5.876807e+001
1.175308e+003,5.616162e+001
1.176272e+003,5.358777e+001
1.177236e+003,5.273193e+001
1.178201e+003,5.190698e+001
1.179165e+003,4.806946e+001
1.180129e+003,4.087335e+001
1.181093e+003,3.497266e+001
1.182057e+003,3.183398e+001
1.183022e+003,2.987616e+001
1.183986e+003,2.898254e+001
1.184950e+003,2.852783e+001
1.185914e+003,2.796576e+001
1.186879e+003,2.736749e+001
1.187843e+003,2.705280e+001
1.188807e+003,2.713861e+001
1.189771e+003,2.785657e+001
1.190736e+003,3.109326e+001
1.191700e+003,3.739172e+001
1.192664e+003,3.939063e+001
1.193628e+003,3.440430e+001
1.194593e+003,2.818793e+001
1.195557e+003,2.473236e+001
1.196521e+003,2.321484e+001
1.197485e+003,2.075189e+001
1.198449e+003,1.646021e+001
1.199414e+003,1.295435e+001
1.200378e+003,1.364471e+001
1.201342e+003,1.356042e+001
1.202306e+003,7.422363e+000
1.203271e+003,-1.921753e+000
1.204235e+003,-7.604431e+000
1.205199e+003,-6.451599e+000
1.206163e+003,-2.490540e+000
1.207128e+003,-2.568909e+000
1.208092e+003,-6.907288e+000
1.209056e+003,-1.047607e+001
1.210020e+003,-1.262054e+001
1.210984e+003,-1.534607e+001
1.211949e+003,-2.008832e+001
1.212913e+003,-2.535681e+001
1.213877e+003,-2.859772e+001
1.214841e+003,-2.965771e+001
1.215806e+003,-3.198999e+001
1.216770e+003,-3.794147e+001
1.217734e+003,-4.409235e+001
1.218698e+003,-4.914246e+001
1.219663e+003,-5.275458e+001
1.220627e+003,-5.339880e+001
1.221591e+003,-5.163220e+001
1.222555e+003,-5.089752e+001
1.223520e+003,-5.441345e+001
1.224484e+003,-6.079163e+001
1.225448e+003,-6.405664e+001
1.226412e+003,-6.213672e+001
1.227376e+003,-6.178687e+001
1.228341e+003,-6.541345e+001
1.229305e+003,-6.811420e+001
1.230269e+003,-6.669885e+001
1.231233e+003,-6.266345e+001
1.232198e+003,-5.844574e+001
1.233162e+003,-5.436743e+001
1.234126e+003,-5.228625e+001
1.235090e+003,-5.539301e+001
1.236055e+003,-5.998840e+001
1.237019e+003,-6.195123e+001
1.237983e+003,-6.206116e+001
1.238947e+003,-6.246094e+001
1.239911e+003,-6.387268e+001
1.240876e+003,-6.521216e+001
1.241840e+003,-6.490863e+001
1.242804e+003,-6.279590e+001
1.243768e+003,-6.172906e+001
1.244733e+003,-6.360651e+001
1.245697e+003,-6.392865e+001
1.246661e+003,-6.152075e+001
1.247625e+003,-5.885913e+001
1.248590e+003,-5.763928e+001
1.249554e+003,-5.739941e+001
1.250518e+003,-5.665247e+001
1.251482e+003,-5.486505e+001
1.252447e+003,-5.317108e+001
1.253411e+003,-5.250769e+001
1.254375e+003,-5.261157e+001
1.255339e+003,-5.376746e+001
1.256303e+003,-5.569189e+001
1.257268e+003,-5.595203e+001
1.258232e+003,-5.294788e+001
1.259196e+003,-4.860834e+001
1.260160e+003,-4.658704e+001
1.261125e+003,-4.718475e+001
1.262089e+003,-4.631653e+001
1.263053e+003,-4.275055e+001
1.264017e+003,-3.933386e+001
1.264982e+003,-3.600378e+001
1.265946e+003,-3.337665e+001
1.266910e+003,-3.207422e+001
1.267874e+003,-3.202582e+001
1.268839e+003,-3.266492e+001
1.269803e+003,-3.359644e+001
1.270767e+003,-3.502161e+001
1.271731e+003,-3.763342e+001
1.272695e+003,-4.114410e+001
1.273660e+003,-4.274707e+001
1.274624e+003,-4.197705e+001
1.275588e+003,-4.185553e+001
1.276552e+003,-4.405658e+001
1.277517e+003,-4.734198e+001
1.278481e+003,-5.006195e+001
1.279445e+003,-5.228845e+001
1.280409e+003,-5.326581e+001
1.281374e+003,-5.146252e+001
1.282338e+003,-4.995313e+001
1.283302e+003,-5.136432e+001
1.284266e+003,-5.337823e+001
1.285230e+003,-5.264362e+001
1.286195e+003,-4.939386e+001
1.287159e+003,-4.703583e+001
1.288123e+003,-4.823956e+001
1.289087e+003,-5.166998e+001
1.290052e+003,-5.391455e+001
1.291016e+003,-5.494507e+001
1.291980e+003,-5.573431e+001
1.292944e+003,-5.642444e+001
1.293909e+003,-5.731238e+001
1.294873e+003,-5.863202e+001
1.295837e+003,-5.962262e+001
1.296801e+003,-5.920728e+001
1.297766e+003,-5.732581e+001
1.298730e+003,-5.510516e+001
1.299694e+003,-5.297986e+001
1.300658e+003,-5.155719e+001
1.301622e+003,-5.141687e+001
1.302587e+003,-5.206378e+001
1.303551e+003,-5.319727e+001
1.304515e+003,-5.453607e+001
1.305479e+003,-5.528870e+001
1.306444e+003,-5.504834e+001
1.307408e+003,-5.393848e+001
1.308372e+003,-5.160205e+001
1.309336e+003,-4.714606e+001
1.310301e+003,-4.435657e+001
1.311265e+003,-4.401904e+001
1.312229e+003,-4.419348e+001
1.313193e+003,-4.380914e+001
1.314157e+003,-4.418158e+001
1.315122e+003,-4.766217e+001
1.316086e+003,-5.371808e+001
1.317050e+003,-5.907153e+001
1.318014e+003,-6.146942e+001
1.318979e+003,-6.145349e+001
1.319943e+003,-5.970154e+001
1.320907e+003,-5.629895e+001
1.321871e+003,-5.356586e+001
1.322836e+003,-5.213635e+001
1.323800e+003,-5.098108e+001
1.324764e+003,-4.887817e+001
1.325728e+003,-4.692120e+001
1.326693e+003,-4.788245e+001
1.327657e+003,-5.208331e+001
1.328621e+003,-5.433521e+001
1.329585e+003,-5.148975e+001
1.330549e+003,-4.758093e+001
1.331514e+003,-4.450916e+001
1.332478e+003,-4.302332e+001
1.333442e+003,-4.488928e+001
1.334406e+003,-4.867291e+001
1.335371e+003,-5.008588e+001
1.336335e+003,-4.665015e+001
1.337299e+003,-4.112219e+001
1.338263e+003,-3.884027e+001
1.339228e+003,-4.010278e+001
1.340192e+003,-4.173450e+001
1.341156e+003,-4.559686e+001
1.342120e+003,-4.714307e+001
1.343084e+003,-4.417743e+001
1.344049e+003,-4.064178e+001
1.345013e+003,-3.961096e+001
1.345977e+003,-4.039288e+001
1.346941e+003,-4.041693e+001
1.347906e+003,-3.872736e+001
1.348870e+003,-3.724640e+001
1.349834e+003,-3.841858e+001
1.350798e+003,-4.070319e+001
1.351763e+003,-4.024438e+001
1.352727e+003,-3.756104e+001
1.353691e+003,-3.659814e+001
1.354655e+003,-3.923193e+001
1.355620e+003,-4.228845e+001
1.356584e+003,-4.123108e+001
1.357548e+003,-3.663098e+001
1.358512e+003,-3.490240e+001
1.359476e+003,-3.780676e+001
1.360441e+003,-4.069501e+001
1.361405e+003,-4.225610e+001
1.362369e+003,-4.331366e+001
1.363333e+003,-4.460577e+001
1.364298e+003,-4.545551e+001
1.365262e+003,-4.413605e+001
1.366226e+003,-4.086841e+001
1.367190e+003,-3.875385e+001
1.368155e+003,-4.063495e+001
1.369119e+003,-4.467017e+001
1.370083e+003,-4.482800e+001
1.371047e+003,-3.953180e+001
1.372011e+003,-3.617773e+001
1.372976e+003,-3.666486e+001
1.373940e+003,-3.721387e+001
1.374904e+003,-3.602429e+001
1.375868e+003,-3.411932e+001
1.376833e+003,-3.334906e+001
1.377797e+003,-3.362177e+001
1.378761e+003,-3.206726e+001
1.379725e+003,-2.638831e+001
1.380690e+003,-2.175403e+001
1.381654e+003,-2.576508e+001
1.382618e+003,-3.291132e+001
1.383582e+003,-3.563696e+001
1.384547e+003,-3.385986e+001
1.385511e+003,-3.120221e+001
1.386475e+003,-2.946594e+001
1.387439e+003,-2.825641e+001
1.388403e+003,-2.687579e+001
1.389368e+003,-2.536188e+001
1.390332e+003,-2.421228e+001
1.391296e+003,-2.343256e+001
1.392260e+003,-2.256146e+001
1.393225e+003,-2.076276e+001
1.394189e+003,-1.976709e+001
1.395153e+003,-2.130579e+001
1.396117e+003,-2.396033e+001
1.397082e+003,-2.546997e+001
1.398046e+003,-2.520270e+001
1.399010e+003,-2.420239e+001
1.399974e+003,-2.359100e+001
1.400938e+003,-2.379291e+001
1.401903e+003,-2.519409e+001
1.402867e+003,-2.755267e+001
1.403831e+003,-2.775555e+001
1.404795e+003,-2.473944e+001
1.405760e+003,-2.197052e+001
1.406724e+003,-2.118573e+001
1.407688e+003,-2.201453e+001
1.408652e+003,-2.398108e+001
1.409617e+003,-2.625183e+001
1.410581e+003,-2.679834e+001
1.411545e+003,-2.449280e+001
1.412509e+003,-2.216583e+001
1.413474e+003,-2.346790e+001
1.414438e+003,-2.648480e+001
1.415402e+003,-2.720514e+001
1.416366e+003,-2.560248e+001
1.417330e+003,-2.369250e+001
1.418295e+003,-2.201453e+001
1.419259e+003,-2.114777e+001
1.420223e+003,-2.301990e+001
1.421187e+003,-2.698938e+001
1.422152e+003,-2.719000e+001
1.423116e+003,-2.171521e+001
1.424080e+003,-1.709369e+001
1.425044e+003,-1.611786e+001
1.426009e+003,-1.596912e+001
1.426973e+003,-1.586743e+001
1.427937e+003,-1.578656e+001
1.428901e+003,-1.555225e+001
1.429865e+003,-1.513159e+001
1.430830e+003,-1.476495e+001
1.431794e+003,-1.477686e+001
1.432758e+003,-1.557013e+001
1.433722e+003,-1.783612e+001
1.434687e+003,-2.162347e+001
1.435651e+003,-1.970923e+001
1.436615e+003,-5.848450e+000
1.437579e+003,2.024658e+000
1.438544e+003,-2.171021e+000
1.439508e+003,-7.883240e+000
1.440472e+003,-7.166809e+000
1.441436e+003,-2.653137e+000
1.442401e+003,-1.066772e+000
1.443365e+003,-3.872803e+000
1.444329e+003,-6.028015e+000
1.445293e+003,-3.217102e+000
1.446257e+003,1.116638e+000
1.447222e+003,-6.998901e-001
1.448186e+003,-7.337830e+000
1.449150e+003,-1.106934e+001
1.450114e+003,-1.084564e+001
1.451079e+003,-9.865173e+000
1.452043e+003,-9.099854e+000
1.453007e+003,-8.465271e+000
1.453971e+003,-8.307739e+000
1.454936e+003,-8.645386e+000
1.455900e+003,-8.414001e+000
1.456864e+003,-6.919067e+000
1.457828e+003,-5.853271e+000
1.458792e+003,-6.812622e+000
1.459757e+003,-8.522705e+000
1.460721e+003,-1.049017e+001
1.461685e+003,-1.223901e+001
1.462649e+003,-1.263092e+001
1.463614e+003,-1.136310e+001
1.464578e+003,-9.700012e+000
1.465542e+003,-8.804016e+000
1.466506e+003,-8.717834e+000
1.467471e+003,-9.572083e+000
1.468435e+003,-1.164581e+001
1.469399e+003,-1.119421e+001
1.470363e+003,-5.504517e+000
1.471328e+003,-1.729614e+000
1.472292e+003,-2.469788e+000
1.473256e+003,-5.254272e+000
1.474220e+003,-9.201904e+000
1.475184e+003,-1.267603e+001
1.476149e+003,-1.347168e+001
1.477113e+003,-1.134735e+001
1.478077e+003,-8.471436e+000
1.479041e+003,-6.681152e+000
1.480006e+003,-5.243896e+000
1.480970e+003,-2.389404e+000
1.481934e+003,2.273438e+000
1.482898e+003,5.016235e+000
1.483863e+003,4.964905e+000
1.484827e+003,4.291992e+000
1.485791e+003,2.229187e+000
1.486755e+003,1.499207e+000
1.487719e+003,5.695740e+000
1.488684e+003,1.280542e+001
1.489648e+003,1.743365e+001
1.490612e+003,1.806555e+001
1.491576e+003,1.785645e+001
1.492541e+003,1.907373e+001
1.493505e+003,2.117743e+001
1.494469e+003,2.274329e+001
1.495433e+003,2.370581e+001
1.496398e+003,2.657373e+001
1.497362e+003,3.275220e+001
1.498326e+003,3.915631e+001
1.499290e+003,4.353613e+001
1.500255e+003,4.757440e+001
1.501219e+003,5.337054e+001
1.502183e+003,6.072211e+001
1.503147e+003,6.851746e+001
1.504111e+003,7.634204e+001
1.505076e+003,8.551813e+001
1.506040e+003,9.756238e+001
1.507004e+003,1.107350e+002
1.507968e+003,1.228007e+002
1.508933e+003,1.347300e+002
1.509897e+003,1.484207e+002
1.510861e+003,1.647922e+002
1.511825e+003,1.840463e+002
1.512790e+003,2.062712e+002
1.513754e+003,2.303494e+002
1.514718e+003,2.557294e+002
1.515682e+003,2.820450e+002
1.516646e+003,3.038058e+002
1.517611e+003,3.196812e+002
1.518575e+003,3.342491e+002
1.519539e+003,3.500444e+002
1.520503e+003,3.644497e+002
1.521468e+003,3.779714e+002
1.522432e+003,3.878444e+002
1.523396e+003,3.900594e+002
1.524360e+003,3.846232e+002
1.525325e+003,3.748226e+002
1.526289e+003,3.629597e+002
1.527253e+003,3.494969e+002
1.528217e+003,3.352442e+002
1.529182e+003,3.205237e+002
1.530146e+003,3.017466e+002
1.531110e+003,2.771053e+002
1.532074e+003,2.509185e+002
1.533039e+003,2.208862e+002
1.534003e+003,1.911947e+002
1.534967e+003,1.637083e+002
1.535931e+003,1.388879e+002
1.536896e+003,1.165555e+002
1.537860e+003,9.706879e+001
1.538824e+003,8.139490e+001
1.539788e+003,6.973987e+001
1.540752e+003,6.056055e+001
1.541717e+003,5.209930e+001
1.542681e+003,4.465118e+001
1.543645e+003,3.878741e+001
1.544609e+003,3.481323e+001
1.545573e+003,3.294244e+001
1.546538e+003,3.370538e+001
1.547502e+003,3.477289e+001
1.548466e+003,3.629797e+001
1.549430e+003,3.784027e+001
1.550395e+003,3.830475e+001
1.551359e+003,3.800415e+001
1.552323e+003,3.911975e+001
1.553287e+003,4.218665e+001
1.554252e+003,4.290424e+001
1.555216e+003,3.688342e+001
1.556180e+003,2.747015e+001
1.557144e+003,2.240222e+001
1.558109e+003,2.204242e+001
1.559073e+003,2.274744e+001
1.560037e+003,2.510071e+001
1.561001e+003,2.594708e+001
1.561966e+003,2.385626e+001
1.562930e+003,2.118433e+001
1.563894e+003,1.944855e+001
1.564858e+003,1.856836e+001
1.565823e+003,1.850366e+001
1.566787e+003,1.914514e+001
1.567751e+003,1.978430e+001
1.568715e+003,2.014191e+001
1.569679e+003,2.045117e+001
1.570644e+003,2.079010e+001
1.571608e+003,2.096552e+001
1.572572e+003,2.104492e+001
1.573536e+003,2.124878e+001
1.574500e+003,2.186060e+001
1.575465e+003,2.273438e+001
1.576429e+003,2.413086e+001
1.577393e+003,2.693689e+001
1.578357e+003,2.988379e+001
1.579322e+003,3.017157e+001
1.580286e+003,2.800677e+001
1.581250e+003,2.715405e+001
1.582214e+003,2.896533e+001
1.583179e+003,3.147784e+001
1.584143e+003,3.353699e+001
1.585107e+003,3.488672e+001
1.586071e+003,3.545715e+001
1.587036e+003,3.584753e+001
1.588000e+003,3.665942e+001
1.588964e+003,3.776215e+001
1.589928e+003,3.920984e+001
1.590893e+003,4.157959e+001
1.591857e+003,4.391998e+001
1.592821e+003,4.460583e+001
1.593785e+003,4.396948e+001
1.594750e+003,4.332727e+001
1.595714e+003,4.246588e+001
1.596678e+003,4.299402e+001
1.597642e+003,4.636688e+001
1.598606e+003,5.024084e+001
1.599571e+003,5.349518e+001
1.600535e+003,5.590491e+001
1.601499e+003,5.675824e+001
1.602463e+003,5.616760e+001
1.603427e+003,5.491876e+001
1.604392e+003,5.315460e+001
1.605356e+003,5.243011e+001
1.606320e+003,5.555127e+001
1.607284e+003,6.056366e+001
1.608249e+003,6.123700e+001
1.609213e+003,5.738800e+001
1.610177e+003,5.492407e+001
1.611141e+003,5.519977e+001
1.612106e+003,5.596967e+001
1.613070e+003,5.625323e+001
1.614034e+003,5.648956e+001
1.614998e+003,5.707086e+001
1.615963e+003,5.782709e+001
1.616927e+003,5.825201e+001
1.617891e+003,5.828058e+001
1.618855e+003,5.838928e+001
1.619820e+003,5.866895e+001
1.620784e+003,5.901648e+001
1.621748e+003,6.011200e+001
1.622712e+003,6.221838e+001
1.623677e+003,6.405115e+001
1.624641e+003,6.579053e+001
1.625605e+003,6.626245e+001
1.626569e+003,6.310748e+001
1.627533e+003,6.037616e+001
1.628498e+003,6.133081e+001
1.629462e+003,6.318066e+001
1.630426e+003,6.301941e+001
1.631390e+003,6.180737e+001
1.632354e+003,6.246716e+001
1.633319e+003,6.543921e+001
1.634283e+003,6.787201e+001
1.635247e+003,6.756531e+001
1.636211e+003,6.558453e+001
1.637176e+003,6.349500e+001
1.638140e+003,6.157245e+001
1.639104e+003,6.203870e+001
1.640068e+003,6.582367e+001
1.641033e+003,6.794910e+001
1.641997e+003,6.623273e+001
1.642961e+003,6.433411e+001
1.643925e+003,6.415771e+001
1.644890e+003,6.455176e+001
1.645854e+003,6.398743e+001
1.646818e+003,6.294281e+001
1.647782e+003,6.329724e+001
1.648747e+003,6.547052e+001
1.649711e+003,6.740851e+001
1.650675e+003,6.761926e+001
1.651639e+003,6.678510e+001
1.652604e+003,6.550873e+001
1.653568e+003,6.365271e+001
1.654532e+003,6.314728e+001
1.655496e+003,6.485498e+001
1.656460e+003,6.514838e+001
1.657425e+003,6.176062e+001
1.658389e+003,5.869672e+001
1.659353e+003,5.872015e+001
1.660317e+003,5.962689e+001
1.661281e+003,5.936066e+001
1.662246e+003,5.767975e+001
1.663210e+003,5.425079e+001
1.664174e+003,4.925464e+001
1.665138e+003,4.616815e+001
1.666103e+003,4.854492e+001
1.667067e+003,5.321240e+001
1.668031e+003,5.393756e+001
1.668995e+003,5.103400e+001
1.669960e+003,4.748206e+001
1.670924e+003,4.291040e+001
1.671888e+003,4.067328e+001
1.672852e+003,4.284747e+001
1.673817e+003,4.574976e+001
1.674781e+003,4.755414e+001
1.675745e+003,4.839331e+001
1.676709e+003,4.813391e+001
1.677674e+003,4.701880e+001
1.678638e+003,4.587878e+001
1.679602e+003,4.497498e+001
1.680566e+003,4.303961e+001
1.681531e+003,3.830231e+001
1.682495e+003,3.345703e+001
1.683459e+003,3.368036e+001
1.684423e+003,3.776862e+001
1.685387e+003,3.890259e+001
1.686352e+003,3.620172e+001
1.687316e+003,3.393134e+001
1.688280e+003,3.379706e+001
1.689244e+003,3.369745e+001
1.690208e+003,3.147351e+001
1.691173e+003,2.871185e+001
1.692137e+003,2.755670e+001
1.693101e+003,2.773505e+001
1.694065e+003,2.706305e+001
1.695030e+003,2.466669e+001
1.695994e+003,2.317529e+001
1.696958e+003,2.541180e+001
1.697922e+003,2.825854e+001
1.698887e+003,2.734528e+001
1.699851e+003,2.400970e+001
1.700815e+003,2.198248e+001
1.701779e+003,2.143976e+001
1.702744e+003,2.138232e+001
1.703708e+003,2.202069e+001
1.704672e+003,2.244061e+001
1.705636e+003,2.106964e+001
1.706601e+003,1.914185e+001
1.707565e+003,1.914935e+001
1.708529e+003,2.078876e+001
1.709493e+003,2.277136e+001
1.710458e+003,2.508514e+001
1.711422e+003,2.596075e+001
1.712386e+003,2.374591e+001
1.713350e+003,2.146600e+001
1.714314e+003,2.204620e+001
1.715279e+003,2.326086e+001
1.716243e+003,2.077728e+001
1.717207e+003,1.544269e+001
1.718171e+003,1.268268e+001
1.719135e+003,1.405963e+001
1.720100e+003,1.624744e+001
1.721064e+003,1.706140e+001
1.722028e+003,1.712952e+001
1.722992e+003,1.787537e+001
1.723957e+003,1.920734e+001
1.724921e+003,1.853558e+001
1.725885e+003,1.492853e+001
1.726849e+003,1.192694e+001
1.727814e+003,1.142017e+001
1.728778e+003,1.095557e+001
1.729742e+003,8.364441e+000
1.730706e+003,6.116943e+000
1.731671e+003,7.287476e+000
1.732635e+003,9.879272e+000
1.733599e+003,1.006317e+001
1.734563e+003,7.669617e+000
1.735528e+003,4.765869e+000
1.736492e+003,2.312134e+000
1.737456e+003,1.364563e+000
1.738420e+003,3.380615e+000
1.739385e+003,7.283508e+000
1.740349e+003,1.010883e+001
1.741313e+003,1.219440e+001
1.742277e+003,1.260577e+001
1.743241e+003,1.031793e+001
1.744206e+003,8.601929e+000
1.745170e+003,8.073975e+000
1.746134e+003,7.630066e+000
1.747098e+003,6.322693e+000
1.748063e+003,4.965942e+000
1.749027e+003,4.750244e+000
1.749991e+003,5.436157e+000
1.750955e+003,6.141235e+000
1.751919e+003,6.358521e+000
1.752884e+003,5.574036e+000
1.753848e+003,3.332031e+000
1.754812e+003,5.728760e-001
1.755776e+003,-5.457153e-001
1.756741e+003,1.901855e-001
1.757705e+003,1.066711e+000
1.758669e+003,1.881409e+000
1.759633e+003,2.680847e+000
1.760598e+003,2.990479e+000
1.761562e+003,3.509644e+000
1.762526e+003,5.342468e+000
1.763490e+003,7.102112e+000
1.764455e+003,7.669861e+000
1.765419e+003,7.671814e+000
1.766383e+003,8.158142e+000
1.767347e+003,8.933350e+000
1.768312e+003,8.642151e+000
1.769276e+003,6.524963e+000
1.770240e+003,4.632690e+000
1.771204e+003,6.131836e+000
1.772168e+003,9.268555e+000
1.773133e+003,8.556213e+000
1.774097e+003,4.577271e+000
1.775061e+003,3.987732e+000
1.776025e+003,7.783813e+000
1.776990e+003,9.765259e+000
1.777954e+003,7.566772e+000
1.778918e+003,4.832581e+000
1.779882e+003,3.619324e+000
1.780846e+003,3.217712e+000
1.781811e+003,2.733643e+000
1.782775e+003,2.555725e+000
1.783739e+003,4.185486e+000
1.784703e+003,8.188904e+000
1.785668e+003,1.103986e+001
1.786632e+003,1.059448e+001
1.787596e+003,8.737488e+000
1.788560e+003,6.229187e+000
1.789525e+003,4.379089e+000
1.790489e+003,5.203552e+000
1.791453e+003,7.726318e+000
1.792417e+003,9.205322e+000
1.793382e+003,9.096802e+000
1.794346e+003,8.496033e+000
1.795310e+003,7.933472e+000
1.796274e+003,6.949890e+000
1.797239e+003,4.952026e+000
1.798203e+003,3.061279e+000
1.799167e+003,3.983521e+000
1.800131e+003,7.850708e+000
1.801095e+003,9.303406e+000
1.802060e+003,7.305786e+000
1.803024e+003,5.979126e+000
1.803988e+003,5.766235e+000
1.804952e+003,5.799805e+000
1.805917e+003,5.940186e+000
1.806881e+003,5.881836e+000
1.807845e+003,5.009705e+000
1.808809e+003,4.050415e+000
1.809773e+003,4.469238e+000
1.810738e+003,6.384583e+000
1.811702e+003,8.621277e+000
1.812666e+003,1.038849e+001
1.813630e+003,1.142224e+001
1.814595e+003,1.121136e+001
1.815559e+003,1.009760e+001
1.816523e+003,9.894287e+000
1.817487e+003,1.075885e+001
1.818452e+003,1.158936e+001
1.819416e+003,1.254730e+001
1.820380e+003,1.376898e+001
1.821344e+003,1.591522e+001
1.822309e+003,1.681464e+001
1.823273e+003,1.417023e+001
1.824237e+003,1.096222e+001
1.825201e+003,1.026874e+001
1.826166e+003,1.125256e+001
1.827130e+003,1.157257e+001
1.828094e+003,1.071320e+001
1.829058e+003,9.475525e+000
1.830022e+003,7.912659e+000
1.830987e+003,7.291077e+000
1.831951e+003,1.011884e+001
1.832915e+003,1.347766e+001
1.833879e+003,1.163214e+001
1.834844e+003,6.784485e+000
1.835808e+003,6.743835e+000
1.836772e+003,1.224725e+001
1.837736e+003,1.735284e+001
1.838700e+003,1.938739e+001
1.839665e+003,1.893860e+001
1.840629e+003,1.629449e+001
1.841593e+003,1.266736e+001
1.842557e+003,1.021649e+001
1.843522e+003,8.936401e+000
1.844486e+003,9.464172e+000
1.845450e+003,1.452142e+001
1.846414e+003,1.681989e+001
1.847379e+003,1.327887e+001
1.848343e+003,1.023993e+001
1.849307e+003,9.502625e+000
1.850271e+003,1.027142e+001
1.851236e+003,1.329272e+001
1.852200e+003,1.681934e+001
1.853164e+003,1.827698e+001
1.854128e+003,1.748029e+001
1.855093e+003,1.550604e+001
1.856057e+003,1.332739e+001
1.857021e+003,1.284119e+001
1.857985e+003,1.577222e+001
1.858949e+003,1.957007e+001
1.859914e+003,1.935614e+001
1.860878e+003,1.615570e+001
1.861842e+003,1.554285e+001
1.862806e+003,1.751007e+001
1.863771e+003,1.914758e+001
1.864735e+003,1.993060e+001
1.865699e+003,1.991058e+001
1.866663e+003,1.882983e+001
1.867627e+003,1.803119e+001
1.868592e+003,1.850507e+001
1.869556e+003,1.960815e+001
1.870520e+003,2.100854e+001
1.871484e+003,2.248004e+001
1.872449e+003,2.251331e+001
1.873413e+003,2.124176e+001
1.874377e+003,2.089093e+001
1.875341e+003,2.237494e+001
1.876306e+003,2.307196e+001
1.877270e+003,2.023846e+001
1.878234e+003,1.699048e+001
1.879198e+003,1.714813e+001
1.880163e+003,1.919421e+001
1.881127e+003,2.014233e+001
1.882091e+003,1.959497e+001
1.883055e+003,1.814514e+001
1.884020e+003,1.627124e+001
1.884984e+003,1.562836e+001
1.885948e+003,1.780688e+001
1.886912e+003,2.122717e+001
1.887876e+003,2.269141e+001
1.888841e+003,2.242822e+001
1.889805e+003,2.293683e+001
1.890769e+003,2.455237e+001
1.891733e+003,2.511224e+001
1.892698e+003,2.401105e+001
1.893662e+003,2.215289e+001
1.894626e+003,1.839148e+001
1.895590e+003,1.610828e+001
1.896554e+003,1.964258e+001
1.897519e+003,2.477466e+001
1.898483e+003,2.563513e+001
1.899447e+003,2.320117e+001
1.900411e+003,2.242981e+001
1.901376e+003,2.429645e+001
1.902340e+003,2.649817e+001
1.903304e+003,2.904388e+001
1.904268e+003,3.022882e+001
1.905233e+003,2.795984e+001
1.906197e+003,2.505896e+001
1.907161e+003,2.439728e+001
1.908125e+003,2.539288e+001
1.909090e+003,2.674872e+001
1.910054e+003,2.795282e+001
1.911018e+003,2.877222e+001
1.911982e+003,2.929712e+001
1.912947e+003,2.980688e+001
1.913911e+003,3.042291e+001
1.914875e+003,3.116663e+001
1.915839e+003,3.197949e+001
1.916803e+003,3.263593e+001
1.917768e+003,3.339392e+001
1.918732e+003,3.478235e+001
1.919696e+003,3.386157e+001
1.920660e+003,2.924847e+001
1.921625e+003,2.672595e+001
1.922589e+003,2.795532e+001
1.923553e+003,3.036530e+001
1.924517e+003,3.395886e+001
1.925481e+003,3.703656e+001
1.926446e+003,3.819281e+001
1.927410e+003,3.775519e+001
1.928374e+003,3.561230e+001
1.929338e+003,3.192206e+001
1.930303e+003,2.986090e+001
1.931267e+003,3.082092e+001
1.932231e+003,3.295978e+001
1.933195e+003,3.555579e+001
1.934160e+003,3.828931e+001
1.935124e+003,4.197144e+001
1.936088e+003,4.465302e+001
1.937052e+003,4.409271e+001
1.938017e+003,4.107178e+001
1.938981e+003,3.601007e+001
1.939945e+003,3.023218e+001
1.940909e+003,2.827789e+001
1.941874e+003,3.174054e+001
1.942838e+003,3.559912e+001
1.943802e+003,3.537225e+001
1.944766e+003,3.354523e+001
1.945730e+003,3.476575e+001
1.946695e+003,3.830646e+001
1.947659e+003,3.958630e+001
1.948623e+003,3.827100e+001
1.949587e+003,3.781799e+001
1.950552e+003,3.912268e+001
1.951516e+003,3.961456e+001
1.952480e+003,3.767981e+001
1.953444e+003,3.637781e+001
1.954408e+003,3.838898e+001
1.955373e+003,4.129382e+001
1.956337e+003,4.183771e+001
1.957301e+003,4.101563e+001
1.958265e+003,4.139771e+001
1.959230e+003,4.326556e+001
1.960194e+003,4.473163e+001
1.961158e+003,4.438763e+001
1.962122e+003,4.438361e+001
1.963087e+003,4.635669e+001
1.964051e+003,4.764136e+001
1.965015e+003,4.665454e+001
1.965979e+003,4.484894e+001
1.966944e+003,4.250848e+001
1.967908e+003,4.055524e+001
1.968872e+003,4.110541e+001
1.969836e+003,4.376599e+001
1.970801e+003,4.555225e+001
1.971765e+003,4.525177e+001
1.972729e+003,4.431189e+001
1.973693e+003,4.362048e+001
1.974657e+003,4.384741e+001
1.975622e+003,4.709680e+001
1.976586e+003,5.146588e+001
1.977550e+003,5.148303e+001
1.978514e+003,4.800818e+001
1.979479e+003,4.555725e+001
1.980443e+003,4.482635e+001
1.981407e+003,4.659717e+001
1.982371e+003,5.147485e+001
1.983335e+003,5.522406e+001
1.984300e+003,5.431689e+001
1.985264e+003,5.111060e+001
1.986228e+003,4.923322e+001
1.987192e+003,4.862244e+001
1.988157e+003,4.906012e+001
1.989121e+003,5.081049e+001
1.990085e+003,5.295544e+001
1.991049e+003,5.679504e+001
1.992014e+003,5.873700e+001
1.992978e+003,5.619110e+001
1.993942e+003,5.430426e+001
1.994906e+003,5.498108e+001
1.995871e+003,5.678229e+001
1.996835e+003,5.965668e+001
1.997799e+003,6.258405e+001
1.998763e+003,6.397693e+001
1.999728e+003,6.379321e+001
