5.003444e+002,3.374518e+001
5.013087e+002,3.342474e+001
5.022729e+002,3.258386e+001
5.032371e+002,3.137775e+001
5.042014e+002,2.902667e+001
5.051656e+002,2.584570e+001
5.061298e+002,2.326837e+001
5.070941e+002,2.265277e+001
5.080583e+002,2.444214e+001
5.090225e+002,2.463849e+001
5.099868e+002,2.226074e+001
5.109510e+002,1.983972e+001
5.119152e+002,1.862726e+001
5.128795e+002,1.875189e+001
5.138437e+002,1.939685e+001
5.148079e+002,2.121863e+001
5.157722e+002,2.280396e+001
5.167364e+002,2.330621e+001
5.177006e+002,2.264044e+001
5.186649e+002,2.150177e+001
5.196291e+002,2.123389e+001
5.205933e+002,2.119592e+001
5.215576e+002,1.973383e+001
5.225218e+002,1.669873e+001
5.234860e+002,1.330542e+001
5.244503e+002,1.210876e+001
5.254145e+002,1.446271e+001
5.263787e+002,1.528314e+001
5.273430e+002,1.342773e+001
5.283072e+002,1.081958e+001
5.292714e+002,1.018542e+001
5.302357e+002,1.260071e+001
5.311999e+002,1.369043e+001
5.321641e+002,1.279779e+001
5.331284e+002,1.145953e+001
5.340926e+002,1.072815e+001
5.350568e+002,1.086139e+001
5.360211e+002,1.080627e+001
5.369853e+002,9.282898e+000
5.379495e+002,7.901855e+000
5.389138e+002,8.472107e+000
5.398780e+002,1.135358e+001
5.408422e+002,1.494031e+001
5.418065e+002,1.428967e+001
5.427707e+002,1.009857e+001
5.437349e+002,7.259094e+000
5.446992e+002,7.178955e+000
5.456634e+002,9.115051e+000
5.466276e+002,1.058539e+001
5.475919e+002,1.204462e+001
5.485561e+002,1.247223e+001
5.495203e+002,1.094470e+001
5.504846e+002,8.421631e+000
5.514488e+002,6.443054e+000
5.524130e+002,6.015808e+000
5.533773e+002,5.565369e+000
5.543415e+002,3.230896e+000
5.553057e+002,9.053345e-001
5.562700e+002,1.113525e+000
5.572342e+002,5.311584e+000
5.581984e+002,1.075067e+001
5.591627e+002,1.032800e+001
5.601269e+002,6.384155e+000
5.610911e+002,3.070496e+000
5.620554e+002,2.436890e+000
5.630196e+002,4.047119e+000
5.639838e+002,5.084229e+000
5.649481e+002,5.807190e+000
5.659123e+002,5.653748e+000
5.668765e+002,3.737427e+000
5.678408e+002,1.225037e+000
5.688050e+002,1.166260e+000
5.697692e+002,6.408264e+000
5.707335e+002,1.031946e+001
5.716977e+002,1.088062e+001
5.726619e+002,9.261597e+000
5.736262e+002,6.942749e+000
5.745904e+002,4.805237e+000
5.755546e+002,3.072021e+000
5.765189e+002,1.562317e+000
5.774831e+002,1.688843e-001
5.784473e+002,-8.388672e-001
5.794116e+002,-1.145325e+000
5.803758e+002,-5.905151e-001
5.813400e+002,3.817139e-001
5.823043e+002,2.013123e+000
5.832685e+002,2.259888e+000
5.842327e+002,-6.185303e-001
5.851970e+002,-5.637939e+000
5.861612e+002,-7.609497e+000
5.871254e+002,-2.758728e+000
5.880897e+002,1.570801e+000
5.890539e+002,3.834045e+000
5.900181e+002,4.501038e+000
5.909824e+002,4.735901e+000
5.919466e+002,5.359375e+000
5.929108e+002,5.770935e+000
5.938751e+002,5.286194e+000
5.948393e+002,4.240967e+000
5.958035e+002,3.104553e+000
5.967678e+002,2.271423e+000
5.977320e+002,1.872070e+000
5.986962e+002,2.062561e+000
5.996605e+002,2.446472e+000
6.006247e+002,2.891235e+000
6.015889e+002,3.535950e+000
6.025532e+002,4.371948e+000
6.035174e+002,4.758728e+000
6.044816e+002,4.397156e+000
6.054459e+002,3.960388e+000
6.064101e+002,3.000610e+000
6.073743e+002,2.080994e+000
6.083386e+002,2.467773e+000
6.093028e+002,5.811401e+000
6.102670e+002,8.696106e+000
6.112313e+002,8.029846e+000
6.121955e+002,5.490051e+000
6.131597e+002,3.323730e+000
6.141240e+002,3.043213e+000
6.150882e+002,3.944092e+000
6.160524e+002,3.067383e+000
6.170167e+002,8.919678e-001
6.179809e+002,-1.494812e+000
6.189451e+002,-4.209839e+000
6.199094e+002,-7.104248e+000
6.208736e+002,-7.886414e+000
6.218378e+002,-2.984741e+000
6.228021e+002,6.726074e-001
6.237663e+002,1.716309e+000
6.247305e+002,1.464172e+000
6.256948e+002,2.293030e+000
6.266590e+002,5.875977e+000
6.276232e+002,7.878174e+000
6.285875e+002,4.793091e+000
6.295517e+002,1.050415e-001
6.305159e+002,-2.601379e+000
6.314802e+002,-1.492188e+000
6.324444e+002,1.759827e+000
6.334086e+002,3.711548e+000
6.343729e+002,4.755432e+000
6.353371e+002,4.315063e+000
6.363013e+002,1.775940e+000
6.372656e+002,-2.112305e+000
6.382298e+002,-4.399658e+000
6.391940e+002,-3.981506e+000
6.401583e+002,-3.337769e+000
6.411225e+002,-9.232178e-001
6.420867e+002,1.564453e+000
6.430510e+002,1.280457e+000
6.440152e+002,-3.977478e+000
6.449794e+002,-8.118225e+000
6.459437e+002,-6.892822e+000
6.469079e+002,-4.250000e+000
6.478721e+002,-3.199768e+000
6.488364e+002,-4.668884e+000
6.498006e+002,-6.940796e+000
6.507648e+002,-7.196350e+000
6.517291e+002,-6.056458e+000
6.526933e+002,-4.661133e+000
6.536575e+002,-3.223450e+000
6.546218e+002,-1.677185e+000
6.555860e+002,2.112427e-001
6.565502e+002,3.114746e+000
6.575145e+002,4.597290e+000
6.584787e+002,4.636658e+000
6.594429e+002,3.567139e+000
6.604072e+002,6.506348e-001
6.613714e+002,-4.654175e+000
6.623356e+002,-7.207520e+000
6.632999e+002,-7.490234e-001
6.642641e+002,5.375793e+000
6.652283e+002,5.455505e+000
6.661926e+002,7.574463e-002
6.671568e+002,-5.499451e+000
6.681210e+002,-4.785889e+000
6.690853e+002,-2.542725e-001
6.700495e+002,1.404968e+000
6.710137e+002,1.828613e-001
6.719780e+002,-1.885498e+000
6.729422e+002,-2.746948e+000
6.739064e+002,-2.374268e+000
6.748707e+002,-1.415527e+000
6.758349e+002,1.302856e+000
6.767991e+002,2.999512e+000
6.777634e+002,2.351013e+000
6.787276e+002,-1.641235e-001
6.796918e+002,-2.351379e+000
6.806561e+002,-4.152527e+000
6.816203e+002,-5.161377e+000
6.825845e+002,-4.662964e+000
6.835488e+002,-3.367371e+000
6.845130e+002,-2.412964e+000
6.854772e+002,-2.644348e+000
6.864415e+002,-3.116821e+000
6.874057e+002,-1.908325e+000
6.883699e+002,9.197998e-002
6.893342e+002,1.361328e+000
6.902984e+002,1.090454e+000
6.912626e+002,-3.690186e-001
6.922269e+002,-1.227722e+000
6.931911e+002,1.984863e-001
6.941553e+002,7.763062e-001
6.951196e+002,-1.604309e+000
6.960838e+002,-4.895752e+000
6.970480e+002,-5.209900e+000
6.980123e+002,-1.531982e-001
6.989765e+002,4.277405e+000
6.999407e+002,5.638245e+000
7.009050e+002,5.428711e+000
7.018692e+002,4.639893e+000
7.028334e+002,3.644043e+000
7.037977e+002,2.114197e+000
7.047619e+002,-8.492432e-001
7.057261e+002,-4.170288e+000
7.066904e+002,-6.220337e+000
7.076546e+002,-6.739868e+000
7.086188e+002,-5.854309e+000
7.095831e+002,-3.592468e+000
7.105473e+002,8.198853e-001
7.115115e+002,3.476868e+000
7.124758e+002,3.578125e+000
7.134400e+002,2.939575e+000
7.144042e+002,2.976013e+000
7.153685e+002,3.812622e+000
7.163327e+002,3.730530e+000
7.172969e+002,9.783936e-002
7.182612e+002,-2.826172e+000
7.192254e+002,-2.638062e+000
7.201896e+002,-5.140381e-001
7.211539e+002,8.339233e-001
7.221181e+002,-9.751587e-001
7.230823e+002,-4.302002e+000
7.240466e+002,-4.325317e+000
7.250108e+002,-1.572327e+000
7.259750e+002,1.111084e+000
7.269393e+002,1.785583e+000
7.279035e+002,3.857422e-001
7.288677e+002,-9.228516e-001
7.298320e+002,-1.041504e+000
7.307962e+002,-1.174683e+000
7.317604e+002,-1.650635e+000
7.327247e+002,-2.006348e+000
7.336889e+002,-1.760742e+000
7.346531e+002,-1.077026e+000
7.356174e+002,-8.007813e-001
7.365816e+002,-1.195618e+000
7.375458e+002,-1.209534e+000
7.385101e+002,2.160645e-001
7.394743e+002,3.138123e+000
7.404385e+002,6.534546e+000
7.414028e+002,8.976135e+000
7.423670e+002,9.642517e+000
7.433312e+002,8.188049e+000
7.442955e+002,4.838074e+000
7.452597e+002,1.654907e+000
7.462239e+002,8.458252e-001
7.471882e+002,2.953247e+000
7.481524e+002,4.536499e+000
7.491166e+002,5.015381e+000
7.500809e+002,4.851074e+000
7.510451e+002,4.103027e+000
7.520093e+002,2.867188e+000
7.529736e+002,1.329956e+000
7.539378e+002,-5.034790e-001
7.549020e+002,-1.600830e+000
7.558663e+002,-1.228760e+000
7.568306e+002,9.765625e-003
7.577948e+002,1.235779e+000
7.587590e+002,1.815186e+000
7.597233e+002,1.819275e+000
7.606875e+002,2.234863e+000
7.616517e+002,3.199036e+000
7.626160e+002,3.518921e+000
7.635802e+002,2.537109e+000
7.645444e+002,1.246704e+000
7.655087e+002,1.917664e+000
7.664729e+002,6.272217e+000
7.674371e+002,8.480408e+000
7.684014e+002,6.967651e+000
7.693656e+002,4.691650e+000
7.703298e+002,3.578918e+000
7.712941e+002,3.875305e+000
7.722583e+002,4.264893e+000
7.732225e+002,3.577820e+000
7.741868e+002,2.784729e+000
7.751510e+002,2.731873e+000
7.761152e+002,3.269958e+000
7.770795e+002,3.798035e+000
7.780437e+002,3.739014e+000
7.790079e+002,3.139221e+000
7.799722e+002,3.394165e+000
7.809364e+002,4.651489e+000
7.819006e+002,5.316467e+000
7.828649e+002,4.742554e+000
7.838291e+002,3.436218e+000
7.847933e+002,2.551147e+000
7.857576e+002,1.812744e+000
7.867218e+002,1.122192e+000
7.876860e+002,2.056885e-001
7.886503e+002,5.865479e-002
7.896145e+002,2.083679e+000
7.905787e+002,6.405457e+000
7.915430e+002,1.057855e+001
7.925072e+002,1.134723e+001
7.934714e+002,1.022534e+001
7.944357e+002,8.866455e+000
7.953999e+002,7.777710e+000
7.963641e+002,7.140625e+000
7.973284e+002,7.037048e+000
7.982926e+002,7.490845e+000
7.992568e+002,8.309082e+000
8.002211e+002,9.607727e+000
8.011853e+002,9.648315e+000
8.021495e+002,7.298340e+000
8.031138e+002,3.941956e+000
8.040780e+002,3.337280e+000
8.050422e+002,7.834045e+000
8.060065e+002,1.142517e+001
8.069707e+002,1.163641e+001
8.079349e+002,1.009186e+001
8.088992e+002,8.331482e+000
8.098634e+002,7.127625e+000
8.108276e+002,6.395630e+000
8.117919e+002,5.802307e+000
8.127561e+002,4.877930e+000
8.137203e+002,3.666138e+000
8.146846e+002,2.521240e+000
8.156488e+002,1.855042e+000
8.166130e+002,1.982422e+000
8.175773e+002,2.959045e+000
8.185415e+002,3.866943e+000
8.195057e+002,3.812134e+000
8.204700e+002,4.169312e+000
8.214342e+002,6.096741e+000
8.223984e+002,8.797607e+000
8.233627e+002,9.989075e+000
8.243269e+002,8.125610e+000
8.252911e+002,6.480347e+000
8.262554e+002,7.003052e+000
8.272196e+002,8.541199e+000
8.281838e+002,9.839355e+000
8.291481e+002,1.045752e+001
8.301123e+002,1.109125e+001
8.310765e+002,1.326044e+001
8.320408e+002,1.654944e+001
8.330050e+002,1.761060e+001
8.339692e+002,1.597650e+001
8.349335e+002,1.327960e+001
8.358977e+002,1.097693e+001
8.368619e+002,9.156738e+000
8.378262e+002,8.448364e+000
8.387904e+002,8.950134e+000
8.397546e+002,9.942871e+000
8.407189e+002,1.244513e+001
8.416831e+002,1.510413e+001
8.426473e+002,1.507788e+001
8.436116e+002,1.037152e+001
8.445758e+002,6.169861e+000
8.455400e+002,8.997253e+000
8.465043e+002,1.420380e+001
8.474685e+002,1.708197e+001
8.484327e+002,1.657916e+001
8.493970e+002,1.466534e+001
8.503612e+002,1.424036e+001
8.513254e+002,1.550446e+001
8.522897e+002,1.564227e+001
8.532539e+002,1.352081e+001
8.542181e+002,1.145612e+001
8.551824e+002,1.114948e+001
8.561466e+002,1.276593e+001
8.571108e+002,1.506335e+001
8.580751e+002,1.740930e+001
8.590393e+002,1.932916e+001
8.600035e+002,2.157880e+001
8.609678e+002,2.346735e+001
8.619320e+002,2.370648e+001
8.628962e+002,2.189917e+001
8.638605e+002,1.979919e+001
8.648247e+002,2.052740e+001
8.657889e+002,2.282080e+001
8.667532e+002,2.420288e+001
8.677174e+002,2.434650e+001
8.686816e+002,2.377698e+001
8.696459e+002,2.307971e+001
8.706101e+002,2.236786e+001
8.715743e+002,2.203656e+001
8.725386e+002,2.159814e+001
8.735028e+002,2.214716e+001
8.744670e+002,2.482880e+001
8.754313e+002,2.803320e+001
8.763955e+002,2.882471e+001
8.773597e+002,2.579358e+001
8.783240e+002,2.252008e+001
8.792882e+002,2.121613e+001
8.802524e+002,2.082959e+001
8.812167e+002,2.081012e+001
8.821809e+002,2.089221e+001
8.831451e+002,2.093085e+001
8.841094e+002,2.077307e+001
8.850736e+002,2.067639e+001
8.860378e+002,2.105817e+001
8.870021e+002,2.163434e+001
8.879663e+002,2.278326e+001
8.889305e+002,2.502045e+001
8.898948e+002,2.793530e+001
8.908590e+002,2.986163e+001
8.918232e+002,3.051263e+001
8.927875e+002,3.091418e+001
8.937517e+002,3.097021e+001
8.947159e+002,3.115094e+001
8.956802e+002,3.182123e+001
8.966444e+002,3.279327e+001
8.976086e+002,3.328125e+001
8.985729e+002,3.252472e+001
8.995371e+002,3.146356e+001
9.005013e+002,3.137140e+001
9.014656e+002,3.227228e+001
9.024298e+002,3.333905e+001
9.033940e+002,3.367303e+001
9.043583e+002,3.329517e+001
9.053225e+002,3.439862e+001
9.062867e+002,3.964838e+001
9.072510e+002,4.233521e+001
9.082152e+002,4.161273e+001
9.091794e+002,3.942480e+001
9.101437e+002,3.676599e+001
9.111079e+002,3.372168e+001
9.120721e+002,3.275311e+001
9.130364e+002,3.855151e+001
9.140006e+002,4.349255e+001
9.149648e+002,4.230054e+001
9.159291e+002,3.714227e+001
9.168933e+002,3.273242e+001
9.178575e+002,3.223206e+001
9.188218e+002,3.430591e+001
9.197860e+002,3.491571e+001
9.207502e+002,3.385162e+001
9.217145e+002,3.381073e+001
9.226787e+002,3.700177e+001
9.236429e+002,4.058057e+001
9.246072e+002,3.960376e+001
9.255714e+002,3.248627e+001
9.265356e+002,2.795575e+001
9.274999e+002,2.938922e+001
9.284641e+002,3.120569e+001
9.294283e+002,3.234070e+001
9.303926e+002,3.254254e+001
9.313568e+002,3.151581e+001
9.323210e+002,2.899481e+001
9.332853e+002,2.610437e+001
9.342495e+002,2.434058e+001
9.352137e+002,2.345648e+001
9.361780e+002,2.427032e+001
9.371422e+002,2.710138e+001
9.381064e+002,2.978113e+001
9.390707e+002,2.867224e+001
9.400349e+002,2.228467e+001
9.409991e+002,2.008197e+001
9.419634e+002,2.551099e+001
9.429276e+002,2.993390e+001
9.438918e+002,3.065118e+001
9.448561e+002,2.923364e+001
9.458203e+002,2.838770e+001
9.467845e+002,2.895673e+001
9.477488e+002,3.012482e+001
9.487130e+002,3.149487e+001
9.496772e+002,3.289398e+001
9.506415e+002,3.454938e+001
9.516057e+002,3.617480e+001
9.525699e+002,3.669495e+001
9.535342e+002,3.496155e+001
9.544984e+002,3.133856e+001
9.554626e+002,3.043378e+001
9.564269e+002,3.320392e+001
9.573911e+002,3.566052e+001
9.583553e+002,3.627924e+001
9.593196e+002,3.598541e+001
9.602838e+002,3.649677e+001
9.612480e+002,3.818140e+001
9.622123e+002,3.886688e+001
9.631765e+002,3.708612e+001
9.641407e+002,3.526843e+001
9.651050e+002,3.459680e+001
9.660692e+002,3.456769e+001
9.670334e+002,3.402289e+001
9.679977e+002,3.240662e+001
9.689619e+002,3.068024e+001
9.699261e+002,3.029651e+001
9.708904e+002,3.072266e+001
9.718546e+002,3.155731e+001
9.728188e+002,3.270648e+001
9.737831e+002,3.365771e+001
9.747473e+002,3.345044e+001
9.757115e+002,3.158173e+001
9.766758e+002,3.198999e+001
9.776400e+002,3.754987e+001
9.786042e+002,4.241760e+001
9.795685e+002,4.554993e+001
9.805327e+002,4.660370e+001
9.814969e+002,4.483728e+001
9.824612e+002,4.017493e+001
9.834254e+002,3.593762e+001
9.843896e+002,3.542328e+001
9.853539e+002,3.658655e+001
9.863181e+002,3.779724e+001
9.872823e+002,3.855646e+001
9.882466e+002,3.862482e+001
9.892108e+002,3.809766e+001
9.901750e+002,3.750000e+001
9.911393e+002,3.738220e+001
9.921035e+002,3.615057e+001
9.930677e+002,3.632593e+001
9.940320e+002,3.886292e+001
9.949962e+002,4.283014e+001
9.959604e+002,4.761945e+001
9.969247e+002,5.317688e+001
9.978889e+002,5.910944e+001
9.988531e+002,6.612531e+001
9.998174e+002,7.112518e+001
1.000782e+003,7.157440e+001
1.001746e+003,6.980176e+001
1.002710e+003,6.899994e+001
1.003674e+003,7.051166e+001
1.004639e+003,7.316315e+001
1.005603e+003,7.497418e+001
1.006567e+003,7.572369e+001
1.007531e+003,7.599420e+001
1.008495e+003,7.570618e+001
1.009460e+003,7.526355e+001
1.010424e+003,7.472778e+001
1.011388e+003,7.433545e+001
1.012352e+003,7.511462e+001
1.013317e+003,7.884473e+001
1.014281e+003,7.969537e+001
1.015245e+003,7.398199e+001
1.016209e+003,6.677875e+001
1.017174e+003,6.178540e+001
1.018138e+003,5.926917e+001
1.019102e+003,5.729449e+001
1.020066e+003,5.447229e+001
1.021031e+003,5.097278e+001
1.021995e+003,4.583307e+001
1.022959e+003,3.921436e+001
1.023923e+003,3.451300e+001
1.024887e+003,3.353229e+001
1.025852e+003,3.360443e+001
1.026816e+003,2.992194e+001
1.027780e+003,2.121759e+001
1.028744e+003,1.607965e+001
1.029709e+003,1.811957e+001
1.030673e+003,2.011615e+001
1.031637e+003,1.934344e+001
1.032601e+003,1.730792e+001
1.033566e+003,1.684283e+001
1.034530e+003,1.896790e+001
1.035494e+003,2.108612e+001
1.036458e+003,1.962311e+001
1.037422e+003,1.643311e+001
1.038387e+003,1.477026e+001
1.039351e+003,1.460181e+001
1.040315e+003,1.467212e+001
1.041279e+003,1.406268e+001
1.042244e+003,1.329266e+001
1.043208e+003,1.446649e+001
1.044172e+003,1.988562e+001
1.045136e+003,2.248364e+001
1.046101e+003,2.039313e+001
1.047065e+003,1.768585e+001
1.048029e+003,1.641180e+001
1.048993e+003,1.666290e+001
1.049958e+003,1.832343e+001
1.050922e+003,2.228113e+001
1.051886e+003,2.578217e+001
1.052850e+003,2.511572e+001
1.053814e+003,2.267810e+001
1.054779e+003,2.157928e+001
1.055743e+003,2.238599e+001
1.056707e+003,2.351569e+001
1.057671e+003,2.303986e+001
1.058636e+003,2.087732e+001
1.059600e+003,1.974182e+001
1.060564e+003,2.106213e+001
1.061528e+003,2.210809e+001
1.062493e+003,2.174139e+001
1.063457e+003,2.081903e+001
1.064421e+003,2.073145e+001
1.065385e+003,2.173077e+001
1.066349e+003,2.213757e+001
1.067314e+003,2.036871e+001
1.068278e+003,1.867224e+001
1.069242e+003,1.920319e+001
1.070206e+003,2.085675e+001
1.071171e+003,2.157568e+001
1.072135e+003,2.042706e+001
1.073099e+003,1.826440e+001
1.074063e+003,1.674249e+001
1.075028e+003,1.601575e+001
1.075992e+003,1.605121e+001
1.076956e+003,1.694183e+001
1.077920e+003,1.773962e+001
1.078885e+003,1.850677e+001
1.079849e+003,1.926556e+001
1.080813e+003,1.971344e+001
1.081777e+003,1.971869e+001
1.082741e+003,2.020831e+001
1.083706e+003,2.259637e+001
1.084670e+003,2.406470e+001
1.085634e+003,2.215466e+001
1.086598e+003,1.822986e+001
1.087563e+003,1.496484e+001
1.088527e+003,1.405188e+001
1.089491e+003,1.525238e+001
1.090455e+003,1.788446e+001
1.091420e+003,2.188477e+001
1.092384e+003,2.437543e+001
1.093348e+003,2.509015e+001
1.094312e+003,2.440369e+001
1.095276e+003,2.182104e+001
1.096241e+003,1.841718e+001
1.097205e+003,1.728864e+001
1.098169e+003,1.969470e+001
1.099133e+003,2.094861e+001
1.100098e+003,1.727588e+001
1.101062e+003,1.411877e+001
1.102026e+003,1.582556e+001
1.102990e+003,2.093451e+001
1.103955e+003,2.511450e+001
1.104919e+003,2.569922e+001
1.105883e+003,2.444928e+001
1.106847e+003,2.550787e+001
1.107812e+003,2.883282e+001
1.108776e+003,3.030609e+001
1.109740e+003,2.909344e+001
1.110704e+003,2.741937e+001
1.111668e+003,2.722925e+001
1.112633e+003,2.833191e+001
1.113597e+003,2.886536e+001
1.114561e+003,2.792749e+001
1.115525e+003,2.749432e+001
1.116490e+003,2.778778e+001
1.117454e+003,2.893073e+001
1.118418e+003,3.199335e+001
1.119382e+003,3.629620e+001
1.120347e+003,3.990656e+001
1.121311e+003,4.138782e+001
1.122275e+003,4.127795e+001
1.123239e+003,4.151294e+001
1.124203e+003,4.243848e+001
1.125168e+003,4.288281e+001
1.126132e+003,4.255426e+001
1.127096e+003,4.256610e+001
1.128060e+003,4.359595e+001
1.129025e+003,4.541217e+001
1.129989e+003,4.748883e+001
1.130953e+003,4.968182e+001
1.131917e+003,5.207489e+001
1.132882e+003,5.515979e+001
1.133846e+003,5.824518e+001
1.134810e+003,6.072754e+001
1.135774e+003,6.293042e+001
1.136739e+003,6.542712e+001
1.137703e+003,6.853302e+001
1.138667e+003,7.245367e+001
1.139631e+003,7.778094e+001
1.140595e+003,8.440210e+001
1.141560e+003,9.141888e+001
1.142524e+003,9.881982e+001
1.143488e+003,1.075272e+002
1.144452e+003,1.185444e+002
1.145417e+003,1.312581e+002
1.146381e+003,1.430884e+002
1.147345e+003,1.526337e+002
1.148309e+003,1.647048e+002
1.149274e+003,1.820862e+002
1.150238e+003,2.007563e+002
1.151202e+003,2.198880e+002
1.152166e+003,2.388367e+002
1.153130e+003,2.575281e+002
1.154095e+003,2.753469e+002
1.155059e+003,2.895938e+002
1.156023e+003,2.971707e+002
1.156987e+003,2.977979e+002
1.157952e+003,2.924191e+002
1.158916e+003,2.810184e+002
1.159880e+003,2.679387e+002
1.160844e+003,2.545570e+002
1.161809e+003,2.400718e+002
1.162773e+003,2.234076e+002
1.163737e+003,2.039175e+002
1.164701e+003,1.853287e+002
1.165666e+003,1.681816e+002
1.166630e+003,1.531109e+002
1.167594e+003,1.401321e+002
1.168558e+003,1.294192e+002
1.169522e+003,1.210924e+002
1.170487e+003,1.152744e+002
1.171451e+003,1.127582e+002
1.172415e+003,1.149335e+002
1.173379e+003,1.203453e+002
1.174344e+003,1.216208e+002
1.175308e+003,1.188724e+002
1.176272e+003,1.155461e+002
1.177236e+003,1.121157e+002
1.178201e+003,1.093502e+002
1.179165e+003,1.089930e+002
1.180129e+003,1.108566e+002
1.181093e+003,1.089448e+002
1.182057e+003,9.849670e+001
1.183022e+003,8.978369e+001
1.183986e+003,8.747638e+001
1.184950e+003,8.789447e+001
1.185914e+003,8.793250e+001
1.186879e+003,8.703210e+001
1.187843e+003,8.606171e+001
1.188807e+003,8.560492e+001
1.189771e+003,8.565405e+001
1.190736e+003,8.680542e+001
1.191700e+003,8.918378e+001
1.192664e+003,9.099542e+001
1.193628e+003,9.277478e+001
1.194593e+003,9.350372e+001
1.195557e+003,9.195703e+001
1.196521e+003,8.862720e+001
1.197485e+003,8.531586e+001
1.198449e+003,8.219116e+001
1.199414e+003,7.961707e+001
1.200378e+003,7.891394e+001
1.201342e+003,7.782336e+001
1.202306e+003,7.448352e+001
1.203271e+003,6.944012e+001
1.204235e+003,6.363019e+001
1.205199e+003,5.787457e+001
1.206163e+003,5.370251e+001
1.207128e+003,5.393079e+001
1.208092e+003,5.893610e+001
1.209056e+003,6.035742e+001
1.210020e+003,5.734460e+001
1.210984e+003,5.332666e+001
1.211949e+003,4.865692e+001
1.212913e+003,4.372540e+001
1.213877e+003,3.919757e+001
1.214841e+003,3.519244e+001
1.215806e+003,3.118597e+001
1.216770e+003,2.644238e+001
1.217734e+003,2.237946e+001
1.218698e+003,2.009576e+001
1.219663e+003,1.855060e+001
1.220627e+003,1.639893e+001
1.221591e+003,1.354498e+001
1.222555e+003,1.091656e+001
1.223520e+003,9.416077e+000
1.224484e+003,9.142822e+000
1.225448e+003,9.983215e+000
1.226412e+003,1.316437e+001
1.227376e+003,1.437683e+001
1.228341e+003,1.215564e+001
1.229305e+003,9.471985e+000
1.230269e+003,7.950317e+000
1.231233e+003,7.070618e+000
1.232198e+003,5.398743e+000
1.233162e+003,2.607361e+000
1.234126e+003,1.079651e+000
1.235090e+003,3.195496e+000
1.236055e+003,6.405762e+000
1.237019e+003,8.294983e+000
1.237983e+003,8.886353e+000
1.238947e+003,8.595886e+000
1.239911e+003,7.768738e+000
1.240876e+003,6.962646e+000
1.241840e+003,6.886475e+000
1.242804e+003,7.613770e+000
1.243768e+003,8.039063e+000
1.244733e+003,7.073120e+000
1.245697e+003,7.366150e+000
1.246661e+003,1.016150e+001
1.247625e+003,1.275897e+001
1.248590e+003,1.253320e+001
1.249554e+003,1.070654e+001
1.250518e+003,1.137427e+001
1.251482e+003,1.647986e+001
1.252447e+003,2.146375e+001
1.253411e+003,2.019281e+001
1.254375e+003,1.565900e+001
1.255339e+003,1.415076e+001
1.256303e+003,1.598041e+001
1.257268e+003,1.799969e+001
1.258232e+003,1.798541e+001
1.259196e+003,1.696539e+001
1.260160e+003,1.761151e+001
1.261125e+003,2.046405e+001
1.262089e+003,2.338831e+001
1.263053e+003,2.608038e+001
1.264017e+003,2.829425e+001
1.264982e+003,3.044781e+001
1.265946e+003,3.200940e+001
1.266910e+003,3.193787e+001
1.267874e+003,3.071106e+001
1.268839e+003,3.047449e+001
1.269803e+003,3.271246e+001
1.270767e+003,3.525153e+001
1.271731e+003,3.334894e+001
1.272695e+003,2.734729e+001
1.273660e+003,2.413245e+001
1.274624e+003,2.420544e+001
1.275588e+003,2.481970e+001
1.276552e+003,2.578418e+001
1.277517e+003,2.634821e+001
1.278481e+003,2.391321e+001
1.279445e+003,1.788556e+001
1.280409e+003,1.404462e+001
1.281374e+003,1.623151e+001
1.282338e+003,1.847449e+001
1.283302e+003,1.673138e+001
1.284266e+003,1.383752e+001
1.285230e+003,1.362213e+001
1.286195e+003,1.604828e+001
1.287159e+003,1.768658e+001
1.288123e+003,1.583331e+001
1.289087e+003,1.215906e+001
1.290052e+003,1.131152e+001
1.291016e+003,1.456891e+001
1.291980e+003,1.503052e+001
1.292944e+003,1.005231e+001
1.293909e+003,5.421204e+000
1.294873e+003,3.616882e+000
1.295837e+003,3.758423e+000
1.296801e+003,4.878052e+000
1.297766e+003,6.681335e+000
1.298730e+003,8.053040e+000
1.299694e+003,7.942017e+000
1.300658e+003,7.582092e+000
1.301622e+003,9.372070e+000
1.302587e+003,1.174915e+001
1.303551e+003,1.151801e+001
1.304515e+003,8.475891e+000
1.305479e+003,5.686951e+000
1.306444e+003,5.420898e+000
1.307408e+003,7.047729e+000
1.308372e+003,9.114014e+000
1.309336e+003,1.212744e+001
1.310301e+003,1.388696e+001
1.311265e+003,1.446783e+001
1.312229e+003,1.394391e+001
1.313193e+003,1.107440e+001
1.314157e+003,7.782837e+000
1.315122e+003,6.234863e+000
1.316086e+003,6.362488e+000
1.317050e+003,6.341064e+000
1.318014e+003,5.072510e+000
1.318979e+003,3.558716e+000
1.319943e+003,3.401367e+000
1.320907e+003,4.640625e+000
1.321871e+003,6.239441e+000
1.322836e+003,8.103943e+000
1.323800e+003,9.081116e+000
1.324764e+003,8.291809e+000
1.325728e+003,6.494751e+000
1.326693e+003,4.518860e+000
1.327657e+003,2.211548e+000
1.328621e+003,8.749390e-001
1.329585e+003,1.923340e+000
1.330549e+003,3.947754e+000
1.331514e+003,5.987915e+000
1.332478e+003,7.415405e+000
1.333442e+003,7.693176e+000
1.334406e+003,7.157654e+000
1.335371e+003,6.564880e+000
1.336335e+003,6.378418e+000
1.337299e+003,6.520569e+000
1.338263e+003,6.720276e+000
1.339228e+003,6.924622e+000
1.340192e+003,7.853760e+000
1.341156e+003,1.062842e+001
1.342120e+003,1.241681e+001
1.343084e+003,1.195697e+001
1.344049e+003,1.059241e+001
1.345013e+003,9.625671e+000
1.345977e+003,9.142517e+000
1.346941e+003,8.421570e+000
1.347906e+003,7.131042e+000
1.348870e+003,6.176453e+000
1.349834e+003,6.318848e+000
1.350798e+003,7.200378e+000
1.351763e+003,8.809875e+000
1.352727e+003,1.092926e+001
1.353691e+003,1.171466e+001
1.354655e+003,1.027740e+001
1.355620e+003,8.239502e+000
1.356584e+003,7.586365e+000
1.357548e+003,8.250061e+000
1.358512e+003,8.611023e+000
1.359476e+003,7.802979e+000
1.360441e+003,7.776001e+000
1.361405e+003,1.053998e+001
1.362369e+003,1.287036e+001
1.363333e+003,1.333264e+001
1.364298e+003,1.232489e+001
1.365262e+003,9.924561e+000
1.366226e+003,6.705017e+000
1.367190e+003,4.508850e+000
1.368155e+003,5.013123e+000
1.369119e+003,7.251648e+000
1.370083e+003,8.234436e+000
1.371047e+003,7.733582e+000
1.372011e+003,7.534668e+000
1.372976e+003,6.645203e+000
1.373940e+003,6.662720e+000
1.374904e+003,9.005981e+000
1.375868e+003,1.230457e+001
1.376833e+003,1.520288e+001
1.377797e+003,1.725403e+001
1.378761e+003,1.730975e+001
1.379725e+003,1.438397e+001
1.380690e+003,1.123700e+001
1.381654e+003,1.138861e+001
1.382618e+003,1.289337e+001
1.383582e+003,1.272815e+001
1.384547e+003,1.100250e+001
1.385511e+003,1.009271e+001
1.386475e+003,1.130859e+001
1.387439e+003,1.296216e+001
1.388403e+003,1.197321e+001
1.389368e+003,8.325867e+000
1.390332e+003,7.383179e+000
1.391296e+003,1.120825e+001
1.392260e+003,1.430493e+001
1.393225e+003,1.518115e+001
1.394189e+003,1.522229e+001
1.395153e+003,1.465894e+001
1.396117e+003,1.403339e+001
1.397082e+003,1.435608e+001
1.398046e+003,1.567938e+001
1.399010e+003,1.649573e+001
1.399974e+003,1.518939e+001
1.400938e+003,1.234760e+001
1.401903e+003,1.081567e+001
1.402867e+003,1.164923e+001
1.403831e+003,1.329865e+001
1.404795e+003,1.637201e+001
1.405760e+003,1.863904e+001
1.406724e+003,1.847076e+001
1.407688e+003,1.665491e+001
1.408652e+003,1.422876e+001
1.409617e+003,1.189679e+001
1.410581e+003,1.078754e+001
1.411545e+003,1.150861e+001
1.412509e+003,1.259290e+001
1.413474e+003,1.230670e+001
1.414438e+003,1.116150e+001
1.415402e+003,1.040894e+001
1.416366e+003,1.039679e+001
1.417330e+003,1.157581e+001
1.418295e+003,1.445184e+001
1.419259e+003,1.735657e+001
1.420223e+003,1.789020e+001
1.421187e+003,1.629333e+001
1.422152e+003,1.515906e+001
1.423116e+003,1.462061e+001
1.424080e+003,1.550983e+001
1.425044e+003,2.002142e+001
1.426009e+003,2.322620e+001
1.426973e+003,2.185590e+001
1.427937e+003,1.872949e+001
1.428901e+003,1.749268e+001
1.429865e+003,1.844727e+001
1.430830e+003,1.917731e+001
1.431794e+003,1.796558e+001
1.432758e+003,1.610950e+001
1.433722e+003,1.663507e+001
1.434687e+003,2.020764e+001
1.435651e+003,2.360590e+001
1.436615e+003,2.649713e+001
1.437579e+003,2.755597e+001
1.438544e+003,2.523279e+001
1.439508e+003,2.277704e+001
1.440472e+003,2.295984e+001
1.441436e+003,2.478723e+001
1.442401e+003,2.584729e+001
1.443365e+003,2.545850e+001
1.444329e+003,2.462701e+001
1.445293e+003,2.418427e+001
1.446257e+003,2.386267e+001
1.447222e+003,2.255365e+001
1.448186e+003,2.059570e+001
1.449150e+003,2.051239e+001
1.450114e+003,2.301782e+001
1.451079e+003,2.490460e+001
1.452043e+003,2.413458e+001
1.453007e+003,2.254907e+001
1.453971e+003,2.265900e+001
1.454936e+003,2.408539e+001
1.455900e+003,2.458582e+001
1.456864e+003,2.358423e+001
1.457828e+003,2.263153e+001
1.458792e+003,2.219702e+001
1.459757e+003,2.216553e+001
1.460721e+003,2.281860e+001
1.461685e+003,2.371594e+001
1.462649e+003,2.404608e+001
1.463614e+003,2.375269e+001
1.464578e+003,2.347192e+001
1.465542e+003,2.367645e+001
1.466506e+003,2.402496e+001
1.467471e+003,2.392480e+001
1.468435e+003,2.373218e+001
1.469399e+003,2.313434e+001
1.470363e+003,2.022412e+001
1.471328e+003,1.889508e+001
1.472292e+003,2.088043e+001
1.473256e+003,2.321490e+001
1.474220e+003,2.461780e+001
1.475184e+003,2.513068e+001
1.476149e+003,2.465405e+001
1.477113e+003,2.319086e+001
1.478077e+003,2.137524e+001
1.479041e+003,2.002020e+001
1.480006e+003,1.978430e+001
1.480970e+003,2.246869e+001
1.481934e+003,2.927344e+001
1.482898e+003,3.223285e+001
1.483863e+003,2.775470e+001
1.484827e+003,2.476740e+001
1.485791e+003,2.752454e+001
1.486755e+003,3.161401e+001
1.487719e+003,3.228925e+001
1.488684e+003,3.050616e+001
1.489648e+003,3.019800e+001
1.490612e+003,3.277686e+001
1.491576e+003,3.664111e+001
1.492541e+003,4.050586e+001
1.493505e+003,4.437360e+001
1.494469e+003,4.835736e+001
1.495433e+003,5.211450e+001
1.496398e+003,5.571503e+001
1.497362e+003,5.961926e+001
1.498326e+003,6.366718e+001
1.499290e+003,6.794287e+001
1.500255e+003,7.207037e+001
1.501219e+003,7.462512e+001
1.502183e+003,7.613257e+001
1.503147e+003,7.991644e+001
1.504111e+003,8.656921e+001
1.505076e+003,9.635645e+001
1.506040e+003,1.117714e+002
1.507004e+003,1.281229e+002
1.507968e+003,1.392673e+002
1.508933e+003,1.482422e+002
1.509897e+003,1.617253e+002
1.510861e+003,1.813252e+002
1.511825e+003,2.030125e+002
1.512790e+003,2.237543e+002
1.513754e+003,2.441838e+002
1.514718e+003,2.659249e+002
1.515682e+003,2.886526e+002
1.516646e+003,3.125187e+002
1.517611e+003,3.392702e+002
1.518575e+003,3.639402e+002
1.519539e+003,3.886865e+002
1.520503e+003,4.077546e+002
1.521468e+003,4.165739e+002
1.522432e+003,4.181735e+002
1.523396e+003,4.164607e+002
1.524360e+003,4.123533e+002
1.525325e+003,4.051171e+002
1.526289e+003,3.943836e+002
1.527253e+003,3.805427e+002
1.528217e+003,3.639647e+002
1.529182e+003,3.449163e+002
1.530146e+003,3.241563e+002
1.531110e+003,3.016263e+002
1.532074e+003,2.766652e+002
1.533039e+003,2.466803e+002
1.534003e+003,2.161442e+002
1.534967e+003,1.864039e+002
1.535931e+003,1.589037e+002
1.536896e+003,1.343856e+002
1.537860e+003,1.133871e+002
1.538824e+003,9.695178e+001
1.539788e+003,8.523450e+001
1.540752e+003,7.563623e+001
1.541717e+003,6.484589e+001
1.542681e+003,5.369891e+001
1.543645e+003,4.628296e+001
1.544609e+003,4.452325e+001
1.545573e+003,4.275684e+001
1.546538e+003,3.990216e+001
1.547502e+003,3.750842e+001
1.548466e+003,3.658014e+001
1.549430e+003,3.685028e+001
1.550395e+003,3.891998e+001
1.551359e+003,4.137219e+001
1.552323e+003,4.057068e+001
1.553287e+003,3.549945e+001
1.554252e+003,2.975549e+001
1.555216e+003,2.638171e+001
1.556180e+003,2.460242e+001
1.557144e+003,2.277051e+001
1.558109e+003,2.101489e+001
1.559073e+003,1.943701e+001
1.560037e+003,1.698694e+001
1.561001e+003,1.589771e+001
1.561966e+003,1.854370e+001
1.562930e+003,2.221301e+001
1.563894e+003,2.446576e+001
1.564858e+003,2.531830e+001
1.565823e+003,2.527185e+001
1.566787e+003,2.442383e+001
1.567751e+003,2.283325e+001
1.568715e+003,2.024854e+001
1.569679e+003,1.823792e+001
1.570644e+003,1.905310e+001
1.571608e+003,2.157471e+001
1.572572e+003,2.326636e+001
1.573536e+003,2.426654e+001
1.574500e+003,2.468793e+001
1.575465e+003,2.398755e+001
1.576429e+003,2.335730e+001
1.577393e+003,2.377417e+001
1.578357e+003,2.471094e+001
1.579322e+003,2.558087e+001
1.580286e+003,2.637512e+001
1.581250e+003,2.643335e+001
1.582214e+003,2.535254e+001
1.583179e+003,2.421021e+001
1.584143e+003,2.380865e+001
1.585107e+003,2.341522e+001
1.586071e+003,2.244391e+001
1.587036e+003,2.132416e+001
1.588000e+003,2.005780e+001
1.588964e+003,1.832306e+001
1.589928e+003,1.759625e+001
1.590893e+003,1.952240e+001
1.591857e+003,2.247931e+001
1.592821e+003,2.390894e+001
1.593785e+003,2.417676e+001
1.594750e+003,2.508197e+001
1.595714e+003,2.673187e+001
1.596678e+003,2.877698e+001
1.597642e+003,3.156451e+001
1.598606e+003,3.407288e+001
1.599571e+003,3.606946e+001
1.600535e+003,3.721637e+001
1.601499e+003,3.623932e+001
1.602463e+003,3.357703e+001
1.603427e+003,3.217139e+001
1.604392e+003,3.344769e+001
1.605356e+003,3.454596e+001
1.606320e+003,3.187238e+001
1.607284e+003,2.703693e+001
1.608249e+003,2.494769e+001
1.609213e+003,2.574060e+001
1.610177e+003,2.510242e+001
1.611141e+003,2.144244e+001
1.612106e+003,1.855426e+001
1.613070e+003,1.904871e+001
1.614034e+003,2.022888e+001
1.614998e+003,2.013898e+001
1.615963e+003,1.942780e+001
1.616927e+003,1.886963e+001
1.617891e+003,1.875964e+001
1.618855e+003,2.039001e+001
1.619820e+003,2.493054e+001
1.620784e+003,2.851636e+001
1.621748e+003,2.436902e+001
1.622712e+003,1.476935e+001
1.623677e+003,1.214337e+001
1.624641e+003,1.800836e+001
1.625605e+003,2.262018e+001
1.626569e+003,2.278833e+001
1.627533e+003,2.169806e+001
1.628498e+003,2.127997e+001
1.629462e+003,2.075488e+001
1.630426e+003,1.876630e+001
1.631390e+003,1.614539e+001
1.632354e+003,1.483966e+001
1.633319e+003,1.525293e+001
1.634283e+003,1.635364e+001
1.635247e+003,1.738519e+001
1.636211e+003,1.844690e+001
1.637176e+003,2.024921e+001
1.638140e+003,2.278809e+001
1.639104e+003,2.371375e+001
1.640068e+003,2.234192e+001
1.641033e+003,2.114636e+001
1.641997e+003,2.089752e+001
1.642961e+003,2.103674e+001
1.643925e+003,2.085925e+001
1.644890e+003,2.115179e+001
1.645854e+003,2.356653e+001
1.646818e+003,2.688293e+001
1.647782e+003,2.778156e+001
1.648747e+003,2.535693e+001
1.649711e+003,2.231311e+001
1.650675e+003,2.080847e+001
1.651639e+003,2.088965e+001
1.652604e+003,2.275470e+001
1.653568e+003,2.613910e+001
1.654532e+003,2.822632e+001
1.655496e+003,2.865295e+001
1.656460e+003,2.862592e+001
1.657425e+003,2.931787e+001
1.658389e+003,2.868726e+001
1.659353e+003,2.401086e+001
1.660317e+003,1.872772e+001
1.661281e+003,1.687378e+001
1.662246e+003,1.760663e+001
1.663210e+003,1.752521e+001
1.664174e+003,1.565686e+001
1.665138e+003,1.417792e+001
1.666103e+003,1.503955e+001
1.667067e+003,1.686841e+001
1.668031e+003,1.693219e+001
1.668995e+003,1.545447e+001
1.669960e+003,1.466406e+001
1.670924e+003,1.486584e+001
1.671888e+003,1.564948e+001
1.672852e+003,1.832544e+001
1.673817e+003,1.907001e+001
1.674781e+003,1.271295e+001
1.675745e+003,5.270447e+000
1.676709e+003,4.117615e+000
1.677674e+003,7.795044e+000
1.678638e+003,1.014819e+001
1.679602e+003,9.276062e+000
1.680566e+003,7.937622e+000
1.681531e+003,8.261475e+000
1.682495e+003,9.784058e+000
1.683459e+003,1.223096e+001
1.684423e+003,1.493225e+001
1.685387e+003,1.412201e+001
1.686352e+003,9.019714e+000
1.687316e+003,4.951416e+000
1.688280e+003,3.711487e+000
1.689244e+003,3.644958e+000
1.690208e+003,3.097656e+000
1.691173e+003,3.273682e+000
1.692137e+003,6.960571e+000
1.693101e+003,1.287720e+001
1.694065e+003,1.589014e+001
1.695030e+003,1.439056e+001
1.695994e+003,1.205072e+001
1.696958e+003,1.083618e+001
1.697922e+003,1.063428e+001
1.698887e+003,1.199384e+001
1.699851e+003,1.421271e+001
1.700815e+003,1.453790e+001
1.701779e+003,1.264734e+001
1.702744e+003,1.136969e+001
1.703708e+003,1.212769e+001
1.704672e+003,1.292627e+001
1.705636e+003,1.171588e+001
1.706601e+003,9.490784e+000
1.707565e+003,8.185486e+000
1.708529e+003,7.768616e+000
1.709493e+003,7.423279e+000
1.710458e+003,6.959900e+000
1.711422e+003,7.013550e+000
1.712386e+003,8.969727e+000
1.713350e+003,1.067273e+001
1.714314e+003,9.351990e+000
1.715279e+003,6.691284e+000
1.716243e+003,6.136597e+000
1.717207e+003,7.406616e+000
1.718171e+003,7.524109e+000
1.719135e+003,5.735535e+000
1.720100e+003,3.923157e+000
1.721064e+003,3.081787e+000
1.722028e+003,3.115967e+000
1.722992e+003,4.469910e+000
1.723957e+003,7.126953e+000
1.724921e+003,9.493774e+000
1.725885e+003,1.152606e+001
1.726849e+003,1.055164e+001
1.727814e+003,2.919861e+000
1.728778e+003,-2.270569e+000
1.729742e+003,6.910400e-001
1.730706e+003,5.972412e+000
1.731671e+003,7.980835e+000
1.732635e+003,7.174866e+000
1.733599e+003,6.110962e+000
1.734563e+003,5.600403e+000
1.735528e+003,4.961609e+000
1.736492e+003,3.689758e+000
1.737456e+003,1.962524e+000
1.738420e+003,-1.423340e-001
1.739385e+003,-2.410522e+000
1.740349e+003,-3.024658e+000
1.741313e+003,-1.192932e+000
1.742277e+003,-5.851440e-001
1.743241e+003,-2.728638e+000
1.744206e+003,-3.145203e+000
1.745170e+003,3.740845e-001
1.746134e+003,3.516479e+000
1.747098e+003,3.139587e+000
1.748063e+003,1.624329e+000
1.749027e+003,2.111816e+000
1.749991e+003,4.180054e+000
1.750955e+003,5.455750e+000
1.751919e+003,5.111633e+000
1.752884e+003,4.293152e+000
1.753848e+003,3.952332e+000
1.754812e+003,3.575439e+000
1.755776e+003,2.242676e+000
1.756741e+003,2.705078e-001
1.757705e+003,-6.696777e-001
1.758669e+003,-4.358521e-001
1.759633e+003,-3.381958e-001
1.760598e+003,-1.377319e+000
1.761562e+003,-1.741943e+000
1.762526e+003,5.418701e-001
1.763490e+003,2.765625e+000
1.764455e+003,2.472107e+000
1.765419e+003,1.206421e+000
1.766383e+003,1.385803e+000
1.767347e+003,3.039185e+000
1.768312e+003,5.091431e+000
1.769276e+003,6.999634e+000
1.770240e+003,7.135986e+000
1.771204e+003,3.539856e+000
1.772168e+003,-1.831787e+000
1.773133e+003,-5.397461e+000
1.774097e+003,-7.242432e+000
1.775061e+003,-7.863220e+000
1.776025e+003,-7.458740e+000
1.776990e+003,-7.090759e+000
1.777954e+003,-7.181458e+000
1.778918e+003,-6.141602e+000
1.779882e+003,-1.679749e+000
1.780846e+003,3.076721e+000
1.781811e+003,3.819153e+000
1.782775e+003,1.712830e+000
1.783739e+003,3.441772e-001
1.784703e+003,3.544312e-001
1.785668e+003,6.318970e-001
1.786632e+003,7.052612e-001
1.787596e+003,1.774292e-001
1.788560e+003,-1.359680e+000
1.789525e+003,-2.785400e+000
1.790489e+003,-2.685913e+000
1.791453e+003,-1.633362e+000
1.792417e+003,-1.370300e+000
1.793382e+003,-2.116638e+000
1.794346e+003,-2.167114e+000
1.795310e+003,-5.890503e-001
1.796274e+003,1.048340e+000
1.797239e+003,1.010864e+000
1.798203e+003,3.975220e-001
1.799167e+003,1.833801e+000
1.800131e+003,5.462158e+000
1.801095e+003,5.735352e+000
1.802060e+003,-2.264404e-002
1.803024e+003,-3.319641e+000
1.803988e+003,-2.011841e+000
1.804952e+003,-1.755981e-001
1.805917e+003,6.171875e-001
1.806881e+003,6.945190e-001
1.807845e+003,4.306030e-001
1.808809e+003,7.635498e-002
1.809773e+003,-8.496094e-002
1.810738e+003,-9.039307e-002
1.811702e+003,-5.119629e-001
1.812666e+003,-1.710144e+000
1.813630e+003,-2.869568e+000
1.814595e+003,-2.933838e+000
1.815559e+003,-2.067078e+000
1.816523e+003,-2.025146e-001
1.817487e+003,2.963623e+000
1.818452e+003,4.363220e+000
1.819416e+003,3.690979e+000
1.820380e+003,2.515930e+000
1.821344e+003,-2.288818e-002
1.822309e+003,-1.755798e+000
1.823273e+003,3.018188e-001
1.824237e+003,2.843262e+000
1.825201e+003,1.369934e+000
1.826166e+003,-2.539795e+000
1.827130e+003,-3.981018e+000
1.828094e+003,-2.262024e+000
1.829058e+003,-5.863647e-001
1.830022e+003,-3.989868e-001
1.830987e+003,-3.166504e-001
1.831951e+003,1.299805e+000
1.832915e+003,3.156616e+000
1.833879e+003,3.002258e+000
1.834844e+003,1.457825e+000
1.835808e+003,6.926270e-001
1.836772e+003,1.033997e+000
1.837736e+003,1.607483e+000
1.838700e+003,1.938110e+000
1.839665e+003,8.856812e-001
1.840629e+003,-2.967285e+000
1.841593e+003,-7.235840e+000
1.842557e+003,-6.768250e+000
1.843522e+003,-1.667175e+000
1.844486e+003,1.490234e+000
1.845450e+003,1.924072e+000
1.846414e+003,2.623474e+000
1.847379e+003,4.014282e+000
1.848343e+003,4.052002e+000
1.849307e+003,3.861694e-001
1.850271e+003,-2.653503e+000
1.851236e+003,-5.999146e-001
1.852200e+003,3.459351e+000
1.853164e+003,4.571838e+000
1.854128e+003,2.613953e+000
1.855093e+003,7.398071e-001
1.856057e+003,3.903198e-001
1.857021e+003,1.308594e-001
1.857985e+003,-1.496521e+000
1.858949e+003,-3.491333e+000
1.859914e+003,-3.893555e+000
1.860878e+003,-2.909546e+000
1.861842e+003,-2.274963e+000
1.862806e+003,-2.124512e+000
1.863771e+003,-1.100952e+000
1.864735e+003,1.480042e+000
1.865699e+003,1.903015e+000
1.866663e+003,-2.745972e+000
1.867627e+003,-6.960632e+000
1.868592e+003,-5.244629e+000
1.869556e+003,-8.595581e-001
1.870520e+003,6.008911e-001
1.871484e+003,-5.306396e-001
1.872449e+003,-1.889099e+000
1.873413e+003,-2.504333e+000
1.874377e+003,-2.758301e+000
1.875341e+003,-3.911499e+000
1.876306e+003,-4.756348e+000
1.877270e+003,-4.629761e+000
1.878234e+003,-4.094604e+000
1.879198e+003,-3.809937e+000
1.880163e+003,-3.281921e+000
1.881127e+003,-5.064697e-001
1.882091e+003,3.618591e+000
1.883055e+003,4.465271e+000
1.884020e+003,4.353638e-001
1.884984e+003,-4.274353e+000
1.885948e+003,-5.869934e+000
1.886912e+003,-5.082703e+000
1.887876e+003,-2.860168e+000
1.888841e+003,5.072021e-001
1.889805e+003,1.320190e-001
1.890769e+003,-5.439819e+000
1.891733e+003,-6.416748e+000
1.892698e+003,5.368042e-001
1.893662e+003,5.572815e+000
1.894626e+003,4.536438e+000
1.895590e+003,1.928406e+000
1.896554e+003,1.978760e-001
1.897519e+003,-6.078491e-001
1.898483e+003,-2.818604e-001
1.899447e+003,5.498047e-001
1.900411e+003,6.563110e-001
1.901376e+003,-8.612061e-002
1.902340e+003,-8.765869e-001
1.903304e+003,-1.618225e+000
1.904268e+003,-2.139771e+000
1.905233e+003,-2.201416e+000
1.906197e+003,-1.891418e+000
1.907161e+003,-1.197144e+000
1.908125e+003,-1.268921e-001
1.909090e+003,1.082458e+000
1.910054e+003,2.251587e+000
1.911018e+003,3.761169e+000
1.911982e+003,5.682617e+000
1.912947e+003,6.465088e+000
1.913911e+003,4.880676e+000
1.914875e+003,2.904541e+000
1.915839e+003,3.640381e+000
1.916803e+003,6.179321e+000
1.917768e+003,6.898438e+000
1.918732e+003,5.550659e+000
1.919696e+003,5.619812e+000
1.920660e+003,8.279663e+000
1.921625e+003,9.601929e+000
1.922589e+003,7.552307e+000
1.923553e+003,5.531799e+000
1.924517e+003,5.608398e+000
1.925481e+003,6.322449e+000
1.926446e+003,6.851257e+000
1.927410e+003,6.945374e+000
1.928374e+003,5.504883e+000
1.929338e+003,2.567627e+000
1.930303e+003,1.323303e+000
1.931267e+003,3.578186e+000
1.932231e+003,5.816833e+000
1.933195e+003,6.309204e+000
1.934160e+003,5.770508e+000
1.935124e+003,4.164124e+000
1.936088e+003,2.098328e+000
1.937052e+003,6.323242e-002
1.938017e+003,-1.250916e+000
1.938981e+003,-4.154053e-001
1.939945e+003,2.155762e+000
1.940909e+003,4.152588e+000
1.941874e+003,4.404297e+000
1.942838e+003,3.227051e+000
1.943802e+003,1.055420e+000
1.944766e+003,-8.739014e-001
1.945730e+003,-5.007324e-001
1.946695e+003,1.648926e+000
1.947659e+003,3.045044e+000
1.948623e+003,3.615051e+000
1.949587e+003,3.285278e+000
1.950552e+003,1.964844e+000
1.951516e+003,7.341309e-001
1.952480e+003,-1.864624e-001
1.953444e+003,-6.925049e-001
1.954408e+003,-7.544556e-001
1.955373e+003,-6.912842e-001
1.956337e+003,-7.115479e-001
1.957301e+003,-3.780518e-001
1.958265e+003,1.105286e+000
1.959230e+003,4.090088e+000
1.960194e+003,5.645569e+000
1.961158e+003,3.212158e+000
1.962122e+003,1.599609e+000
1.963087e+003,3.497192e+000
1.964051e+003,4.912720e+000
1.965015e+003,2.837463e+000
1.965979e+003,3.778687e-001
1.966944e+003,6.387329e-001
1.967908e+003,2.486694e+000
1.968872e+003,4.027527e+000
1.969836e+003,4.657532e+000
1.970801e+003,3.688782e+000
1.971765e+003,1.041626e+000
1.972729e+003,-9.176636e-001
1.973693e+003,-1.185913e-001
1.974657e+003,2.106079e+000
1.975622e+003,4.492249e+000
1.976586e+003,6.269104e+000
1.977550e+003,5.112000e+000
1.978514e+003,1.690186e+000
1.979479e+003,-1.176636e+000
1.980443e+003,-2.988770e+000
1.981407e+003,-1.722778e+000
1.982371e+003,3.700134e+000
1.983335e+003,8.484192e+000
1.984300e+003,8.713928e+000
1.985264e+003,6.804993e+000
1.986228e+003,6.684570e+000
1.987192e+003,7.818909e+000
1.988157e+003,7.328857e+000
1.989121e+003,4.600281e+000
1.990085e+003,4.207092e+000
1.991049e+003,8.513733e+000
1.992014e+003,1.072437e+001
1.992978e+003,8.232239e+000
1.993942e+003,5.647766e+000
1.994906e+003,3.962158e+000
1.995871e+003,3.347534e+000
1.996835e+003,4.926575e+000
1.997799e+003,7.266724e+000
1.998763e+003,7.735046e+000
1.999728e+003,6.648804e+000
