5.003444e+002,4.572174e+001
5.013087e+002,4.459744e+001
5.022729e+002,4.209525e+001
5.032371e+002,3.927817e+001
5.042014e+002,3.924045e+001
5.051656e+002,4.153494e+001
5.061298e+002,4.365002e+001
5.070941e+002,4.316382e+001
5.080583e+002,3.925433e+001
5.090225e+002,3.682922e+001
5.099868e+002,3.571646e+001
5.109510e+002,3.564252e+001
5.119152e+002,3.718250e+001
5.128795e+002,4.052567e+001
5.138437e+002,4.244116e+001
5.148079e+002,4.073401e+001
5.157722e+002,3.849814e+001
5.167364e+002,3.674393e+001
5.177006e+002,3.564902e+001
5.186649e+002,3.473163e+001
5.196291e+002,3.348761e+001
5.205933e+002,3.244403e+001
5.215576e+002,3.191064e+001
5.225218e+002,3.181445e+001
5.234860e+002,3.211304e+001
5.244503e+002,3.298795e+001
5.254145e+002,3.504172e+001
5.263787e+002,3.527209e+001
5.273430e+002,3.219293e+001
5.283072e+002,2.829446e+001
5.292714e+002,2.713638e+001
5.302357e+002,3.019980e+001
5.311999e+002,3.244522e+001
5.321641e+002,3.356757e+001
5.331284e+002,3.399756e+001
5.340926e+002,3.387030e+001
5.350568e+002,3.311874e+001
5.360211e+002,3.193726e+001
5.369853e+002,3.040366e+001
5.379495e+002,2.897778e+001
5.389138e+002,2.794904e+001
5.398780e+002,2.741833e+001
5.408422e+002,2.732788e+001
5.418065e+002,2.784824e+001
5.427707e+002,2.884930e+001
5.437349e+002,2.930994e+001
5.446992e+002,2.878604e+001
5.456634e+002,2.759421e+001
5.466276e+002,2.693857e+001
5.475919e+002,2.831543e+001
5.485561e+002,2.839023e+001
5.495203e+002,2.589655e+001
5.504846e+002,2.228629e+001
5.514488e+002,1.976971e+001
5.524130e+002,1.962219e+001
5.533773e+002,1.977679e+001
5.543415e+002,1.902774e+001
5.553057e+002,1.798596e+001
5.562700e+002,1.719394e+001
5.572342e+002,1.696564e+001
5.581984e+002,1.717661e+001
5.591627e+002,1.802136e+001
5.601269e+002,1.924161e+001
5.610911e+002,1.999289e+001
5.620554e+002,1.977228e+001
5.630196e+002,1.861688e+001
5.639838e+002,1.740567e+001
5.649481e+002,1.594128e+001
5.659123e+002,1.472229e+001
5.668765e+002,1.392926e+001
5.678408e+002,1.365921e+001
5.688050e+002,1.404922e+001
5.697692e+002,1.603024e+001
5.707335e+002,1.682401e+001
5.716977e+002,1.509186e+001
5.726619e+002,1.206802e+001
5.736262e+002,9.159882e+000
5.745904e+002,7.180084e+000
5.755546e+002,6.484222e+000
5.765189e+002,7.539795e+000
5.774831e+002,9.638153e+000
5.784473e+002,1.207538e+001
5.794116e+002,1.441983e+001
5.803758e+002,1.665198e+001
5.813400e+002,1.669885e+001
5.823043e+002,1.364117e+001
5.832685e+002,1.089572e+001
5.842327e+002,9.566833e+000
5.851970e+002,9.690765e+000
5.861612e+002,1.086469e+001
5.871254e+002,1.510760e+001
5.880897e+002,1.786099e+001
5.890539e+002,1.728171e+001
5.900181e+002,1.472015e+001
5.909824e+002,1.252911e+001
5.919466e+002,1.229919e+001
5.929108e+002,1.279431e+001
5.938751e+002,1.300861e+001
5.948393e+002,1.276199e+001
5.958035e+002,1.136801e+001
5.967678e+002,8.398285e+000
5.977320e+002,4.490997e+000
5.986962e+002,5.036285e+000
5.996605e+002,9.910797e+000
6.006247e+002,1.392807e+001
6.015889e+002,1.446548e+001
6.025532e+002,1.177747e+001
6.035174e+002,9.521576e+000
6.044816e+002,7.349792e+000
6.054459e+002,6.194641e+000
6.064101e+002,6.713959e+000
6.073743e+002,8.260529e+000
6.083386e+002,9.844788e+000
6.093028e+002,1.129663e+001
6.102670e+002,1.200201e+001
6.112313e+002,1.125064e+001
6.121955e+002,9.738281e+000
6.131597e+002,8.310272e+000
6.141240e+002,7.545654e+000
6.150882e+002,7.293884e+000
6.160524e+002,7.088898e+000
6.170167e+002,6.998901e+000
6.179809e+002,6.948120e+000
6.189451e+002,6.934418e+000
6.199094e+002,6.807007e+000
6.208736e+002,5.989502e+000
6.218378e+002,3.223175e+000
6.228021e+002,1.576904e+000
6.237663e+002,1.517090e+000
6.247305e+002,2.741394e+000
6.256948e+002,5.006836e+000
6.266590e+002,9.004303e+000
6.276232e+002,1.175159e+001
6.285875e+002,1.122061e+001
6.295517e+002,9.240540e+000
6.305159e+002,7.504028e+000
6.314802e+002,6.926361e+000
6.324444e+002,7.054657e+000
6.334086e+002,7.041595e+000
6.343729e+002,7.031403e+000
6.353371e+002,7.035950e+000
6.363013e+002,7.018463e+000
6.372656e+002,6.936615e+000
6.382298e+002,6.774445e+000
6.391940e+002,6.433136e+000
6.401583e+002,6.007080e+000
6.411225e+002,5.748077e+000
6.420867e+002,5.609650e+000
6.430510e+002,5.377045e+000
6.440152e+002,4.793549e+000
6.449794e+002,4.228363e+000
6.459437e+002,3.995453e+000
6.469079e+002,3.790588e+000
6.478721e+002,3.392487e+000
6.488364e+002,2.772888e+000
6.498006e+002,2.120850e+000
6.507648e+002,1.418060e+000
6.517291e+002,9.088440e-001
6.526933e+002,1.819763e+000
6.536575e+002,4.498413e+000
6.546218e+002,7.390991e+000
6.555860e+002,7.345856e+000
6.565502e+002,1.611664e+000
6.575145e+002,-1.081635e+000
6.584787e+002,1.238281e+000
6.594429e+002,4.606476e+000
6.604072e+002,5.779968e+000
6.613714e+002,4.107727e+000
6.623356e+002,2.668579e+000
6.632999e+002,3.308136e+000
6.642641e+002,4.025818e+000
6.652283e+002,3.613953e+000
6.661926e+002,2.281860e+000
6.671568e+002,1.365204e+000
6.681210e+002,2.722992e+000
6.690853e+002,5.193024e+000
6.700495e+002,5.836487e+000
6.710137e+002,4.674591e+000
6.719780e+002,2.841553e+000
6.729422e+002,1.438477e+000
6.739064e+002,3.917847e-001
6.748707e+002,6.671143e-002
6.758349e+002,9.669495e-001
6.767991e+002,1.721191e+000
6.777634e+002,1.685150e+000
6.787276e+002,1.092804e+000
6.796918e+002,1.017700e+000
6.806561e+002,1.810272e+000
6.816203e+002,3.034302e+000
6.825845e+002,5.283600e+000
6.835488e+002,7.699951e+000
6.845130e+002,8.872803e+000
6.854772e+002,7.674683e+000
6.864415e+002,5.337708e+000
6.874057e+002,4.339111e+000
6.883699e+002,4.189880e+000
6.893342e+002,4.203857e+000
6.902984e+002,4.073029e+000
6.912626e+002,3.845612e+000
6.922269e+002,3.520172e+000
6.931911e+002,3.585266e+000
6.941553e+002,3.298981e+000
6.951196e+002,1.839081e+000
6.960838e+002,-3.085327e-002
6.970480e+002,-8.730774e-001
6.980123e+002,1.100769e-001
6.989765e+002,1.095795e+000
6.999407e+002,1.086639e+000
7.009050e+002,8.612976e-001
7.018692e+002,1.261688e+000
7.028334e+002,2.423431e+000
7.037977e+002,3.367767e+000
7.047619e+002,2.076996e+000
7.057261e+002,-2.217712e-001
7.066904e+002,-1.014435e+000
7.076546e+002,8.810425e-002
7.086188e+002,1.759399e+000
7.095831e+002,1.809906e+000
7.105473e+002,-8.002930e-001
7.115115e+002,-1.954315e+000
7.124758e+002,-9.309387e-001
7.134400e+002,3.976746e-001
7.144042e+002,7.815247e-001
7.153685e+002,2.680664e-001
7.163327e+002,4.802856e-001
7.172969e+002,3.411438e+000
7.182612e+002,6.110016e+000
7.192254e+002,7.213440e+000
7.201896e+002,7.021759e+000
7.211539e+002,6.445343e+000
7.221181e+002,6.240845e+000
7.230823e+002,6.189758e+000
7.240466e+002,5.616272e+000
7.250108e+002,4.773193e+000
7.259750e+002,4.181885e+000
7.269393e+002,4.040802e+000
7.279035e+002,4.118042e+000
7.288677e+002,3.813080e+000
7.298320e+002,3.726257e+000
7.307962e+002,3.056427e+000
7.317604e+002,7.055359e-001
7.327247e+002,-1.814697e+000
7.336889e+002,-2.294952e+000
7.346531e+002,1.508789e-001
7.356174e+002,2.582428e+000
7.365816e+002,4.484375e+000
7.375458e+002,5.497437e+000
7.385101e+002,4.736572e+000
7.394743e+002,2.330505e+000
7.404385e+002,-3.485718e-001
7.414028e+002,-1.247284e+000
7.423670e+002,-9.166260e-001
7.433312e+002,-8.751526e-001
7.442955e+002,-1.021118e+000
7.452597e+002,-8.628845e-001
7.462239e+002,1.218567e-001
7.471882e+002,2.112915e+000
7.481524e+002,3.835236e+000
7.491166e+002,5.679871e+000
7.500809e+002,6.460083e+000
7.510451e+002,5.089142e+000
7.520093e+002,2.177917e+000
7.529736e+002,-1.884155e-001
7.539378e+002,-8.426514e-001
7.549020e+002,-5.039978e-001
7.558663e+002,4.954224e-001
7.568306e+002,1.892212e+000
7.577948e+002,3.495880e+000
7.587590e+002,5.086670e+000
7.597233e+002,6.307892e+000
7.606875e+002,6.114258e+000
7.616517e+002,4.806641e+000
7.626160e+002,3.712799e+000
7.635802e+002,3.157440e+000
7.645444e+002,3.065796e+000
7.655087e+002,3.392487e+000
7.664729e+002,4.766083e+000
7.674371e+002,4.947174e+000
7.684014e+002,3.058868e+000
7.693656e+002,8.346863e-001
7.703298e+002,-1.037445e+000
7.712941e+002,-2.261200e+000
7.722583e+002,-2.154602e+000
7.732225e+002,8.950500e-001
7.741868e+002,4.499542e+000
7.751510e+002,6.863831e+000
7.761152e+002,8.134338e+000
7.770795e+002,9.185242e+000
7.780437e+002,1.077448e+001
7.790079e+002,1.260434e+001
7.799722e+002,1.204407e+001
7.809364e+002,9.042328e+000
7.819006e+002,5.938416e+000
7.828649e+002,3.037415e+000
7.838291e+002,8.231506e-001
7.847933e+002,9.800415e-001
7.857576e+002,5.899384e+000
7.867218e+002,8.650208e+000
7.876860e+002,7.047974e+000
7.886503e+002,4.145630e+000
7.896145e+002,2.095703e+000
7.905787e+002,1.590210e+000
7.915430e+002,2.343262e+000
7.925072e+002,5.208801e+000
7.934714e+002,8.188660e+000
7.944357e+002,9.034180e+000
7.953999e+002,7.886261e+000
7.963641e+002,6.074249e+000
7.973284e+002,4.962189e+000
7.982926e+002,4.534546e+000
7.992568e+002,5.725159e+000
8.002211e+002,9.773956e+000
8.011853e+002,1.228873e+001
8.021495e+002,1.104758e+001
8.031138e+002,7.333801e+000
8.040780e+002,5.124634e+000
8.050422e+002,5.857483e+000
8.060065e+002,6.507904e+000
8.069707e+002,5.522003e+000
8.079349e+002,4.121765e+000
8.088992e+002,3.695679e+000
8.098634e+002,4.741058e+000
8.108276e+002,6.410645e+000
8.117919e+002,7.692047e+000
8.127561e+002,8.188538e+000
8.137203e+002,7.270416e+000
8.146846e+002,5.083832e+000
8.156488e+002,3.027924e+000
8.166130e+002,2.755920e+000
8.175773e+002,4.559906e+000
8.185415e+002,6.167664e+000
8.195057e+002,7.762238e+000
8.204700e+002,8.714996e+000
8.214342e+002,8.476532e+000
8.223984e+002,7.437500e+000
8.233627e+002,6.611450e+000
8.243269e+002,6.399231e+000
8.252911e+002,6.484009e+000
8.262554e+002,6.637939e+000
8.272196e+002,6.879761e+000
8.281838e+002,7.404053e+000
8.291481e+002,8.159821e+000
8.301123e+002,8.652618e+000
8.310765e+002,7.891052e+000
8.320408e+002,5.918457e+000
8.330050e+002,4.298920e+000
8.339692e+002,3.146393e+000
8.349335e+002,2.388824e+000
8.358977e+002,2.044891e+000
8.368619e+002,2.222809e+000
8.378262e+002,2.691772e+000
8.387904e+002,3.179413e+000
8.397546e+002,4.009766e+000
8.407189e+002,6.069489e+000
8.416831e+002,8.369629e+000
8.426473e+002,8.956146e+000
8.436116e+002,6.584595e+000
8.445758e+002,4.073456e+000
8.455400e+002,4.698883e+000
8.465043e+002,6.419128e+000
8.474685e+002,7.288269e+000
8.484327e+002,6.838654e+000
8.493970e+002,5.638763e+000
8.503612e+002,4.381256e+000
8.513254e+002,2.877930e+000
8.522897e+002,2.604370e+000
8.532539e+002,3.920593e+000
8.542181e+002,5.597015e+000
8.551824e+002,7.367981e+000
8.561466e+002,9.307098e+000
8.571108e+002,1.071201e+001
8.580751e+002,1.041031e+001
8.590393e+002,1.009009e+001
8.600035e+002,1.039185e+001
8.609678e+002,1.118353e+001
8.619320e+002,1.234766e+001
8.628962e+002,1.377182e+001
8.638605e+002,1.521588e+001
8.648247e+002,1.656693e+001
8.657889e+002,1.751996e+001
8.667532e+002,1.719266e+001
8.677174e+002,1.547485e+001
8.686816e+002,1.358261e+001
8.696459e+002,1.301593e+001
8.706101e+002,1.411426e+001
8.715743e+002,1.465991e+001
8.725386e+002,1.350485e+001
8.735028e+002,1.331485e+001
8.744670e+002,1.545862e+001
8.754313e+002,1.863925e+001
8.763955e+002,2.043842e+001
8.773597e+002,1.981949e+001
8.783240e+002,1.897003e+001
8.792882e+002,1.952194e+001
8.802524e+002,2.043268e+001
8.812167e+002,2.101022e+001
8.821809e+002,2.100189e+001
8.831451e+002,2.026370e+001
8.841094e+002,1.849713e+001
8.850736e+002,1.600598e+001
8.860378e+002,1.606833e+001
8.870021e+002,1.910849e+001
8.879663e+002,2.236844e+001
8.889305e+002,2.481760e+001
8.898948e+002,2.627087e+001
8.908590e+002,2.573901e+001
8.918232e+002,2.102823e+001
8.927875e+002,1.819485e+001
8.937517e+002,1.932022e+001
8.947159e+002,2.198978e+001
8.956802e+002,2.437708e+001
8.966444e+002,2.585162e+001
8.976086e+002,2.671002e+001
8.985729e+002,2.729587e+001
8.995371e+002,2.768250e+001
9.005013e+002,2.762985e+001
9.014656e+002,2.735660e+001
9.024298e+002,2.767001e+001
9.033940e+002,2.920819e+001
9.043583e+002,3.153531e+001
9.053225e+002,3.216260e+001
9.062867e+002,2.829205e+001
9.072510e+002,2.614377e+001
9.082152e+002,2.745331e+001
9.091794e+002,2.984357e+001
9.101437e+002,3.095074e+001
9.111079e+002,3.038049e+001
9.120721e+002,2.945023e+001
9.130364e+002,2.836212e+001
9.140006e+002,2.733005e+001
9.149648e+002,2.599365e+001
9.159291e+002,2.509647e+001
9.168933e+002,2.648373e+001
9.178575e+002,3.127530e+001
9.188218e+002,3.744641e+001
9.197860e+002,3.743774e+001
9.207502e+002,3.102655e+001
9.217145e+002,2.629471e+001
9.226787e+002,2.550818e+001
9.236429e+002,2.665363e+001
9.246072e+002,2.705347e+001
9.255714e+002,2.647595e+001
9.265356e+002,2.573807e+001
9.274999e+002,2.431708e+001
9.284641e+002,2.333167e+001
9.294283e+002,2.348264e+001
9.303926e+002,2.440741e+001
9.313568e+002,2.558279e+001
9.323210e+002,2.678827e+001
9.332853e+002,2.746912e+001
9.342495e+002,2.574841e+001
9.352137e+002,2.306366e+001
9.361780e+002,2.222565e+001
9.371422e+002,2.390634e+001
9.381064e+002,2.591425e+001
9.390707e+002,2.487079e+001
9.400349e+002,1.971945e+001
9.409991e+002,1.764069e+001
9.419634e+002,2.116675e+001
9.429276e+002,2.399066e+001
9.438918e+002,2.448819e+001
9.448561e+002,2.331796e+001
9.458203e+002,2.138000e+001
9.467845e+002,1.866754e+001
9.477488e+002,1.670685e+001
9.487130e+002,1.676782e+001
9.496772e+002,1.787192e+001
9.506415e+002,2.012625e+001
9.516057e+002,2.290186e+001
9.525699e+002,2.456519e+001
9.535342e+002,2.347641e+001
9.544984e+002,1.995364e+001
9.554626e+002,1.713028e+001
9.564269e+002,1.502203e+001
9.573911e+002,1.405328e+001
9.583553e+002,1.490906e+001
9.593196e+002,1.664462e+001
9.602838e+002,1.785611e+001
9.612480e+002,1.847766e+001
9.622123e+002,1.835156e+001
9.631765e+002,1.716867e+001
9.641407e+002,1.563403e+001
9.651050e+002,1.331439e+001
9.660692e+002,1.088696e+001
9.670334e+002,9.689575e+000
9.679977e+002,1.065253e+001
9.689619e+002,1.305618e+001
9.699261e+002,1.559607e+001
9.708904e+002,1.798776e+001
9.718546e+002,1.942197e+001
9.728188e+002,1.946796e+001
9.737831e+002,1.929388e+001
9.747473e+002,2.093484e+001
9.757115e+002,2.517639e+001
9.766758e+002,2.718491e+001
9.776400e+002,2.530093e+001
9.786042e+002,2.346039e+001
9.795685e+002,2.277823e+001
9.805327e+002,2.235150e+001
9.814969e+002,2.061029e+001
9.824612e+002,1.712170e+001
9.834254e+002,1.423141e+001
9.843896e+002,1.534097e+001
9.853539e+002,1.734644e+001
9.863181e+002,1.663828e+001
9.872823e+002,1.328564e+001
9.882466e+002,9.412445e+000
9.892108e+002,6.930603e+000
9.901750e+002,5.986572e+000
9.911393e+002,6.246033e+000
9.921035e+002,8.939453e+000
9.930677e+002,9.921753e+000
9.940320e+002,7.753998e+000
9.949962e+002,5.107819e+000
9.959604e+002,4.666138e+000
9.969247e+002,6.558319e+000
9.978889e+002,8.144165e+000
9.988531e+002,7.267853e+000
9.998174e+002,6.523895e+000
1.000782e+003,8.497009e+000
1.001746e+003,1.151773e+001
1.002710e+003,1.270889e+001
1.003674e+003,1.098270e+001
1.004639e+003,8.245056e+000
1.005603e+003,7.998932e+000
1.006567e+003,1.047781e+001
1.007531e+003,1.099496e+001
1.008495e+003,8.791534e+000
1.009460e+003,6.330383e+000
1.010424e+003,5.037292e+000
1.011388e+003,4.732513e+000
1.012352e+003,4.578400e+000
1.013317e+003,4.384644e+000
1.014281e+003,4.378113e+000
1.015245e+003,4.460388e+000
1.016209e+003,4.688568e+000
1.017174e+003,5.754730e+000
1.018138e+003,7.184540e+000
1.019102e+003,7.207764e+000
1.020066e+003,4.158783e+000
1.021031e+003,-3.096008e-001
1.021995e+003,-1.411346e+000
1.022959e+003,2.774048e-002
1.023923e+003,1.287903e+000
1.024887e+003,1.414703e+000
1.025852e+003,1.018951e+000
1.026816e+003,1.203278e+000
1.027780e+003,2.279968e+000
1.028744e+003,3.024750e+000
1.029709e+003,3.449463e+000
1.030673e+003,3.354431e+000
1.031637e+003,2.109222e+000
1.032601e+003,4.385376e-001
1.033566e+003,-6.286621e-001
1.034530e+003,-6.918945e-001
1.035494e+003,-1.646729e-001
1.036458e+003,1.034790e+000
1.037422e+003,2.024048e+000
1.038387e+003,7.828064e-001
1.039351e+003,-2.426483e+000
1.040315e+003,-4.754913e+000
1.041279e+003,-3.863159e+000
1.042244e+003,-4.868469e-001
1.043208e+003,1.416199e+000
1.044172e+003,6.495056e-001
1.045136e+003,1.220703e-002
1.046101e+003,-3.248596e-001
1.047065e+003,-4.830322e-001
1.048029e+003,-4.515381e-001
1.048993e+003,-3.653564e-001
1.049958e+003,-6.242371e-001
1.050922e+003,-1.598633e+000
1.051886e+003,-2.210419e+000
1.052850e+003,-1.229462e+000
1.053814e+003,5.915222e-001
1.054779e+003,2.767273e+000
1.055743e+003,4.929260e+000
1.056707e+003,6.055481e+000
1.057671e+003,4.819061e+000
1.058636e+003,1.168060e+000
1.059600e+003,-1.151459e+000
1.060564e+003,-1.129517e+000
1.061528e+003,-9.577026e-001
1.062493e+003,-1.257690e+000
1.063457e+003,-1.589600e+000
1.064421e+003,-1.235077e+000
1.065385e+003,-7.321167e-002
1.066349e+003,1.003479e+000
1.067314e+003,1.593903e+000
1.068278e+003,1.901001e+000
1.069242e+003,2.312500e+000
1.070206e+003,2.579926e+000
1.071171e+003,1.926697e+000
1.072135e+003,1.308594e-001
1.073099e+003,-1.784546e+000
1.074063e+003,-1.904816e+000
1.075028e+003,6.924438e-002
1.075992e+003,8.251038e-001
1.076956e+003,-6.578979e-001
1.077920e+003,-1.688324e+000
1.078885e+003,-7.994995e-001
1.079849e+003,1.212036e+000
1.080813e+003,3.078278e+000
1.081777e+003,4.855865e+000
1.082741e+003,5.394745e+000
1.083706e+003,2.150909e+000
1.084670e+003,-1.149841e+000
1.085634e+003,-2.184753e+000
1.086598e+003,-1.688080e+000
1.087563e+003,-1.372498e+000
1.088527e+003,-2.125549e+000
1.089491e+003,-3.326111e+000
1.090455e+003,-4.031372e+000
1.091420e+003,-4.297119e+000
1.092384e+003,-3.944336e+000
1.093348e+003,-2.779633e+000
1.094312e+003,-1.589264e+000
1.095276e+003,-7.976379e-001
1.096241e+003,-1.517334e-001
1.097205e+003,1.096649e+000
1.098169e+003,3.623505e+000
1.099133e+003,4.643951e+000
1.100098e+003,1.955627e+000
1.101062e+003,-1.210205e+000
1.102026e+003,-3.143066e+000
1.102990e+003,-3.784607e+000
1.103955e+003,-3.652161e+000
1.104919e+003,-3.111633e+000
1.105883e+003,-2.350098e+000
1.106847e+003,-1.629669e+000
1.107812e+003,-9.904480e-001
1.108776e+003,-6.154480e-001
1.109740e+003,-4.826965e-001
1.110704e+003,-6.684875e-001
1.111668e+003,-1.382629e+000
1.112633e+003,-2.325745e+000
1.113597e+003,-2.536194e+000
1.114561e+003,-1.769958e+000
1.115525e+003,-9.122925e-001
1.116490e+003,-1.127014e-001
1.117454e+003,5.149841e-001
1.118418e+003,1.227814e+000
1.119382e+003,1.848389e+000
1.120347e+003,1.701691e+000
1.121311e+003,2.586975e-001
1.122275e+003,-1.957306e+000
1.123239e+003,-3.651703e+000
1.124203e+003,-4.580719e+000
1.125168e+003,-4.486176e+000
1.126132e+003,-2.905182e+000
1.127096e+003,-1.313354e+000
1.128060e+003,-1.131500e+000
1.129025e+003,-2.047974e+000
1.129989e+003,-2.206757e+000
1.130953e+003,-9.150696e-001
1.131917e+003,-3.637085e-001
1.132882e+003,-1.754272e+000
1.133846e+003,-3.219330e+000
1.134810e+003,-3.717499e+000
1.135774e+003,-3.290466e+000
1.136739e+003,-2.364532e+000
1.137703e+003,-1.205566e+000
1.138667e+003,1.031494e-001
1.139631e+003,1.625763e+000
1.140595e+003,3.185669e+000
1.141560e+003,3.839874e+000
1.142524e+003,3.528809e+000
1.143488e+003,2.791962e+000
1.144452e+003,1.308838e+000
1.145417e+003,-4.030457e-001
1.146381e+003,-1.565552e-001
1.147345e+003,2.859680e+000
1.148309e+003,5.601654e+000
1.149274e+003,6.880829e+000
1.150238e+003,8.281891e+000
1.151202e+003,1.073904e+001
1.152166e+003,1.401205e+001
1.153130e+003,1.777921e+001
1.154095e+003,2.164725e+001
1.155059e+003,2.445966e+001
1.156023e+003,2.464160e+001
1.156987e+003,2.240732e+001
1.157952e+003,1.960959e+001
1.158916e+003,1.622046e+001
1.159880e+003,1.367966e+001
1.160844e+003,1.303992e+001
1.161809e+003,1.327231e+001
1.162773e+003,1.236963e+001
1.163737e+003,1.015137e+001
1.164701e+003,7.700165e+000
1.165666e+003,4.515533e+000
1.166630e+003,2.128571e+000
1.167594e+003,1.567566e+000
1.168558e+003,1.939392e+000
1.169522e+003,2.066772e+000
1.170487e+003,1.587219e+000
1.171451e+003,1.031616e+000
1.172415e+003,9.914246e-001
1.173379e+003,1.291809e+000
1.174344e+003,1.228027e+000
1.175308e+003,8.577576e-001
1.176272e+003,3.491516e-001
1.177236e+003,-6.025391e-001
1.178201e+003,-1.304230e+000
1.179165e+003,-5.363464e-001
1.180129e+003,1.637543e+000
1.181093e+003,2.435547e+000
1.182057e+003,2.626343e-001
1.183022e+003,-1.694611e+000
1.183986e+003,-2.146393e+000
1.184950e+003,-1.902710e+000
1.185914e+003,-1.587952e+000
1.186879e+003,-1.360138e+000
1.187843e+003,-1.070587e+000
1.188807e+003,-6.227722e-001
1.189771e+003,-3.489685e-001
1.190736e+003,-1.253540e+000
1.191700e+003,-3.516357e+000
1.192664e+003,-5.219360e+000
1.193628e+003,-5.899963e+000
1.194593e+003,-6.213623e+000
1.195557e+003,-6.559998e+000
1.196521e+003,-6.959778e+000
1.197485e+003,-7.557190e+000
1.198449e+003,-8.659790e+000
1.199414e+003,-8.957306e+000
1.200378e+003,-6.960510e+000
1.201342e+003,-4.769775e+000
1.202306e+003,-3.223785e+000
1.203271e+003,-2.731506e+000
1.204235e+003,-4.094910e+000
1.205199e+003,-7.449005e+000
1.206163e+003,-1.118954e+001
1.207128e+003,-1.263699e+001
1.208092e+003,-1.164194e+001
1.209056e+003,-1.056128e+001
1.210020e+003,-9.055939e+000
1.210984e+003,-8.109009e+000
1.211949e+003,-8.384399e+000
1.212913e+003,-9.184723e+000
1.213877e+003,-9.533661e+000
1.214841e+003,-9.334015e+000
1.215806e+003,-9.227509e+000
1.216770e+003,-9.440002e+000
1.217734e+003,-9.922058e+000
1.218698e+003,-1.106671e+001
1.219663e+003,-1.228119e+001
1.220627e+003,-1.270538e+001
1.221591e+003,-1.227744e+001
1.222555e+003,-1.163193e+001
1.223520e+003,-1.132642e+001
1.224484e+003,-1.122073e+001
1.225448e+003,-1.087863e+001
1.226412e+003,-9.470306e+000
1.227376e+003,-1.000281e+001
1.228341e+003,-1.521967e+001
1.229305e+003,-1.933830e+001
1.230269e+003,-1.782883e+001
1.231233e+003,-1.339038e+001
1.232198e+003,-1.212216e+001
1.233162e+003,-1.571576e+001
1.234126e+003,-1.865817e+001
1.235090e+003,-1.602554e+001
1.236055e+003,-1.191541e+001
1.237019e+003,-1.053687e+001
1.237983e+003,-1.144070e+001
1.238947e+003,-1.324045e+001
1.239911e+003,-1.525928e+001
1.240876e+003,-1.686511e+001
1.241840e+003,-1.711349e+001
1.242804e+003,-1.591675e+001
1.243768e+003,-1.487457e+001
1.244733e+003,-1.415002e+001
1.245697e+003,-1.335974e+001
1.246661e+003,-1.227405e+001
1.247625e+003,-1.154611e+001
1.248590e+003,-1.181308e+001
1.249554e+003,-1.269791e+001
1.250518e+003,-1.329623e+001
1.251482e+003,-1.329111e+001
1.252447e+003,-1.281491e+001
1.253411e+003,-1.124463e+001
1.254375e+003,-9.505157e+000
1.255339e+003,-1.013965e+001
1.256303e+003,-1.305096e+001
1.257268e+003,-1.522086e+001
1.258232e+003,-1.482153e+001
1.259196e+003,-1.316367e+001
1.260160e+003,-1.297708e+001
1.261125e+003,-1.464252e+001
1.262089e+003,-1.462030e+001
1.263053e+003,-1.041092e+001
1.264017e+003,-7.432648e+000
1.264982e+003,-7.363464e+000
1.265946e+003,-8.657959e+000
1.266910e+003,-1.018494e+001
1.267874e+003,-1.155829e+001
1.268839e+003,-1.274130e+001
1.269803e+003,-1.370145e+001
1.270767e+003,-1.426450e+001
1.271731e+003,-1.396512e+001
1.272695e+003,-1.275131e+001
1.273660e+003,-1.155402e+001
1.274624e+003,-1.030038e+001
1.275588e+003,-9.903412e+000
1.276552e+003,-1.122552e+001
1.277517e+003,-1.334335e+001
1.278481e+003,-1.476050e+001
1.279445e+003,-1.542938e+001
1.280409e+003,-1.558841e+001
1.281374e+003,-1.486752e+001
1.282338e+003,-1.418539e+001
1.283302e+003,-1.408142e+001
1.284266e+003,-1.426770e+001
1.285230e+003,-1.465698e+001
1.286195e+003,-1.503873e+001
1.287159e+003,-1.478894e+001
1.288123e+003,-1.333484e+001
1.289087e+003,-1.106497e+001
1.290052e+003,-9.399384e+000
1.291016e+003,-8.420929e+000
1.291980e+003,-8.304199e+000
1.292944e+003,-9.451172e+000
1.293909e+003,-1.107916e+001
1.294873e+003,-1.317371e+001
1.295837e+003,-1.520578e+001
1.296801e+003,-1.655469e+001
1.297766e+003,-1.712729e+001
1.298730e+003,-1.715558e+001
1.299694e+003,-1.683820e+001
1.300658e+003,-1.603830e+001
1.301622e+003,-1.378537e+001
1.302587e+003,-1.117404e+001
1.303551e+003,-1.043683e+001
1.304515e+003,-1.172940e+001
1.305479e+003,-1.272910e+001
1.306444e+003,-1.147141e+001
1.307408e+003,-8.878723e+000
1.308372e+003,-8.025269e+000
1.309336e+003,-9.695801e+000
1.310301e+003,-1.072696e+001
1.311265e+003,-1.013098e+001
1.312229e+003,-9.766632e+000
1.313193e+003,-1.076373e+001
1.314157e+003,-1.191998e+001
1.315122e+003,-1.179544e+001
1.316086e+003,-1.044168e+001
1.317050e+003,-8.888733e+000
1.318014e+003,-7.684814e+000
1.318979e+003,-7.178741e+000
1.319943e+003,-8.601990e+000
1.320907e+003,-1.151242e+001
1.321871e+003,-1.230316e+001
1.322836e+003,-1.029855e+001
1.323800e+003,-8.752228e+000
1.324764e+003,-9.873901e+000
1.325728e+003,-1.222052e+001
1.326693e+003,-1.347144e+001
1.327657e+003,-1.362155e+001
1.328621e+003,-1.330099e+001
1.329585e+003,-1.195288e+001
1.330549e+003,-1.060974e+001
1.331514e+003,-1.005344e+001
1.332478e+003,-1.009662e+001
1.333442e+003,-1.081891e+001
1.334406e+003,-1.180228e+001
1.335371e+003,-1.202240e+001
1.336335e+003,-1.090512e+001
1.337299e+003,-9.304443e+000
1.338263e+003,-8.904327e+000
1.339228e+003,-9.838470e+000
1.340192e+003,-1.067935e+001
1.341156e+003,-1.183350e+001
1.342120e+003,-1.233237e+001
1.343084e+003,-1.209348e+001
1.344049e+003,-1.133817e+001
1.345013e+003,-9.435608e+000
1.345977e+003,-7.027039e+000
1.346941e+003,-6.219971e+000
1.347906e+003,-7.856964e+000
1.348870e+003,-9.933044e+000
1.349834e+003,-1.062695e+001
1.350798e+003,-1.065192e+001
1.351763e+003,-1.140698e+001
1.352727e+003,-1.270248e+001
1.353691e+003,-1.368805e+001
1.354655e+003,-1.415729e+001
1.355620e+003,-1.381726e+001
1.356584e+003,-1.169904e+001
1.357548e+003,-8.104126e+000
1.358512e+003,-6.299591e+000
1.359476e+003,-7.132629e+000
1.360441e+003,-8.304871e+000
1.361405e+003,-9.892517e+000
1.362369e+003,-1.082910e+001
1.363333e+003,-9.680481e+000
1.364298e+003,-7.967072e+000
1.365262e+003,-8.156677e+000
1.366226e+003,-1.050668e+001
1.367190e+003,-1.285599e+001
1.368155e+003,-1.327963e+001
1.369119e+003,-1.226691e+001
1.370083e+003,-1.128766e+001
1.371047e+003,-1.025974e+001
1.372011e+003,-9.317993e+000
1.372976e+003,-8.390167e+000
1.373940e+003,-7.925293e+000
1.374904e+003,-8.446198e+000
1.375868e+003,-9.171265e+000
1.376833e+003,-9.071289e+000
1.377797e+003,-8.195526e+000
1.378761e+003,-7.332153e+000
1.379725e+003,-6.621185e+000
1.380690e+003,-6.517395e+000
1.381654e+003,-8.782501e+000
1.382618e+003,-1.122736e+001
1.383582e+003,-9.851746e+000
1.384547e+003,-5.136383e+000
1.385511e+003,-2.011292e+000
1.386475e+003,-3.245178e+000
1.387439e+003,-6.421173e+000
1.388403e+003,-7.861694e+000
1.389368e+003,-7.585876e+000
1.390332e+003,-7.649200e+000
1.391296e+003,-8.035278e+000
1.392260e+003,-8.745392e+000
1.393225e+003,-1.044058e+001
1.394189e+003,-1.179044e+001
1.395153e+003,-1.198254e+001
1.396117e+003,-1.133646e+001
1.397082e+003,-1.014825e+001
1.398046e+003,-8.689575e+000
1.399010e+003,-7.601166e+000
1.399974e+003,-7.582764e+000
1.400938e+003,-8.309570e+000
1.401903e+003,-8.247131e+000
1.402867e+003,-6.611328e+000
1.403831e+003,-6.094574e+000
1.404795e+003,-8.605957e+000
1.405760e+003,-9.976135e+000
1.406724e+003,-7.774902e+000
1.407688e+003,-4.836945e+000
1.408652e+003,-4.460938e+000
1.409617e+003,-6.335144e+000
1.410581e+003,-7.788055e+000
1.411545e+003,-7.709412e+000
1.412509e+003,-7.369354e+000
1.413474e+003,-8.469421e+000
1.414438e+003,-9.970184e+000
1.415402e+003,-9.650391e+000
1.416366e+003,-7.651428e+000
1.417330e+003,-5.754303e+000
1.418295e+003,-4.623474e+000
1.419259e+003,-3.905212e+000
1.420223e+003,-3.049133e+000
1.421187e+003,-2.328369e+000
1.422152e+003,-3.256622e+000
1.423116e+003,-6.593506e+000
1.424080e+003,-8.635132e+000
1.425044e+003,-7.368256e+000
1.426009e+003,-5.929657e+000
1.426973e+003,-5.524902e+000
1.427937e+003,-5.719849e+000
1.428901e+003,-6.049591e+000
1.429865e+003,-6.251587e+000
1.430830e+003,-6.114136e+000
1.431794e+003,-5.565155e+000
1.432758e+003,-4.795258e+000
1.433722e+003,-3.987244e+000
1.434687e+003,-2.913910e+000
1.435651e+003,-2.034821e+000
1.436615e+003,-1.307526e+000
1.437579e+003,-1.786926e+000
1.438544e+003,-4.706207e+000
1.439508e+003,-7.568207e+000
1.440472e+003,-8.762573e+000
1.441436e+003,-8.490570e+000
1.442401e+003,-7.009399e+000
1.443365e+003,-4.684723e+000
1.444329e+003,-3.403961e+000
1.445293e+003,-4.859802e+000
1.446257e+003,-7.138885e+000
1.447222e+003,-6.291901e+000
1.448186e+003,-2.998779e+000
1.449150e+003,-7.467346e-001
1.450114e+003,2.197571e-001
1.451079e+003,-2.159424e-001
1.452043e+003,-3.404510e+000
1.453007e+003,-6.950470e+000
1.453971e+003,-7.208862e+000
1.454936e+003,-4.659271e+000
1.455900e+003,-2.661255e+000
1.456864e+003,-1.635712e+000
1.457828e+003,-1.930115e+000
1.458792e+003,-5.705872e+000
1.459757e+003,-9.297333e+000
1.460721e+003,-9.098938e+000
1.461685e+003,-6.560974e+000
1.462649e+003,-4.722931e+000
1.463614e+003,-4.350433e+000
1.464578e+003,-4.374695e+000
1.465542e+003,-3.952972e+000
1.466506e+003,-3.248413e+000
1.467471e+003,-2.508240e+000
1.468435e+003,-1.488434e+000
1.469399e+003,-8.384705e-001
1.470363e+003,-1.253784e+000
1.471328e+003,-1.445557e+000
1.472292e+003,-6.890259e-001
1.473256e+003,-3.047791e-001
1.474220e+003,-1.080841e+000
1.475184e+003,-2.710144e+000
1.476149e+003,-4.991302e+000
1.477113e+003,-7.660126e+000
1.478077e+003,-9.794525e+000
1.479041e+003,-1.037979e+001
1.480006e+003,-9.520477e+000
1.480970e+003,-7.718781e+000
1.481934e+003,-4.588623e+000
1.482898e+003,-2.864349e+000
1.483863e+003,-3.185760e+000
1.484827e+003,-3.909637e+000
1.485791e+003,-4.920929e+000
1.486755e+003,-5.661560e+000
1.487719e+003,-5.783966e+000
1.488684e+003,-5.343109e+000
1.489648e+003,-4.367798e+000
1.490612e+003,-2.817535e+000
1.491576e+003,-8.469543e-001
1.492541e+003,1.713196e+000
1.493505e+003,3.939545e+000
1.494469e+003,3.005402e+000
1.495433e+003,-5.393982e-001
1.496398e+003,-2.084015e+000
1.497362e+003,-2.194214e-001
1.498326e+003,1.608032e+000
1.499290e+003,1.250427e+000
1.500255e+003,6.637573e-002
1.501219e+003,-5.532837e-001
1.502183e+003,-4.744263e-001
1.503147e+003,1.197296e+000
1.504111e+003,5.010315e+000
1.505076e+003,8.593689e+000
1.506040e+003,1.047516e+001
1.507004e+003,1.164249e+001
1.507968e+003,1.314313e+001
1.508933e+003,1.473761e+001
1.509897e+003,1.597394e+001
1.510861e+003,1.691248e+001
1.511825e+003,1.778864e+001
1.512790e+003,1.839233e+001
1.513754e+003,1.918158e+001
1.514718e+003,2.138165e+001
1.515682e+003,2.490158e+001
1.516646e+003,2.826343e+001
1.517611e+003,3.177872e+001
1.518575e+003,3.454831e+001
1.519539e+003,3.612466e+001
1.520503e+003,3.726712e+001
1.521468e+003,3.841418e+001
1.522432e+003,3.919876e+001
1.523396e+003,3.899109e+001
1.524360e+003,3.781366e+001
1.525325e+003,3.627924e+001
1.526289e+003,3.483307e+001
1.527253e+003,3.344183e+001
1.528217e+003,3.204788e+001
1.529182e+003,3.073907e+001
1.530146e+003,2.879477e+001
1.531110e+003,2.527975e+001
1.532074e+003,2.276468e+001
1.533039e+003,2.195380e+001
1.534003e+003,2.088922e+001
1.534967e+003,1.907071e+001
1.535931e+003,1.675183e+001
1.536896e+003,1.380225e+001
1.537860e+003,1.064392e+001
1.538824e+003,8.414093e+000
1.539788e+003,7.558350e+000
1.540752e+003,6.789825e+000
1.541717e+003,4.401154e+000
1.542681e+003,1.006897e+000
1.543645e+003,2.030334e-001
1.544609e+003,3.975800e+000
1.545573e+003,5.597595e+000
1.546538e+003,2.885559e+000
1.547502e+003,5.605164e-001
1.548466e+003,4.521790e-001
1.549430e+003,1.785767e+000
1.550395e+003,4.606720e+000
1.551359e+003,7.800659e+000
1.552323e+003,8.776398e+000
1.553287e+003,6.744293e+000
1.554252e+003,3.499207e+000
1.555216e+003,2.506714e-001
1.556180e+003,-2.227295e+000
1.557144e+003,-1.511200e+000
1.558109e+003,2.576263e+000
1.559073e+003,4.465881e+000
1.560037e+003,2.952332e+000
1.561001e+003,1.073456e+000
1.561966e+003,-5.165100e-001
1.562930e+003,-1.349243e+000
1.563894e+003,-8.665466e-001
1.564858e+003,4.979553e-001
1.565823e+003,1.951385e+000
1.566787e+003,3.272400e+000
1.567751e+003,4.148651e+000
1.568715e+003,4.395172e+000
1.569679e+003,4.336731e+000
1.570644e+003,4.359741e+000
1.571608e+003,4.219604e+000
1.572572e+003,3.303802e+000
1.573536e+003,1.660522e+000
1.574500e+003,7.536011e-001
1.575465e+003,1.318268e+000
1.576429e+003,2.234253e+000
1.577393e+003,2.085602e+000
1.578357e+003,1.786316e+000
1.579322e+003,3.989929e+000
1.580286e+003,8.563049e+000
1.581250e+003,1.102200e+001
1.582214e+003,9.583923e+000
1.583179e+003,7.351532e+000
1.584143e+003,6.260315e+000
1.585107e+003,5.757507e+000
1.586071e+003,5.324982e+000
1.587036e+003,5.081726e+000
1.588000e+003,4.844299e+000
1.588964e+003,4.438965e+000
1.589928e+003,4.453491e+000
1.590893e+003,5.830353e+000
1.591857e+003,7.364319e+000
1.592821e+003,6.609375e+000
1.593785e+003,4.214203e+000
1.594750e+003,4.315582e+000
1.595714e+003,7.932922e+000
1.596678e+003,1.005841e+001
1.597642e+003,7.402679e+000
1.598606e+003,4.608032e+000
1.599571e+003,6.052643e+000
1.600535e+003,9.248505e+000
1.601499e+003,1.099554e+001
1.602463e+003,1.121600e+001
1.603427e+003,1.145709e+001
1.604392e+003,1.241791e+001
1.605356e+003,1.310522e+001
1.606320e+003,1.223416e+001
1.607284e+003,1.041946e+001
1.608249e+003,9.350769e+000
1.609213e+003,9.047729e+000
1.610177e+003,9.066101e+000
1.611141e+003,9.296722e+000
1.612106e+003,9.951904e+000
1.613070e+003,1.206882e+001
1.614034e+003,1.373990e+001
1.614998e+003,1.323770e+001
1.615963e+003,1.147232e+001
1.616927e+003,9.719910e+000
1.617891e+003,8.324677e+000
1.618855e+003,7.666565e+000
1.619820e+003,7.989075e+000
1.620784e+003,8.625397e+000
1.621748e+003,8.840576e+000
1.622712e+003,8.917023e+000
1.623677e+003,9.381927e+000
1.624641e+003,1.026123e+001
1.625605e+003,1.153455e+001
1.626569e+003,1.314658e+001
1.627533e+003,1.450336e+001
1.628498e+003,1.567776e+001
1.629462e+003,1.652011e+001
1.630426e+003,1.684647e+001
1.631390e+003,1.667441e+001
1.632354e+003,1.597049e+001
1.633319e+003,1.478592e+001
1.634283e+003,1.348788e+001
1.635247e+003,1.214819e+001
1.636211e+003,1.137149e+001
1.637176e+003,1.283414e+001
1.638140e+003,1.636798e+001
1.639104e+003,1.837506e+001
1.640068e+003,1.840912e+001
1.641033e+003,1.799692e+001
1.641997e+003,1.761661e+001
1.642961e+003,1.682956e+001
1.643925e+003,1.445258e+001
1.644890e+003,1.233072e+001
1.645854e+003,1.282748e+001
1.646818e+003,1.502328e+001
1.647782e+003,1.631363e+001
1.648747e+003,1.588013e+001
1.649711e+003,1.469638e+001
1.650675e+003,1.341556e+001
1.651639e+003,1.252386e+001
1.652604e+003,1.320749e+001
1.653568e+003,1.530078e+001
1.654532e+003,1.619254e+001
1.655496e+003,1.548462e+001
1.656460e+003,1.454309e+001
1.657425e+003,1.390341e+001
1.658389e+003,1.300659e+001
1.659353e+003,1.068213e+001
1.660317e+003,8.575806e+000
1.661281e+003,8.968964e+000
1.662246e+003,1.107803e+001
1.663210e+003,1.227328e+001
1.664174e+003,1.176065e+001
1.665138e+003,1.099008e+001
1.666103e+003,1.127802e+001
1.667067e+003,1.176715e+001
1.668031e+003,1.025076e+001
1.668995e+003,7.028503e+000
1.669960e+003,6.431854e+000
1.670924e+003,9.747955e+000
1.671888e+003,1.158401e+001
1.672852e+003,8.894226e+000
1.673817e+003,6.196686e+000
1.674781e+003,6.121460e+000
1.675745e+003,7.649750e+000
1.676709e+003,1.085605e+001
1.677674e+003,1.460074e+001
1.678638e+003,1.555136e+001
1.679602e+003,1.270074e+001
1.680566e+003,9.484802e+000
1.681531e+003,8.483093e+000
1.682495e+003,8.965607e+000
1.683459e+003,1.006580e+001
1.684423e+003,1.144305e+001
1.685387e+003,1.125513e+001
1.686352e+003,9.212006e+000
1.687316e+003,6.942688e+000
1.688280e+003,4.431152e+000
1.689244e+003,2.791626e+000
1.690208e+003,3.525238e+000
1.691173e+003,5.062897e+000
1.692137e+003,5.851410e+000
1.693101e+003,6.108398e+000
1.694065e+003,6.281097e+000
1.695030e+003,6.315186e+000
1.695994e+003,7.119598e+000
1.696958e+003,1.038657e+001
1.697922e+003,1.346497e+001
1.698887e+003,1.234216e+001
1.699851e+003,8.476868e+000
1.700815e+003,6.139435e+000
1.701779e+003,5.634552e+000
1.702744e+003,5.735138e+000
1.703708e+003,6.448517e+000
1.704672e+003,6.702362e+000
1.705636e+003,4.792084e+000
1.706601e+003,2.559692e+000
1.707565e+003,3.789124e+000
1.708529e+003,7.238983e+000
1.709493e+003,8.453094e+000
1.710458e+003,6.684174e+000
1.711422e+003,4.766388e+000
1.712386e+003,3.421112e+000
1.713350e+003,3.069305e+000
1.714314e+003,4.626221e+000
1.715279e+003,6.813995e+000
1.716243e+003,7.419403e+000
1.717207e+003,6.665924e+000
1.718171e+003,6.613739e+000
1.719135e+003,7.861511e+000
1.720100e+003,8.468018e+000
1.721064e+003,6.862793e+000
1.722028e+003,4.580353e+000
1.722992e+003,3.967133e+000
1.723957e+003,4.869934e+000
1.724921e+003,5.642242e+000
1.725885e+003,6.142639e+000
1.726849e+003,5.985718e+000
1.727814e+003,4.954315e+000
1.728778e+003,3.982025e+000
1.729742e+003,3.164642e+000
1.730706e+003,2.754791e+000
1.731671e+003,3.174255e+000
1.732635e+003,3.867126e+000
1.733599e+003,3.895111e+000
1.734563e+003,3.332489e+000
1.735528e+003,3.020325e+000
1.736492e+003,3.342010e+000
1.737456e+003,4.064423e+000
1.738420e+003,5.008514e+000
1.739385e+003,5.823029e+000
1.740349e+003,5.540894e+000
1.741313e+003,3.904968e+000
1.742277e+003,3.011749e+000
1.743241e+003,3.347168e+000
1.744206e+003,3.827576e+000
1.745170e+003,4.332794e+000
1.746134e+003,4.792542e+000
1.747098e+003,5.451752e+000
1.748063e+003,5.817230e+000
1.749027e+003,4.755188e+000
1.749991e+003,3.038818e+000
1.750955e+003,2.931152e+000
1.751919e+003,4.932312e+000
1.752884e+003,7.059937e+000
1.753848e+003,7.681580e+000
1.754812e+003,7.105164e+000
1.755776e+003,5.886658e+000
1.756741e+003,4.189117e+000
1.757705e+003,3.538452e+000
1.758669e+003,4.410889e+000
1.759633e+003,4.578186e+000
1.760598e+003,2.737000e+000
1.761562e+003,1.542328e+000
1.762526e+003,2.683289e+000
1.763490e+003,4.054474e+000
1.764455e+003,4.000580e+000
1.765419e+003,3.299988e+000
1.766383e+003,3.279205e+000
1.767347e+003,3.946442e+000
1.768312e+003,4.535248e+000
1.769276e+003,4.658081e+000
1.770240e+003,4.048218e+000
1.771204e+003,2.050629e+000
1.772168e+003,-1.030273e-001
1.773133e+003,7.227173e-001
1.774097e+003,4.100586e+000
1.775061e+003,5.598541e+000
1.776025e+003,4.440155e+000
1.776990e+003,2.887665e+000
1.777954e+003,1.484375e+000
1.778918e+003,7.611389e-001
1.779882e+003,1.194336e+000
1.780846e+003,2.209747e+000
1.781811e+003,3.677460e+000
1.782775e+003,5.191650e+000
1.783739e+003,4.816284e+000
1.784703e+003,2.044312e+000
1.785668e+003,7.798157e-001
1.786632e+003,4.001160e+000
1.787596e+003,7.033203e+000
1.788560e+003,5.813965e+000
1.789525e+003,3.165741e+000
1.790489e+003,3.135803e+000
1.791453e+003,4.952728e+000
1.792417e+003,5.460846e+000
1.793382e+003,4.113464e+000
1.794346e+003,2.775879e+000
1.795310e+003,2.382477e+000
1.796274e+003,2.846588e+000
1.797239e+003,4.411621e+000
1.798203e+003,6.511505e+000
1.799167e+003,6.676666e+000
1.800131e+003,4.210999e+000
1.801095e+003,2.521698e+000
1.802060e+003,2.150024e+000
1.803024e+003,2.150543e+000
1.803988e+003,2.491669e+000
1.804952e+003,2.920410e+000
1.805917e+003,3.090546e+000
1.806881e+003,3.473328e+000
1.807845e+003,5.307037e+000
1.808809e+003,7.550018e+000
1.809773e+003,7.624603e+000
1.810738e+003,5.424561e+000
1.811702e+003,3.795929e+000
1.812666e+003,4.484528e+000
1.813630e+003,5.893890e+000
1.814595e+003,5.872162e+000
1.815559e+003,4.748383e+000
1.816523e+003,3.956665e+000
1.817487e+003,3.527435e+000
1.818452e+003,3.559418e+000
1.819416e+003,4.414276e+000
1.820380e+003,5.072418e+000
1.821344e+003,5.132416e+000
1.822309e+003,4.830475e+000
1.823273e+003,3.850983e+000
1.824237e+003,3.143799e+000
1.825201e+003,3.984009e+000
1.826166e+003,5.727936e+000
1.827130e+003,6.637024e+000
1.828094e+003,6.378967e+000
1.829058e+003,6.059540e+000
1.830022e+003,6.345612e+000
1.830987e+003,6.640167e+000
1.831951e+003,6.318817e+000
1.832915e+003,5.805176e+000
1.833879e+003,5.797699e+000
1.834844e+003,6.108154e+000
1.835808e+003,6.105438e+000
1.836772e+003,5.713593e+000
1.837736e+003,5.000610e+000
1.838700e+003,3.897827e+000
1.839665e+003,3.277283e+000
1.840629e+003,4.064850e+000
1.841593e+003,5.776398e+000
1.842557e+003,7.366028e+000
1.843522e+003,8.823730e+000
1.844486e+003,9.960022e+000
1.845450e+003,1.178015e+001
1.846414e+003,1.157669e+001
1.847379e+003,6.343384e+000
1.848343e+003,2.793945e+000
1.849307e+003,4.233368e+000
1.850271e+003,6.757050e+000
1.851236e+003,8.188446e+000
1.852200e+003,8.601105e+000
1.853164e+003,7.783813e+000
1.854128e+003,6.245483e+000
1.855093e+003,5.686371e+000
1.856057e+003,6.729828e+000
1.857021e+003,7.784729e+000
1.857985e+003,7.405212e+000
1.858949e+003,6.400665e+000
1.859914e+003,6.176880e+000
1.860878e+003,6.660736e+000
1.861842e+003,7.301544e+000
1.862806e+003,8.055176e+000
1.863771e+003,8.572327e+000
1.864735e+003,8.737030e+000
1.865699e+003,8.604431e+000
1.866663e+003,8.062714e+000
1.867627e+003,7.736053e+000
1.868592e+003,8.030670e+000
1.869556e+003,8.744965e+000
1.870520e+003,1.016367e+001
1.871484e+003,1.199417e+001
1.872449e+003,1.219745e+001
1.873413e+003,1.050253e+001
1.874377e+003,9.080383e+000
1.875341e+003,7.712433e+000
1.876306e+003,7.140228e+000
1.877270e+003,8.651978e+000
1.878234e+003,1.025644e+001
1.879198e+003,9.772949e+000
1.880163e+003,8.059906e+000
1.881127e+003,6.549713e+000
1.882091e+003,5.772186e+000
1.883055e+003,6.240692e+000
1.884020e+003,8.043915e+000
1.884984e+003,1.039679e+001
1.885948e+003,1.266266e+001
1.886912e+003,1.412860e+001
1.887876e+003,1.311005e+001
1.888841e+003,9.903259e+000
1.889805e+003,8.086700e+000
1.890769e+003,7.904694e+000
1.891733e+003,7.754913e+000
1.892698e+003,7.148346e+000
1.893662e+003,7.175323e+000
1.894626e+003,8.918640e+000
1.895590e+003,1.056357e+001
1.896554e+003,1.082108e+001
1.897519e+003,1.047150e+001
1.898483e+003,1.017545e+001
1.899447e+003,9.867310e+000
1.900411e+003,9.496521e+000
1.901376e+003,9.077881e+000
1.902340e+003,9.114105e+000
1.903304e+003,9.970306e+000
1.904268e+003,1.099161e+001
1.905233e+003,1.241840e+001
1.906197e+003,1.332556e+001
1.907161e+003,1.230511e+001
1.908125e+003,1.034982e+001
1.909090e+003,9.046326e+000
1.910054e+003,8.499908e+000
1.911018e+003,8.223907e+000
1.911982e+003,8.123077e+000
1.912947e+003,8.517670e+000
1.913911e+003,9.604797e+000
1.914875e+003,1.110678e+001
1.915839e+003,1.266315e+001
1.916803e+003,1.392029e+001
1.917768e+003,1.321091e+001
1.918732e+003,9.977020e+000
1.919696e+003,9.271484e+000
1.920660e+003,1.235950e+001
1.921625e+003,1.482736e+001
1.922589e+003,1.569217e+001
1.923553e+003,1.564993e+001
1.924517e+003,1.410501e+001
1.925481e+003,1.268777e+001
1.926446e+003,1.342584e+001
1.927410e+003,1.511618e+001
1.928374e+003,1.515207e+001
1.929338e+003,1.340240e+001
1.930303e+003,1.185773e+001
1.931267e+003,1.104977e+001
1.932231e+003,1.102673e+001
1.933195e+003,1.195255e+001
1.934160e+003,1.319983e+001
1.935124e+003,1.482520e+001
1.936088e+003,1.602255e+001
1.937052e+003,1.570273e+001
1.938017e+003,1.445450e+001
1.938981e+003,1.339673e+001
1.939945e+003,1.277548e+001
1.940909e+003,1.248389e+001
1.941874e+003,1.239136e+001
1.942838e+003,1.210269e+001
1.943802e+003,1.132504e+001
1.944766e+003,1.065427e+001
1.945730e+003,1.116446e+001
1.946695e+003,1.254752e+001
1.947659e+003,1.285846e+001
1.948623e+003,1.190408e+001
1.949587e+003,1.180066e+001
1.950552e+003,1.311615e+001
1.951516e+003,1.417148e+001
1.952480e+003,1.438742e+001
1.953444e+003,1.424142e+001
1.954408e+003,1.381439e+001
1.955373e+003,1.328525e+001
1.956337e+003,1.334937e+001
1.957301e+003,1.378827e+001
1.958265e+003,1.284799e+001
1.959230e+003,1.010043e+001
1.960194e+003,9.587616e+000
1.961158e+003,1.401309e+001
1.962122e+003,1.695834e+001
1.963087e+003,1.607703e+001
1.964051e+003,1.422903e+001
1.965015e+003,1.208252e+001
1.965979e+003,1.087177e+001
1.966944e+003,1.240509e+001
1.967908e+003,1.514642e+001
1.968872e+003,1.621021e+001
1.969836e+003,1.553183e+001
1.970801e+003,1.547525e+001
1.971765e+003,1.696054e+001
1.972729e+003,1.762921e+001
1.973693e+003,1.500250e+001
1.974657e+003,1.187915e+001
1.975622e+003,1.288394e+001
1.976586e+003,1.644394e+001
1.977550e+003,1.876810e+001
1.978514e+003,1.983066e+001
1.979479e+003,1.965613e+001
1.980443e+003,1.831363e+001
1.981407e+003,1.704108e+001
1.982371e+003,1.631091e+001
1.983335e+003,1.675409e+001
1.984300e+003,1.906946e+001
1.985264e+003,2.115042e+001
1.986228e+003,1.957318e+001
1.987192e+003,1.529144e+001
1.988157e+003,1.335461e+001
1.989121e+003,1.434286e+001
1.990085e+003,1.502380e+001
1.991049e+003,1.550690e+001
1.992014e+003,1.561957e+001
1.992978e+003,1.468643e+001
1.993942e+003,1.411902e+001
1.994906e+003,1.447144e+001
1.995871e+003,1.528479e+001
1.996835e+003,1.679416e+001
1.997799e+003,1.830231e+001
1.998763e+003,1.843341e+001
1.999728e+003,1.746521e+001
