5.003444e+002,2.812366e+001
5.013087e+002,2.641565e+001
5.022729e+002,2.307684e+001
5.032371e+002,1.967865e+001
5.042014e+002,1.991663e+001
5.051656e+002,2.331055e+001
5.061298e+002,2.740149e+001
5.070941e+002,3.000952e+001
5.080583e+002,3.087146e+001
5.090225e+002,3.005273e+001
5.099868e+002,2.634900e+001
5.109510e+002,2.275677e+001
5.119152e+002,2.124915e+001
5.128795e+002,2.210510e+001
5.138437e+002,2.198401e+001
5.148079e+002,1.788702e+001
5.157722e+002,1.444482e+001
5.167364e+002,1.403058e+001
5.177006e+002,1.643677e+001
5.186649e+002,1.907745e+001
5.196291e+002,1.889471e+001
5.205933e+002,1.791260e+001
5.215576e+002,1.797833e+001
5.225218e+002,1.893457e+001
5.234860e+002,1.975256e+001
5.244503e+002,1.895447e+001
5.254145e+002,1.636664e+001
5.263787e+002,1.474530e+001
5.273430e+002,1.398499e+001
5.283072e+002,1.423511e+001
5.292714e+002,1.595728e+001
5.302357e+002,2.027527e+001
5.311999e+002,2.219794e+001
5.321641e+002,2.124420e+001
5.331284e+002,1.905579e+001
5.340926e+002,1.622162e+001
5.350568e+002,1.265009e+001
5.360211e+002,9.474487e+000
5.369853e+002,8.505798e+000
5.379495e+002,8.667725e+000
5.389138e+002,9.205261e+000
5.398780e+002,9.662598e+000
5.408422e+002,9.909058e+000
5.418065e+002,9.589722e+000
5.427707e+002,8.809937e+000
5.437349e+002,8.439575e+000
5.446992e+002,8.682861e+000
5.456634e+002,9.382874e+000
5.466276e+002,1.015643e+001
5.475919e+002,1.203448e+001
5.485561e+002,1.284869e+001
5.495203e+002,1.166779e+001
5.504846e+002,9.365784e+000
5.514488e+002,7.245667e+000
5.524130e+002,5.810547e+000
5.533773e+002,5.143066e+000
5.543415e+002,5.518066e+000
5.553057e+002,6.320251e+000
5.562700e+002,6.940674e+000
5.572342e+002,6.950439e+000
5.581984e+002,6.349304e+000
5.591627e+002,5.158997e+000
5.601269e+002,3.861755e+000
5.610911e+002,2.964661e+000
5.620554e+002,2.587769e+000
5.630196e+002,2.624084e+000
5.639838e+002,3.536255e+000
5.649481e+002,6.631470e+000
5.659123e+002,8.753784e+000
5.668765e+002,9.716064e+000
5.678408e+002,9.868164e+000
5.688050e+002,9.495361e+000
5.697692e+002,7.330566e+000
5.707335e+002,5.253662e+000
5.716977e+002,4.321472e+000
5.726619e+002,3.959351e+000
5.736262e+002,3.221069e+000
5.745904e+002,1.378906e+000
5.755546e+002,-2.935791e-001
5.765189e+002,2.330933e-001
5.774831e+002,1.698853e+000
5.784473e+002,2.212158e+000
5.794116e+002,6.564331e-001
5.803758e+002,-2.418640e+000
5.813400e+002,-3.050476e+000
5.823043e+002,-1.150574e+000
5.832685e+002,5.431519e-001
5.842327e+002,1.789490e+000
5.851970e+002,2.744446e+000
5.861612e+002,2.775330e+000
5.871254e+002,-7.954102e-001
5.880897e+002,-2.962341e+000
5.890539e+002,-1.653442e+000
5.900181e+002,1.271423e+000
5.909824e+002,2.593323e+000
5.919466e+002,-1.793213e-001
5.929108e+002,-3.675049e+000
5.938751e+002,-4.261108e+000
5.948393e+002,-3.048401e+000
5.958035e+002,-1.622009e+000
5.967678e+002,-1.087341e+000
5.977320e+002,-1.119019e+000
5.986962e+002,-2.951660e-001
5.996605e+002,8.688354e-001
6.006247e+002,2.229370e+000
6.015889e+002,4.301025e+000
6.025532e+002,6.970520e+000
6.035174e+002,8.001953e+000
6.044816e+002,5.232483e+000
6.054459e+002,3.190308e+000
6.064101e+002,2.892029e+000
6.073743e+002,3.655396e+000
6.083386e+002,4.259277e+000
6.093028e+002,4.289673e+000
6.102670e+002,3.780823e+000
6.112313e+002,2.142578e+000
6.121955e+002,2.262573e-001
6.131597e+002,-6.818848e-001
6.141240e+002,2.529907e-001
6.150882e+002,2.313049e+000
6.160524e+002,2.787292e+000
6.170167e+002,2.144470e+000
6.179809e+002,5.289307e-001
6.189451e+002,-3.057434e+000
6.199094e+002,-8.120972e+000
6.208736e+002,-9.429443e+000
6.218378e+002,-6.639404e-001
6.228021e+002,5.540527e+000
6.237663e+002,7.382996e+000
6.247305e+002,6.326965e+000
6.256948e+002,4.383545e+000
6.266590e+002,1.234436e+000
6.276232e+002,-1.203125e+000
6.285875e+002,-1.225891e+000
6.295517e+002,8.013916e-002
6.305159e+002,1.697632e+000
6.314802e+002,2.898254e+000
6.324444e+002,3.436768e+000
6.334086e+002,2.903809e+000
6.343729e+002,1.853516e+000
6.353371e+002,6.868896e-001
6.363013e+002,-5.787354e-001
6.372656e+002,-2.024719e+000
6.382298e+002,-3.652222e+000
6.391940e+002,-6.767456e+000
6.401583e+002,-8.414551e+000
6.411225e+002,-7.063354e+000
6.420867e+002,-4.231018e+000
6.430510e+002,-1.785889e+000
6.440152e+002,-3.540039e-001
6.449794e+002,-2.719116e-001
6.459437e+002,-2.349243e+000
6.469079e+002,-5.021179e+000
6.478721e+002,-7.261597e+000
6.488364e+002,-8.492065e+000
6.498006e+002,-8.539551e+000
6.507648e+002,-6.508301e+000
6.517291e+002,-3.428406e+000
6.526933e+002,-1.598145e+000
6.536575e+002,-1.502625e+000
6.546218e+002,-2.514099e+000
6.555860e+002,-3.411255e+000
6.565502e+002,-4.105835e+000
6.575145e+002,-5.019104e+000
6.584787e+002,-6.876770e+000
6.594429e+002,-8.311035e+000
6.604072e+002,-8.018005e+000
6.613714e+002,-5.645935e+000
6.623356e+002,-3.141113e+000
6.632999e+002,-6.043701e-001
6.642641e+002,6.516724e-001
6.652283e+002,-8.228760e-001
6.661926e+002,-4.234497e+000
6.671568e+002,-7.022095e+000
6.681210e+002,-5.946960e+000
6.690853e+002,-2.616577e+000
6.700495e+002,-1.150757e+000
6.710137e+002,-1.535767e+000
6.719780e+002,-2.406921e+000
6.729422e+002,-2.370728e+000
6.739064e+002,-1.384888e+000
6.748707e+002,-5.343018e-001
6.758349e+002,5.966797e-001
6.767991e+002,1.033203e+000
6.777634e+002,1.560669e-001
6.787276e+002,-1.520874e+000
6.796918e+002,-1.999939e+000
6.806561e+002,6.440430e-001
6.816203e+002,2.536926e+000
6.825845e+002,2.122925e+000
6.835488e+002,-2.050781e-002
6.845130e+002,-3.241577e+000
6.854772e+002,-7.278076e+000
6.864415e+002,-1.028760e+001
6.874057e+002,-7.910645e+000
6.883699e+002,-2.331909e+000
6.893342e+002,1.941040e+000
6.902984e+002,2.448975e+000
6.912626e+002,-1.532593e-001
6.922269e+002,-2.103149e+000
6.931911e+002,-2.679688e+000
6.941553e+002,-2.433472e+000
6.951196e+002,-9.024658e-001
6.960838e+002,6.110840e-001
6.970480e+002,-3.167725e-001
6.980123e+002,-5.996094e+000
6.989765e+002,-8.680786e+000
6.999407e+002,-2.667053e+000
7.009050e+002,4.975891e+000
7.018692e+002,8.403931e+000
7.028334e+002,5.759705e+000
7.037977e+002,3.229980e-001
7.047619e+002,-3.160217e+000
7.057261e+002,-4.945496e+000
7.066904e+002,-6.040833e+000
7.076546e+002,-6.610291e+000
7.086188e+002,-6.713379e+000
7.095831e+002,-6.408142e+000
7.105473e+002,-5.666687e+000
7.115115e+002,-5.274658e+000
7.124758e+002,-5.811096e+000
7.134400e+002,-6.305176e+000
7.144042e+002,-5.304810e+000
7.153685e+002,-2.763245e+000
7.163327e+002,-2.020630e+000
7.172969e+002,-7.797302e+000
7.182612e+002,-1.267004e+001
7.192254e+002,-1.339520e+001
7.201896e+002,-1.094196e+001
7.211539e+002,-7.413147e+000
7.221181e+002,-4.215332e+000
7.230823e+002,-2.129333e+000
7.240466e+002,-3.800964e+000
7.250108e+002,-7.945862e+000
7.259750e+002,-1.056165e+001
7.269393e+002,-9.468811e+000
7.279035e+002,-5.571777e+000
7.288677e+002,-3.190918e+000
7.298320e+002,-3.445740e+000
7.307962e+002,-2.227112e+000
7.317604e+002,2.697571e+000
7.327247e+002,8.574951e+000
7.336889e+002,1.092114e+001
7.346531e+002,7.127869e+000
7.356174e+002,2.233704e+000
7.365816e+002,-1.317993e+000
7.375458e+002,-3.071472e+000
7.385101e+002,-1.730652e+000
7.394743e+002,2.381836e+000
7.404385e+002,6.842529e+000
7.414028e+002,7.594055e+000
7.423670e+002,4.586182e+000
7.433312e+002,2.034119e+000
7.442955e+002,7.729492e-001
7.452597e+002,5.495605e-001
7.462239e+002,6.591187e-001
7.471882e+002,6.498413e-001
7.481524e+002,2.325562e+000
7.491166e+002,7.366699e+000
7.500809e+002,1.078430e+001
7.510451e+002,9.893433e+000
7.520093e+002,5.685059e+000
7.529736e+002,2.072388e+000
7.539378e+002,1.906982e+000
7.549020e+002,2.154846e+000
7.558663e+002,5.172729e-001
7.568306e+002,-2.016296e+000
7.577948e+002,-4.500610e+000
7.587590e+002,-6.383667e+000
7.597233e+002,-7.478333e+000
7.606875e+002,-5.528748e+000
7.616517e+002,-7.218018e-001
7.626160e+002,2.964966e+000
7.635802e+002,4.394653e+000
7.645444e+002,4.474182e+000
7.655087e+002,5.030640e+000
7.664729e+002,6.651367e+000
7.674371e+002,7.063049e+000
7.684014e+002,5.322937e+000
7.693656e+002,3.239319e+000
7.703298e+002,1.814392e+000
7.712941e+002,1.299194e+000
7.722583e+002,1.613342e+000
7.732225e+002,3.658630e+000
7.741868e+002,5.545349e+000
7.751510e+002,5.731079e+000
7.761152e+002,4.503357e+000
7.770795e+002,2.511230e+000
7.780437e+002,2.494507e-001
7.790079e+002,-2.163940e+000
7.799722e+002,-2.284180e+000
7.809364e+002,3.350830e-002
7.819006e+002,1.931641e+000
7.828649e+002,2.631836e+000
7.838291e+002,2.506897e+000
7.847933e+002,2.087708e+000
7.857576e+002,5.274048e-001
7.867218e+002,-1.066711e+000
7.876860e+002,-2.299255e+000
7.886503e+002,-2.900696e+000
7.896145e+002,-2.510620e+000
7.905787e+002,-1.116577e+000
7.915430e+002,5.638428e-001
7.925072e+002,1.534668e+000
7.934714e+002,1.797058e+000
7.944357e+002,1.725769e+000
7.953999e+002,1.644836e+000
7.963641e+002,1.774780e+000
7.973284e+002,2.223450e+000
7.982926e+002,3.028381e+000
7.992568e+002,3.511475e+000
8.002211e+002,3.077393e+000
8.011853e+002,1.734863e+000
8.021495e+002,-4.721069e-001
8.031138e+002,-2.568665e+000
8.040780e+002,-2.768860e+000
8.050422e+002,-3.332520e-001
8.060065e+002,2.281250e+000
8.069707e+002,3.882629e+000
8.079349e+002,4.994141e+000
8.088992e+002,6.840881e+000
8.098634e+002,9.783142e+000
8.108276e+002,1.210150e+001
8.117919e+002,1.002698e+001
8.127561e+002,4.919861e+000
8.137203e+002,6.844482e-001
8.146846e+002,-1.781921e+000
8.156488e+002,-2.735779e+000
8.166130e+002,-2.778320e+000
8.175773e+002,-2.095459e+000
8.185415e+002,9.899902e-002
8.195057e+002,5.472229e+000
8.204700e+002,9.321167e+000
8.214342e+002,8.901428e+000
8.223984e+002,5.772949e+000
8.233627e+002,4.427917e+000
8.243269e+002,7.781982e+000
8.252911e+002,1.055902e+001
8.262554e+002,8.947998e+000
8.272196e+002,5.696533e+000
8.281838e+002,3.129333e+000
8.291481e+002,2.331543e+000
8.301123e+002,3.376892e+000
8.310765e+002,7.122681e+000
8.320408e+002,1.292719e+001
8.330050e+002,1.508038e+001
8.339692e+002,1.266351e+001
8.349335e+002,8.820374e+000
8.358977e+002,6.607117e+000
8.368619e+002,6.345642e+000
8.378262e+002,7.042114e+000
8.387904e+002,8.627380e+000
8.397546e+002,1.055176e+001
8.407189e+002,1.413116e+001
8.416831e+002,1.769617e+001
8.426473e+002,1.784027e+001
8.436116e+002,1.225671e+001
8.445758e+002,6.680237e+000
8.455400e+002,8.078491e+000
8.465043e+002,1.165955e+001
8.474685e+002,1.222070e+001
8.484327e+002,8.868896e+000
8.493970e+002,4.689819e+000
8.503612e+002,4.389832e+000
8.513254e+002,8.565125e+000
8.522897e+002,1.184210e+001
8.532539e+002,1.456659e+001
8.542181e+002,1.564044e+001
8.551824e+002,1.365875e+001
8.561466e+002,9.586365e+000
8.571108e+002,8.363831e+000
8.580751e+002,1.224115e+001
8.590393e+002,1.556958e+001
8.600035e+002,1.708209e+001
8.609678e+002,1.754828e+001
8.619320e+002,1.756573e+001
8.628962e+002,1.741785e+001
8.638605e+002,1.744208e+001
8.648247e+002,1.810516e+001
8.657889e+002,1.939117e+001
8.667532e+002,2.210681e+001
8.677174e+002,2.632935e+001
8.686816e+002,2.974725e+001
8.696459e+002,2.953217e+001
8.706101e+002,2.523969e+001
8.715743e+002,2.226227e+001
8.725386e+002,2.113708e+001
8.735028e+002,2.056049e+001
8.744670e+002,1.992542e+001
8.754313e+002,1.911652e+001
8.763955e+002,1.813959e+001
8.773597e+002,1.688818e+001
8.783240e+002,1.673639e+001
8.792882e+002,1.972516e+001
8.802524e+002,2.309906e+001
8.812167e+002,2.388184e+001
8.821809e+002,2.200305e+001
8.831451e+002,2.016931e+001
8.841094e+002,2.205023e+001
8.850736e+002,2.777838e+001
8.860378e+002,3.230927e+001
8.870021e+002,3.562939e+001
8.879663e+002,3.741779e+001
8.889305e+002,3.660126e+001
8.898948e+002,3.363037e+001
8.908590e+002,3.153302e+001
8.918232e+002,3.145868e+001
8.927875e+002,3.140332e+001
8.937517e+002,3.013843e+001
8.947159e+002,2.929327e+001
8.956802e+002,3.058612e+001
8.966444e+002,3.381927e+001
8.976086e+002,3.643481e+001
8.985729e+002,3.584625e+001
8.995371e+002,3.384802e+001
9.005013e+002,3.311749e+001
9.014656e+002,3.372095e+001
9.024298e+002,3.465326e+001
9.033940e+002,3.488593e+001
9.043583e+002,3.430737e+001
9.053225e+002,3.451361e+001
9.062867e+002,3.658704e+001
9.072510e+002,3.743933e+001
9.082152e+002,3.679297e+001
9.091794e+002,3.590698e+001
9.101437e+002,3.603473e+001
9.111079e+002,3.734332e+001
9.120721e+002,3.839734e+001
9.130364e+002,3.761652e+001
9.140006e+002,3.623602e+001
9.149648e+002,3.496838e+001
9.159291e+002,3.423267e+001
9.168933e+002,3.453741e+001
9.178575e+002,3.601184e+001
9.188218e+002,3.758057e+001
9.197860e+002,3.538306e+001
9.207502e+002,2.903326e+001
9.217145e+002,2.582990e+001
9.226787e+002,2.949536e+001
9.236429e+002,3.558331e+001
9.246072e+002,3.731769e+001
9.255714e+002,3.329303e+001
9.265356e+002,3.085297e+001
9.274999e+002,3.288391e+001
9.284641e+002,3.448987e+001
9.294283e+002,3.409869e+001
9.303926e+002,3.234979e+001
9.313568e+002,3.042297e+001
9.323210e+002,2.885199e+001
9.332853e+002,2.763672e+001
9.342495e+002,2.715515e+001
9.352137e+002,2.687622e+001
9.361780e+002,2.613123e+001
9.371422e+002,2.508850e+001
9.381064e+002,2.471796e+001
9.390707e+002,2.604034e+001
9.400349e+002,2.897144e+001
9.409991e+002,3.135413e+001
9.419634e+002,3.332452e+001
9.429276e+002,3.447461e+001
9.438918e+002,3.466089e+001
9.448561e+002,3.413019e+001
9.458203e+002,3.309796e+001
9.467845e+002,3.155499e+001
9.477488e+002,3.051648e+001
9.487130e+002,3.104321e+001
9.496772e+002,3.198828e+001
9.506415e+002,3.230872e+001
9.516057e+002,3.208429e+001
9.525699e+002,3.221704e+001
9.535342e+002,3.356842e+001
9.544984e+002,3.574127e+001
9.554626e+002,3.653760e+001
9.564269e+002,3.630695e+001
9.573911e+002,3.633679e+001
9.583553e+002,3.681799e+001
9.593196e+002,3.755707e+001
9.602838e+002,3.836108e+001
9.612480e+002,3.918652e+001
9.622123e+002,3.961725e+001
9.631765e+002,3.977032e+001
9.641407e+002,3.958105e+001
9.651050e+002,3.858850e+001
9.660692e+002,3.698901e+001
9.670334e+002,3.543268e+001
9.679977e+002,3.454590e+001
9.689619e+002,3.438763e+001
9.699261e+002,3.440295e+001
9.708904e+002,3.428772e+001
9.718546e+002,3.423145e+001
9.728188e+002,3.418604e+001
9.737831e+002,3.378717e+001
9.747473e+002,3.211926e+001
9.757115e+002,2.850775e+001
9.766758e+002,2.819562e+001
9.776400e+002,3.607788e+001
9.786042e+002,4.194702e+001
9.795685e+002,4.236133e+001
9.805327e+002,3.926752e+001
9.814969e+002,3.532990e+001
9.824612e+002,3.166736e+001
9.834254e+002,2.889709e+001
9.843896e+002,2.672937e+001
9.853539e+002,2.576611e+001
9.863181e+002,2.763495e+001
9.872823e+002,3.159827e+001
9.882466e+002,3.509412e+001
9.892108e+002,3.626251e+001
9.901750e+002,3.623102e+001
9.911393e+002,3.914001e+001
9.921035e+002,4.736475e+001
9.930677e+002,5.229694e+001
9.940320e+002,5.161053e+001
9.949962e+002,4.986719e+001
9.959604e+002,5.107056e+001
9.969247e+002,5.556940e+001
9.978889e+002,6.123730e+001
9.988531e+002,6.746930e+001
9.998174e+002,7.291339e+001
1.000782e+003,7.763776e+001
1.001746e+003,8.151379e+001
1.002710e+003,8.414874e+001
1.003674e+003,8.534863e+001
1.004639e+003,8.524274e+001
1.005603e+003,8.388275e+001
1.006567e+003,8.097095e+001
1.007531e+003,8.016455e+001
1.008495e+003,8.230896e+001
1.009460e+003,8.486774e+001
1.010424e+003,8.692731e+001
1.011388e+003,8.843225e+001
1.012352e+003,8.871381e+001
1.013317e+003,8.741119e+001
1.014281e+003,8.471191e+001
1.015245e+003,7.947162e+001
1.016209e+003,7.386102e+001
1.017174e+003,7.010254e+001
1.018138e+003,6.788916e+001
1.019102e+003,6.485083e+001
1.020066e+003,5.904236e+001
1.021031e+003,5.174829e+001
1.021995e+003,4.525043e+001
1.022959e+003,3.915436e+001
1.023923e+003,3.507727e+001
1.024887e+003,3.410510e+001
1.025852e+003,3.422974e+001
1.026816e+003,3.246674e+001
1.027780e+003,2.883057e+001
1.028744e+003,2.476996e+001
1.029709e+003,1.711768e+001
1.030673e+003,1.268567e+001
1.031637e+003,1.637189e+001
1.032601e+003,2.310022e+001
1.033566e+003,2.556567e+001
1.034530e+003,2.141992e+001
1.035494e+003,1.579553e+001
1.036458e+003,1.369586e+001
1.037422e+003,1.390784e+001
1.038387e+003,1.473260e+001
1.039351e+003,1.589313e+001
1.040315e+003,1.717908e+001
1.041279e+003,1.868762e+001
1.042244e+003,2.035297e+001
1.043208e+003,2.095642e+001
1.044172e+003,1.932562e+001
1.045136e+003,1.771082e+001
1.046101e+003,1.598901e+001
1.047065e+003,1.485516e+001
1.048029e+003,1.471350e+001
1.048993e+003,1.538330e+001
1.049958e+003,1.649640e+001
1.050922e+003,1.820978e+001
1.051886e+003,2.023181e+001
1.052850e+003,2.277258e+001
1.053814e+003,2.504675e+001
1.054779e+003,2.575031e+001
1.055743e+003,2.466309e+001
1.056707e+003,2.282916e+001
1.057671e+003,2.155914e+001
1.058636e+003,2.077386e+001
1.059600e+003,1.879211e+001
1.060564e+003,1.350909e+001
1.061528e+003,1.113739e+001
1.062493e+003,1.474182e+001
1.063457e+003,1.942133e+001
1.064421e+003,1.934094e+001
1.065385e+003,1.413373e+001
1.066349e+003,1.017438e+001
1.067314e+003,1.176593e+001
1.068278e+003,1.438928e+001
1.069242e+003,1.500317e+001
1.070206e+003,1.452856e+001
1.071171e+003,1.421478e+001
1.072135e+003,1.450977e+001
1.073099e+003,1.532867e+001
1.074063e+003,1.699042e+001
1.075028e+003,1.988477e+001
1.075992e+003,1.993292e+001
1.076956e+003,1.514276e+001
1.077920e+003,1.070953e+001
1.078885e+003,8.401245e+000
1.079849e+003,8.256042e+000
1.080813e+003,1.073694e+001
1.081777e+003,1.660339e+001
1.082741e+003,2.156384e+001
1.083706e+003,2.165070e+001
1.084670e+003,2.088684e+001
1.085634e+003,2.224323e+001
1.086598e+003,2.432855e+001
1.087563e+003,2.369977e+001
1.088527e+003,1.887054e+001
1.089491e+003,1.283618e+001
1.090455e+003,1.094659e+001
1.091420e+003,1.343860e+001
1.092384e+003,1.577051e+001
1.093348e+003,1.826428e+001
1.094312e+003,1.947211e+001
1.095276e+003,1.866986e+001
1.096241e+003,1.643213e+001
1.097205e+003,1.323743e+001
1.098169e+003,7.585999e+000
1.099133e+003,4.593628e+000
1.100098e+003,8.678650e+000
1.101062e+003,1.382733e+001
1.102026e+003,1.624133e+001
1.102990e+003,1.656976e+001
1.103955e+003,1.741492e+001
1.104919e+003,2.028876e+001
1.105883e+003,2.393732e+001
1.106847e+003,2.577979e+001
1.107812e+003,2.572070e+001
1.108776e+003,2.675696e+001
1.109740e+003,2.962476e+001
1.110704e+003,3.234869e+001
1.111668e+003,3.397198e+001
1.112633e+003,3.481024e+001
1.113597e+003,3.474957e+001
1.114561e+003,3.240497e+001
1.115525e+003,3.161005e+001
1.116490e+003,3.503925e+001
1.117454e+003,3.864471e+001
1.118418e+003,3.981219e+001
1.119382e+003,3.932605e+001
1.120347e+003,3.950012e+001
1.121311e+003,4.141895e+001
1.122275e+003,4.341974e+001
1.123239e+003,4.279938e+001
1.124203e+003,4.043744e+001
1.125168e+003,4.065161e+001
1.126132e+003,4.462433e+001
1.127096e+003,4.927863e+001
1.128060e+003,5.178204e+001
1.129025e+003,5.260272e+001
1.129989e+003,5.491492e+001
1.130953e+003,6.001428e+001
1.131917e+003,6.359760e+001
1.132882e+003,6.383514e+001
1.133846e+003,6.349414e+001
1.134810e+003,6.358057e+001
1.135774e+003,6.466797e+001
1.136739e+003,6.722784e+001
1.137703e+003,7.148456e+001
1.138667e+003,7.719495e+001
1.139631e+003,8.435217e+001
1.140595e+003,9.274792e+001
1.141560e+003,1.011694e+002
1.142524e+003,1.097316e+002
1.143488e+003,1.189622e+002
1.144452e+003,1.279584e+002
1.145417e+003,1.376997e+002
1.146381e+003,1.522436e+002
1.147345e+003,1.732529e+002
1.148309e+003,1.945730e+002
1.149274e+003,2.156254e+002
1.150238e+003,2.360787e+002
1.151202e+003,2.557961e+002
1.152166e+003,2.752306e+002
1.153130e+003,2.959824e+002
1.154095e+003,3.179913e+002
1.155059e+003,3.365343e+002
1.156023e+003,3.455572e+002
1.156987e+003,3.452076e+002
1.157952e+003,3.405180e+002
1.158916e+003,3.323621e+002
1.159880e+003,3.203022e+002
1.160844e+003,3.010099e+002
1.161809e+003,2.770223e+002
1.162773e+003,2.555800e+002
1.163737e+003,2.373912e+002
1.164701e+003,2.188861e+002
1.165666e+003,1.974938e+002
1.166630e+003,1.780553e+002
1.167594e+003,1.614933e+002
1.168558e+003,1.482769e+002
1.169522e+003,1.392828e+002
1.170487e+003,1.344767e+002
1.171451e+003,1.326578e+002
1.172415e+003,1.326981e+002
1.173379e+003,1.340393e+002
1.174344e+003,1.347308e+002
1.175308e+003,1.351274e+002
1.176272e+003,1.337830e+002
1.177236e+003,1.292790e+002
1.178201e+003,1.238246e+002
1.179165e+003,1.202579e+002
1.180129e+003,1.182896e+002
1.181093e+003,1.147567e+002
1.182057e+003,1.074957e+002
1.183022e+003,1.013670e+002
1.183986e+003,9.809204e+001
1.184950e+003,9.673267e+001
1.185914e+003,9.688812e+001
1.186879e+003,9.819910e+001
1.187843e+003,1.002222e+002
1.188807e+003,1.025090e+002
1.189771e+003,1.044289e+002
1.190736e+003,1.042805e+002
1.191700e+003,1.017037e+002
1.192664e+003,1.004537e+002
1.193628e+003,1.026219e+002
1.194593e+003,1.044017e+002
1.195557e+003,1.021364e+002
1.196521e+003,9.708777e+001
1.197485e+003,9.453448e+001
1.198449e+003,9.680157e+001
1.199414e+003,9.688037e+001
1.200378e+003,8.789594e+001
1.201342e+003,7.911798e+001
1.202306e+003,7.676459e+001
1.203271e+003,7.905194e+001
1.204235e+003,8.203564e+001
1.205199e+003,8.348358e+001
1.206163e+003,8.269556e+001
1.207128e+003,7.808868e+001
1.208092e+003,6.943823e+001
1.209056e+003,6.290009e+001
1.210020e+003,5.980048e+001
1.210984e+003,5.588507e+001
1.211949e+003,4.886578e+001
1.212913e+003,4.084967e+001
1.213877e+003,3.477563e+001
1.214841e+003,3.091827e+001
1.215806e+003,2.735388e+001
1.216770e+003,2.276721e+001
1.217734e+003,1.909869e+001
1.218698e+003,1.787262e+001
1.219663e+003,1.766443e+001
1.220627e+003,1.684888e+001
1.221591e+003,1.515302e+001
1.222555e+003,1.325836e+001
1.223520e+003,1.185431e+001
1.224484e+003,1.106958e+001
1.225448e+003,1.073132e+001
1.226412e+003,1.090991e+001
1.227376e+003,1.121960e+001
1.228341e+003,1.167535e+001
1.229305e+003,1.195874e+001
1.230269e+003,1.253235e+001
1.231233e+003,1.259222e+001
1.232198e+003,1.002948e+001
1.233162e+003,4.285583e+000
1.234126e+003,-2.868652e-001
1.235090e+003,-1.139526e-001
1.236055e+003,1.876709e+000
1.237019e+003,3.157532e+000
1.237983e+003,3.436646e+000
1.238947e+003,2.065552e+000
1.239911e+003,-9.818726e-001
1.240876e+003,-3.307312e+000
1.241840e+003,-1.092957e+000
1.242804e+003,6.094666e+000
1.243768e+003,1.019824e+001
1.244733e+003,7.651489e+000
1.245697e+003,6.663269e+000
1.246661e+003,9.121277e+000
1.247625e+003,1.143750e+001
1.248590e+003,1.046204e+001
1.249554e+003,7.426636e+000
1.250518e+003,6.187500e+000
1.251482e+003,8.367676e+000
1.252447e+003,1.135541e+001
1.253411e+003,1.228821e+001
1.254375e+003,1.229114e+001
1.255339e+003,1.359058e+001
1.256303e+003,1.638672e+001
1.257268e+003,1.904712e+001
1.258232e+003,2.027148e+001
1.259196e+003,2.037927e+001
1.260160e+003,2.059296e+001
1.261125e+003,2.127258e+001
1.262089e+003,2.204962e+001
1.263053e+003,2.137634e+001
1.264017e+003,2.201532e+001
1.264982e+003,2.600189e+001
1.265946e+003,3.084955e+001
1.266910e+003,3.489380e+001
1.267874e+003,3.745313e+001
1.268839e+003,3.785083e+001
1.269803e+003,3.561450e+001
1.270767e+003,3.209869e+001
1.271731e+003,3.004840e+001
1.272695e+003,2.956262e+001
1.273660e+003,2.797882e+001
1.274624e+003,2.419794e+001
1.275588e+003,2.039191e+001
1.276552e+003,1.814673e+001
1.277517e+003,1.714600e+001
1.278481e+003,1.665479e+001
1.279445e+003,1.661688e+001
1.280409e+003,1.547223e+001
1.281374e+003,1.194104e+001
1.282338e+003,8.341064e+000
1.283302e+003,4.991699e+000
1.284266e+003,2.658081e+000
1.285230e+003,2.900635e+000
1.286195e+003,5.227356e+000
1.287159e+003,7.140991e+000
1.288123e+003,6.740295e+000
1.289087e+003,5.026611e+000
1.290052e+003,4.306641e+000
1.291016e+003,4.496704e+000
1.291980e+003,5.039795e+000
1.292944e+003,6.563965e+000
1.293909e+003,6.933228e+000
1.294873e+003,4.312683e+000
1.295837e+003,1.231995e+000
1.296801e+003,1.897156e+000
1.297766e+003,6.455444e+000
1.298730e+003,9.338928e+000
1.299694e+003,6.773315e+000
1.300658e+003,2.416199e+000
1.301622e+003,-1.232910e-001
1.302587e+003,-1.110229e+000
1.303551e+003,-5.406494e-001
1.304515e+003,1.510864e+000
1.305479e+003,3.539429e+000
1.306444e+003,4.050171e+000
1.307408e+003,3.447449e+000
1.308372e+003,3.576904e+000
1.309336e+003,4.386230e+000
1.310301e+003,6.034973e+000
1.311265e+003,1.117035e+001
1.312229e+003,1.429919e+001
1.313193e+003,1.277930e+001
1.314157e+003,8.942688e+000
1.315122e+003,4.096924e+000
1.316086e+003,-6.787109e-001
1.317050e+003,-3.105957e+000
1.318014e+003,-1.374817e+000
1.318979e+003,2.515869e+000
1.319943e+003,5.139648e+000
1.320907e+003,6.598938e+000
1.321871e+003,6.656128e+000
1.322836e+003,4.233093e+000
1.323800e+003,2.385620e+000
1.324764e+003,3.450623e+000
1.325728e+003,5.880676e+000
1.326693e+003,7.007446e+000
1.327657e+003,6.538269e+000
1.328621e+003,4.901489e+000
1.329585e+003,1.863098e+000
1.330549e+003,4.642944e-001
1.331514e+003,2.030212e+000
1.332478e+003,4.236023e+000
1.333442e+003,5.311829e+000
1.334406e+003,5.355652e+000
1.335371e+003,5.297729e+000
1.336335e+003,5.690002e+000
1.337299e+003,6.180725e+000
1.338263e+003,5.919312e+000
1.339228e+003,4.756470e+000
1.340192e+003,4.423889e+000
1.341156e+003,5.407837e+000
1.342120e+003,6.402954e+000
1.343084e+003,7.188904e+000
1.344049e+003,7.268677e+000
1.345013e+003,6.074646e+000
1.345977e+003,4.365234e+000
1.346941e+003,3.874390e+000
1.347906e+003,5.240112e+000
1.348870e+003,7.073181e+000
1.349834e+003,8.337646e+000
1.350798e+003,8.678589e+000
1.351763e+003,7.875244e+000
1.352727e+003,6.165588e+000
1.353691e+003,4.283569e+000
1.354655e+003,2.474487e+000
1.355620e+003,8.123779e-001
1.356584e+003,-1.010132e+000
1.357548e+003,-2.654053e+000
1.358512e+003,-1.691833e+000
1.359476e+003,3.300171e+000
1.360441e+003,6.016785e+000
1.361405e+003,3.215515e+000
1.362369e+003,4.040527e-002
1.363333e+003,-9.035645e-001
1.364298e+003,-6.521606e-001
1.365262e+003,-1.209534e+000
1.366226e+003,-2.817627e+000
1.367190e+003,-3.591370e+000
1.368155e+003,-1.801575e+000
1.369119e+003,1.363892e+000
1.370083e+003,2.081726e+000
1.371047e+003,-5.264893e-001
1.372011e+003,-8.283081e-001
1.372976e+003,2.617859e+000
1.373940e+003,5.503479e+000
1.374904e+003,5.887451e+000
1.375868e+003,5.427429e+000
1.376833e+003,6.312744e+000
1.377797e+003,8.393616e+000
1.378761e+003,9.512695e+000
1.379725e+003,8.584229e+000
1.380690e+003,7.393738e+000
1.381654e+003,8.456482e+000
1.382618e+003,1.022131e+001
1.383582e+003,9.949585e+000
1.384547e+003,7.874268e+000
1.385511e+003,6.836609e+000
1.386475e+003,8.284790e+000
1.387439e+003,1.068707e+001
1.388403e+003,1.189893e+001
1.389368e+003,1.188110e+001
1.390332e+003,1.153882e+001
1.391296e+003,1.074866e+001
1.392260e+003,1.049219e+001
1.393225e+003,1.125836e+001
1.394189e+003,1.206836e+001
1.395153e+003,1.230353e+001
1.396117e+003,1.226904e+001
1.397082e+003,1.283777e+001
1.398046e+003,1.408270e+001
1.399010e+003,1.475281e+001
1.399974e+003,1.343298e+001
1.400938e+003,1.038702e+001
1.401903e+003,7.630554e+000
1.402867e+003,6.006653e+000
1.403831e+003,6.204895e+000
1.404795e+003,8.824524e+000
1.405760e+003,1.136829e+001
1.406724e+003,1.252472e+001
1.407688e+003,1.216364e+001
1.408652e+003,1.017322e+001
1.409617e+003,7.520691e+000
1.410581e+003,6.968323e+000
1.411545e+003,1.000446e+001
1.412509e+003,1.309271e+001
1.413474e+003,1.180707e+001
1.414438e+003,8.346863e+000
1.415402e+003,7.283813e+000
1.416366e+003,8.694519e+000
1.417330e+003,1.030652e+001
1.418295e+003,1.125848e+001
1.419259e+003,1.209729e+001
1.420223e+003,1.369031e+001
1.421187e+003,1.544183e+001
1.422152e+003,1.460718e+001
1.423116e+003,1.009467e+001
1.424080e+003,7.954163e+000
1.425044e+003,1.126178e+001
1.426009e+003,1.500385e+001
1.426973e+003,1.789063e+001
1.427937e+003,1.957458e+001
1.428901e+003,1.954303e+001
1.429865e+003,1.828699e+001
1.430830e+003,1.700378e+001
1.431794e+003,1.631506e+001
1.432758e+003,1.588416e+001
1.433722e+003,1.550208e+001
1.434687e+003,1.564642e+001
1.435651e+003,1.738092e+001
1.436615e+003,1.993030e+001
1.437579e+003,2.250922e+001
1.438544e+003,2.710468e+001
1.439508e+003,2.997150e+001
1.440472e+003,2.750684e+001
1.441436e+003,2.239282e+001
1.442401e+003,1.920612e+001
1.443365e+003,1.900702e+001
1.444329e+003,2.071655e+001
1.445293e+003,2.418457e+001
1.446257e+003,2.784302e+001
1.447222e+003,2.809015e+001
1.448186e+003,2.545825e+001
1.449150e+003,2.284808e+001
1.450114e+003,2.014233e+001
1.451079e+003,1.833197e+001
1.452043e+003,1.883221e+001
1.453007e+003,2.042139e+001
1.453971e+003,2.129089e+001
1.454936e+003,2.127643e+001
1.455900e+003,2.039972e+001
1.456864e+003,1.831567e+001
1.457828e+003,1.739105e+001
1.458792e+003,1.996222e+001
1.459757e+003,2.287787e+001
1.460721e+003,2.363428e+001
1.461685e+003,2.274774e+001
1.462649e+003,2.148090e+001
1.463614e+003,2.038818e+001
1.464578e+003,1.947723e+001
1.465542e+003,1.856079e+001
1.466506e+003,1.764758e+001
1.467471e+003,1.717175e+001
1.468435e+003,1.749200e+001
1.469399e+003,1.885870e+001
1.470363e+003,2.237659e+001
1.471328e+003,2.433203e+001
1.472292e+003,2.148560e+001
1.473256e+003,1.835205e+001
1.474220e+003,1.925745e+001
1.475184e+003,2.300250e+001
1.476149e+003,2.628119e+001
1.477113e+003,2.764880e+001
1.478077e+003,2.792419e+001
1.479041e+003,2.819098e+001
1.480006e+003,2.866730e+001
1.480970e+003,2.917334e+001
1.481934e+003,2.909766e+001
1.482898e+003,2.987384e+001
1.483863e+003,3.230579e+001
1.484827e+003,3.416248e+001
1.485791e+003,3.540686e+001
1.486755e+003,3.604767e+001
1.487719e+003,3.472302e+001
1.488684e+003,3.253473e+001
1.489648e+003,3.293542e+001
1.490612e+003,3.716504e+001
1.491576e+003,4.281348e+001
1.492541e+003,4.815753e+001
1.493505e+003,5.272992e+001
1.494469e+003,5.497034e+001
1.495433e+003,5.494641e+001
1.496398e+003,5.588843e+001
1.497362e+003,5.896478e+001
1.498326e+003,6.270990e+001
1.499290e+003,6.558105e+001
1.500255e+003,6.910059e+001
1.501219e+003,7.547528e+001
1.502183e+003,8.426721e+001
1.503147e+003,9.329749e+001
1.504111e+003,1.019834e+002
1.505076e+003,1.113610e+002
1.506040e+003,1.213893e+002
1.507004e+003,1.333970e+002
1.507968e+003,1.485965e+002
1.508933e+003,1.664976e+002
1.509897e+003,1.869497e+002
1.510861e+003,2.102653e+002
1.511825e+003,2.333947e+002
1.512790e+003,2.527616e+002
1.513754e+003,2.718593e+002
1.514718e+003,2.993927e+002
1.515682e+003,3.348942e+002
1.516646e+003,3.665254e+002
1.517611e+003,3.940374e+002
1.518575e+003,4.173483e+002
1.519539e+003,4.364018e+002
1.520503e+003,4.521293e+002
1.521468e+003,4.648975e+002
1.522432e+003,4.741844e+002
1.523396e+003,4.802640e+002
1.524360e+003,4.822778e+002
1.525325e+003,4.771933e+002
1.526289e+003,4.631274e+002
1.527253e+003,4.440204e+002
1.528217e+003,4.269415e+002
1.529182e+003,4.123204e+002
1.530146e+003,3.923805e+002
1.531110e+003,3.650953e+002
1.532074e+003,3.352166e+002
1.533039e+003,3.011953e+002
1.534003e+003,2.654410e+002
1.534967e+003,2.274459e+002
1.535931e+003,1.910431e+002
1.536896e+003,1.597720e+002
1.537860e+003,1.341050e+002
1.538824e+003,1.126075e+002
1.539788e+003,9.431757e+001
1.540752e+003,7.969427e+001
1.541717e+003,6.981458e+001
1.542681e+003,6.422882e+001
1.543645e+003,5.847211e+001
1.544609e+003,5.257990e+001
1.545573e+003,4.767365e+001
1.546538e+003,4.279614e+001
1.547502e+003,3.890277e+001
1.548466e+003,3.723328e+001
1.549430e+003,3.704736e+001
1.550395e+003,3.781592e+001
1.551359e+003,3.877319e+001
1.552323e+003,3.888232e+001
1.553287e+003,3.781567e+001
1.554252e+003,3.541119e+001
1.555216e+003,3.107874e+001
1.556180e+003,2.634344e+001
1.557144e+003,2.545660e+001
1.558109e+003,2.872876e+001
1.559073e+003,2.907660e+001
1.560037e+003,2.399634e+001
1.561001e+003,1.962891e+001
1.561966e+003,1.889838e+001
1.562930e+003,1.999786e+001
1.563894e+003,2.165381e+001
1.564858e+003,2.317139e+001
1.565823e+003,2.318384e+001
1.566787e+003,2.148419e+001
1.567751e+003,1.985059e+001
1.568715e+003,1.929144e+001
1.569679e+003,1.975922e+001
1.570644e+003,2.183112e+001
1.571608e+003,2.420306e+001
1.572572e+003,2.339349e+001
1.573536e+003,1.947321e+001
1.574500e+003,1.744806e+001
1.575465e+003,1.994702e+001
1.576429e+003,2.289124e+001
1.577393e+003,2.219879e+001
1.578357e+003,1.972687e+001
1.579322e+003,1.960675e+001
1.580286e+003,2.208679e+001
1.581250e+003,2.473218e+001
1.582214e+003,2.705109e+001
1.583179e+003,2.845422e+001
1.584143e+003,2.844287e+001
1.585107e+003,2.681134e+001
1.586071e+003,2.251593e+001
1.587036e+003,1.742120e+001
1.588000e+003,1.663281e+001
1.588964e+003,2.120813e+001
1.589928e+003,2.545715e+001
1.590893e+003,2.503229e+001
1.591857e+003,2.289966e+001
1.592821e+003,2.400854e+001
1.593785e+003,2.768274e+001
1.594750e+003,2.897864e+001
1.595714e+003,2.647803e+001
1.596678e+003,2.586890e+001
1.597642e+003,3.111462e+001
1.598606e+003,3.654156e+001
1.599571e+003,3.732666e+001
1.600535e+003,3.605054e+001
1.601499e+003,3.586108e+001
1.602463e+003,3.667706e+001
1.603427e+003,3.683136e+001
1.604392e+003,3.561572e+001
1.605356e+003,3.410193e+001
1.606320e+003,3.375122e+001
1.607284e+003,3.386365e+001
1.608249e+003,3.219928e+001
1.609213e+003,2.871051e+001
1.610177e+003,2.475177e+001
1.611141e+003,1.946130e+001
1.612106e+003,1.645654e+001
1.613070e+003,1.971338e+001
1.614034e+003,2.383203e+001
1.614998e+003,2.523535e+001
1.615963e+003,2.470587e+001
1.616927e+003,2.315009e+001
1.617891e+003,2.100842e+001
1.618855e+003,1.985034e+001
1.619820e+003,2.064856e+001
1.620784e+003,2.139264e+001
1.621748e+003,1.942841e+001
1.622712e+003,1.588525e+001
1.623677e+003,1.452002e+001
1.624641e+003,1.575854e+001
1.625605e+003,1.714294e+001
1.626569e+003,1.743329e+001
1.627533e+003,1.695068e+001
1.628498e+003,1.539471e+001
1.629462e+003,1.448627e+001
1.630426e+003,1.620996e+001
1.631390e+003,1.941901e+001
1.632354e+003,2.199365e+001
1.633319e+003,2.319214e+001
1.634283e+003,2.226538e+001
1.635247e+003,1.806201e+001
1.636211e+003,1.302356e+001
1.637176e+003,1.242426e+001
1.638140e+003,1.603162e+001
1.639104e+003,1.705658e+001
1.640068e+003,1.409753e+001
1.641033e+003,1.256091e+001
1.641997e+003,1.518634e+001
1.642961e+003,1.789508e+001
1.643925e+003,1.857245e+001
1.644890e+003,1.836115e+001
1.645854e+003,1.814050e+001
1.646818e+003,1.793701e+001
1.647782e+003,1.752557e+001
1.648747e+003,1.683344e+001
1.649711e+003,1.631262e+001
1.650675e+003,1.662872e+001
1.651639e+003,1.750653e+001
1.652604e+003,1.756866e+001
1.653568e+003,1.667670e+001
1.654532e+003,1.759607e+001
1.655496e+003,2.162646e+001
1.656460e+003,2.324182e+001
1.657425e+003,1.903571e+001
1.658389e+003,1.485870e+001
1.659353e+003,1.419080e+001
1.660317e+003,1.484430e+001
1.661281e+003,1.444611e+001
1.662246e+003,1.308582e+001
1.663210e+003,1.206903e+001
1.664174e+003,1.196515e+001
1.665138e+003,1.227966e+001
1.666103e+003,1.246674e+001
1.667067e+003,1.247583e+001
1.668031e+003,1.277655e+001
1.668995e+003,1.335425e+001
1.669960e+003,1.220032e+001
1.670924e+003,8.553833e+000
1.671888e+003,6.374268e+000
1.672852e+003,7.669800e+000
1.673817e+003,9.130981e+000
1.674781e+003,7.790466e+000
1.675745e+003,6.063416e+000
1.676709e+003,7.416199e+000
1.677674e+003,1.071277e+001
1.678638e+003,1.167126e+001
1.679602e+003,8.989624e+000
1.680566e+003,5.792175e+000
1.681531e+003,4.562256e+000
1.682495e+003,4.668091e+000
1.683459e+003,4.875366e+000
1.684423e+003,4.898926e+000
1.685387e+003,4.070068e+000
1.686352e+003,2.206848e+000
1.687316e+003,1.783142e+000
1.688280e+003,4.549927e+000
1.689244e+003,7.085022e+000
1.690208e+003,6.282715e+000
1.691173e+003,4.065247e+000
1.692137e+003,2.429199e+000
1.693101e+003,1.618164e+000
1.694065e+003,1.083008e+000
1.695030e+003,3.397827e-001
1.695994e+003,-7.122803e-002
1.696958e+003,6.179199e-001
1.697922e+003,1.707642e+000
1.698887e+003,2.557861e+000
1.699851e+003,3.159546e+000
1.700815e+003,2.741089e+000
1.701779e+003,1.117249e+000
1.702744e+003,6.561279e-001
1.703708e+003,2.753296e+000
1.704672e+003,5.392883e+000
1.705636e+003,6.970398e+000
1.706601e+003,7.282959e+000
1.707565e+003,6.243896e+000
1.708529e+003,4.583130e+000
1.709493e+003,3.976563e+000
1.710458e+003,4.760254e+000
1.711422e+003,4.577332e+000
1.712386e+003,1.562073e+000
1.713350e+003,-1.047424e+000
1.714314e+003,-4.417725e-001
1.715279e+003,1.403198e+000
1.716243e+003,1.465210e+000
1.717207e+003,-8.917236e-002
1.718171e+003,-1.505432e+000
1.719135e+003,-2.213013e+000
1.720100e+003,-2.085510e+000
1.721064e+003,-8.883057e-001
1.722028e+003,1.311035e-001
1.722992e+003,-7.561035e-001
1.723957e+003,-2.700195e+000
1.724921e+003,-3.135742e+000
1.725885e+003,-2.543701e+000
1.726849e+003,-1.959595e+000
1.727814e+003,-7.737427e-001
1.728778e+003,7.905884e-001
1.729742e+003,3.629883e+000
1.730706e+003,5.634338e+000
1.731671e+003,3.439453e+000
1.732635e+003,-1.470825e+000
1.733599e+003,-5.286499e+000
1.734563e+003,-6.779358e+000
1.735528e+003,-6.386719e+000
1.736492e+003,-4.532898e+000
1.737456e+003,-1.930664e+000
1.738420e+003,7.751465e-001
1.739385e+003,2.863708e+000
1.740349e+003,2.730835e+000
1.741313e+003,1.395264e-001
1.742277e+003,-1.968811e+000
1.743241e+003,-3.540161e+000
1.744206e+003,-4.118164e+000
1.745170e+003,-3.263428e+000
1.746134e+003,-2.257385e+000
1.747098e+003,-2.116333e+000
1.748063e+003,-2.039551e+000
1.749027e+003,-3.240967e-001
1.749991e+003,2.197754e+000
1.750955e+003,2.723816e+000
1.751919e+003,4.939575e-001
1.752884e+003,-2.347595e+000
1.753848e+003,-4.048828e+000
1.754812e+003,-4.671753e+000
1.755776e+003,-3.873413e+000
1.756741e+003,-1.380188e+000
1.757705e+003,5.182495e-001
1.758669e+003,1.838074e+000
1.759633e+003,1.513184e+000
1.760598e+003,-2.252014e+000
1.761562e+003,-5.872986e+000
1.762526e+003,-8.793701e+000
1.763490e+003,-9.982117e+000
1.764455e+003,-7.086060e+000
1.765419e+003,-2.723877e+000
1.766383e+003,-1.484863e+000
1.767347e+003,-3.572815e+000
1.768312e+003,-5.356384e+000
1.769276e+003,-5.222168e+000
1.770240e+003,-5.170410e+000
1.771204e+003,-7.133545e+000
1.772168e+003,-9.618164e+000
1.773133e+003,-1.001672e+001
1.774097e+003,-8.489929e+000
1.775061e+003,-6.234985e+000
1.776025e+003,-3.554810e+000
1.776990e+003,-1.740234e+000
1.777954e+003,-8.292847e-001
1.778918e+003,-3.939819e-001
1.779882e+003,-7.044678e-001
1.780846e+003,-1.615540e+000
1.781811e+003,-2.513794e+000
1.782775e+003,-3.346558e+000
1.783739e+003,-4.419983e+000
1.784703e+003,-5.729187e+000
1.785668e+003,-6.245789e+000
1.786632e+003,-5.530701e+000
1.787596e+003,-4.888855e+000
1.788560e+003,-4.761108e+000
1.789525e+003,-4.604553e+000
1.790489e+003,-4.303772e+000
1.791453e+003,-3.975891e+000
1.792417e+003,-3.413452e+000
1.793382e+003,-2.584839e+000
1.794346e+003,-1.743774e+000
1.795310e+003,-1.026062e+000
1.796274e+003,-1.219360e+000
1.797239e+003,-3.353516e+000
1.798203e+003,-5.772644e+000
1.799167e+003,-4.314697e+000
1.800131e+003,1.278931e+000
1.801095e+003,3.321716e+000
1.802060e+003,4.219360e-001
1.803024e+003,-1.888855e+000
1.803988e+003,-3.665588e+000
1.804952e+003,-4.611450e+000
1.805917e+003,-4.604431e+000
1.806881e+003,-3.713379e+000
1.807845e+003,-8.130493e-001
1.808809e+003,2.730713e+000
1.809773e+003,3.823547e+000
1.810738e+003,2.222656e+000
1.811702e+003,1.028015e+000
1.812666e+003,2.108765e+000
1.813630e+003,3.463928e+000
1.814595e+003,2.335510e+000
1.815559e+003,-7.777100e-001
1.816523e+003,-3.443298e+000
1.817487e+003,-5.542542e+000
1.818452e+003,-7.485718e+000
1.819416e+003,-9.583130e+000
1.820380e+003,-9.475037e+000
1.821344e+003,-5.256104e+000
1.822309e+003,-1.286682e+000
1.823273e+003,4.627686e-001
1.824237e+003,8.684692e-001
1.825201e+003,-1.196289e-001
1.826166e+003,-1.951172e+000
1.827130e+003,-2.924866e+000
1.828094e+003,-2.928101e+000
1.829058e+003,-3.906494e+000
1.830022e+003,-7.809692e+000
1.830987e+003,-1.007074e+001
1.831951e+003,-4.054993e+000
1.832915e+003,3.841064e+000
1.833879e+003,2.910950e+000
1.834844e+003,-4.129822e+000
1.835808e+003,-7.903137e+000
1.836772e+003,-6.993347e+000
1.837736e+003,-5.030579e+000
1.838700e+003,-3.721313e+000
1.839665e+003,-3.067078e+000
1.840629e+003,-2.974304e+000
1.841593e+003,-3.086792e+000
1.842557e+003,-2.931274e+000
1.843522e+003,-2.535278e+000
1.844486e+003,-2.348633e+000
1.845450e+003,-2.397949e+000
1.846414e+003,-1.577942e+000
1.847379e+003,8.436279e-001
1.848343e+003,1.785645e+000
1.849307e+003,4.302979e-002
1.850271e+003,-2.695862e+000
1.851236e+003,-6.411072e+000
1.852200e+003,-9.205811e+000
1.853164e+003,-8.272644e+000
1.854128e+003,-4.924255e+000
1.855093e+003,-2.970093e+000
1.856057e+003,-3.530518e+000
1.857021e+003,-5.297852e+000
1.857985e+003,-7.684448e+000
1.858949e+003,-9.554138e+000
1.859914e+003,-7.956604e+000
1.860878e+003,-3.711792e+000
1.861842e+003,-2.696655e+000
1.862806e+003,-5.193176e+000
1.863771e+003,-5.288452e+000
1.864735e+003,-1.424744e+000
1.865699e+003,1.234558e+000
1.866663e+003,8.099365e-002
1.867627e+003,-1.495300e+000
1.868592e+003,-4.688721e-001
1.869556e+003,1.333740e+000
1.870520e+003,1.107788e+000
1.871484e+003,-9.346313e-001
1.872449e+003,-3.349182e+000
1.873413e+003,-5.460205e+000
1.874377e+003,-5.546753e+000
1.875341e+003,-3.126160e+000
1.876306e+003,-5.164795e-001
1.877270e+003,1.570618e+000
1.878234e+003,2.539063e+000
1.879198e+003,1.185791e+000
1.880163e+003,-1.119324e+000
1.881127e+003,-1.514282e+000
1.882091e+003,-1.757202e-001
1.883055e+003,-2.862549e-001
1.884020e+003,-2.949097e+000
1.884984e+003,-4.815369e+000
1.885948e+003,-2.729004e+000
1.886912e+003,9.291992e-001
1.887876e+003,1.204590e+000
1.888841e+003,-1.462585e+000
1.889805e+003,-1.908508e+000
1.890769e+003,5.505371e-001
1.891733e+003,1.473206e+000
1.892698e+003,-3.561401e-001
1.893662e+003,-2.626099e+000
1.894626e+003,-5.592285e+000
1.895590e+003,-7.106873e+000
1.896554e+003,-4.673035e+000
1.897519e+003,-3.455811e-001
1.898483e+003,4.417053e+000
1.899447e+003,8.269592e+000
1.900411e+003,7.421265e+000
1.901376e+003,1.012878e+000
1.902340e+003,-3.040161e+000
1.903304e+003,-2.134399e-001
1.904268e+003,3.048828e+000
1.905233e+003,2.202942e+000
1.906197e+003,7.889404e-001
1.907161e+003,3.664978e+000
1.908125e+003,8.219727e+000
1.909090e+003,8.483948e+000
1.910054e+003,4.767639e+000
1.911018e+003,1.832947e+000
1.911982e+003,1.598816e+000
1.912947e+003,3.152832e+000
1.913911e+003,5.712280e+000
1.914875e+003,8.759399e+000
1.915839e+003,1.149481e+001
1.916803e+003,1.335931e+001
1.917768e+003,1.270911e+001
1.918732e+003,9.206482e+000
1.919696e+003,7.359680e+000
1.920660e+003,8.127319e+000
1.921625e+003,8.673584e+000
1.922589e+003,7.781311e+000
1.923553e+003,6.995117e+000
1.924517e+003,7.484009e+000
1.925481e+003,8.222717e+000
1.926446e+003,8.173523e+000
1.927410e+003,7.813721e+000
1.928374e+003,8.452698e+000
1.929338e+003,9.721008e+000
1.930303e+003,8.718689e+000
1.931267e+003,4.170044e+000
1.932231e+003,1.090698e+000
1.933195e+003,1.362793e+000
1.934160e+003,3.403748e+000
1.935124e+003,7.881531e+000
1.936088e+003,1.178534e+001
1.937052e+003,1.133563e+001
1.938017e+003,8.102661e+000
1.938981e+003,5.064209e+000
1.939945e+003,3.088257e+000
1.940909e+003,2.585510e+000
1.941874e+003,3.495239e+000
1.942838e+003,4.452759e+000
1.943802e+003,4.520569e+000
1.944766e+003,4.409790e+000
1.945730e+003,4.711060e+000
1.946695e+003,5.152954e+000
1.947659e+003,5.902893e+000
1.948623e+003,6.953552e+000
1.949587e+003,7.118164e+000
1.950552e+003,6.177734e+000
1.951516e+003,5.748169e+000
1.952480e+003,6.896484e+000
1.953444e+003,7.406372e+000
1.954408e+003,4.612793e+000
1.955373e+003,9.519043e-001
1.956337e+003,8.313599e-001
1.957301e+003,3.491760e+000
1.958265e+003,4.438477e+000
1.959230e+003,3.214417e+000
1.960194e+003,3.912537e+000
1.961158e+003,8.669800e+000
1.962122e+003,1.163287e+001
1.963087e+003,1.060254e+001
1.964051e+003,8.458984e+000
1.965015e+003,5.089050e+000
1.965979e+003,3.695068e+000
1.966944e+003,1.014984e+001
1.967908e+003,1.886163e+001
1.968872e+003,1.840338e+001
1.969836e+003,9.530945e+000
1.970801e+003,3.582581e+000
1.971765e+003,5.330994e+000
1.972729e+003,9.198547e+000
1.973693e+003,1.077814e+001
1.974657e+003,1.083545e+001
1.975622e+003,9.917114e+000
1.976586e+003,8.318787e+000
1.977550e+003,6.763916e+000
1.978514e+003,5.759949e+000
1.979479e+003,7.993713e+000
1.980443e+003,1.343427e+001
1.981407e+003,1.644751e+001
1.982371e+003,1.504547e+001
1.983335e+003,1.188324e+001
1.984300e+003,8.420959e+000
1.985264e+003,5.426880e+000
1.986228e+003,4.477661e+000
1.987192e+003,5.205872e+000
1.988157e+003,5.824219e+000
1.989121e+003,6.602234e+000
1.990085e+003,6.602783e+000
1.991049e+003,4.934814e+000
1.992014e+003,4.775330e+000
1.992978e+003,7.825867e+000
1.993942e+003,1.016547e+001
1.994906e+003,9.684631e+000
1.995871e+003,8.861328e+000
1.996835e+003,9.508667e+000
1.997799e+003,1.122253e+001
1.998763e+003,1.361023e+001
1.999728e+003,1.602795e+001
