5.003444e+002,3.308508e+001
5.013087e+002,3.137500e+001
5.022729e+002,2.840088e+001
5.032371e+002,2.548254e+001
5.042014e+002,2.569250e+001
5.051656e+002,2.855536e+001
5.061298e+002,3.096484e+001
5.070941e+002,2.971356e+001
5.080583e+002,2.321167e+001
5.090225e+002,2.111304e+001
5.099868e+002,2.638953e+001
5.109510e+002,3.144580e+001
5.119152e+002,3.209747e+001
5.128795e+002,2.793201e+001
5.138437e+002,2.399237e+001
5.148079e+002,2.205835e+001
5.157722e+002,2.084802e+001
5.167364e+002,1.975964e+001
5.177006e+002,1.860229e+001
5.186649e+002,1.764276e+001
5.196291e+002,1.805017e+001
5.205933e+002,1.914984e+001
5.215576e+002,1.944995e+001
5.225218e+002,1.855890e+001
5.234860e+002,1.688336e+001
5.244503e+002,1.558850e+001
5.254145e+002,1.535974e+001
5.263787e+002,1.520715e+001
5.273430e+002,1.487799e+001
5.283072e+002,1.479242e+001
5.292714e+002,1.571185e+001
5.302357e+002,1.856403e+001
5.311999e+002,1.874445e+001
5.321641e+002,1.435681e+001
5.331284e+002,9.578430e+000
5.340926e+002,7.615967e+000
5.350568e+002,9.558289e+000
5.360211e+002,1.209021e+001
5.369853e+002,1.353766e+001
5.379495e+002,1.413843e+001
5.389138e+002,1.338428e+001
5.398780e+002,1.122125e+001
5.408422e+002,8.324951e+000
5.418065e+002,6.630798e+000
5.427707e+002,6.031311e+000
5.437349e+002,6.310303e+000
5.446992e+002,7.588379e+000
5.456634e+002,9.492676e+000
5.466276e+002,1.088049e+001
5.475919e+002,1.161774e+001
5.485561e+002,1.222162e+001
5.495203e+002,1.284479e+001
5.504846e+002,1.296948e+001
5.514488e+002,1.172675e+001
5.524130e+002,8.090332e+000
5.533773e+002,5.435852e+000
5.543415e+002,5.840088e+000
5.553057e+002,7.649963e+000
5.562700e+002,9.426636e+000
5.572342e+002,1.021167e+001
5.581984e+002,9.783630e+000
5.591627e+002,6.872192e+000
5.601269e+002,2.920776e+000
5.610911e+002,8.027344e-001
5.620554e+002,1.983521e+000
5.630196e+002,5.840088e+000
5.639838e+002,8.242310e+000
5.649481e+002,8.122864e+000
5.659123e+002,8.171204e+000
5.668765e+002,1.001410e+001
5.678408e+002,1.296436e+001
5.688050e+002,1.428345e+001
5.697692e+002,1.136115e+001
5.707335e+002,7.924805e+000
5.716977e+002,4.899780e+000
5.726619e+002,2.494385e+000
5.736262e+002,6.927490e-001
5.745904e+002,-5.558472e-001
5.755546e+002,-4.948120e-001
5.765189e+002,2.467529e+000
5.774831e+002,6.535522e+000
5.784473e+002,9.042786e+000
5.794116e+002,8.349304e+000
5.803758e+002,4.998230e+000
5.813400e+002,2.026978e+000
5.823043e+002,-1.790588e+000
5.832685e+002,-4.148987e+000
5.842327e+002,-2.781616e+000
5.851970e+002,1.843201e+000
5.861612e+002,4.867859e+000
5.871254e+002,3.830505e+000
5.880897e+002,2.366638e+000
5.890539e+002,5.037231e-001
5.900181e+002,-1.446106e+000
5.909824e+002,-3.023315e+000
5.919466e+002,-3.746704e+000
5.929108e+002,-3.932129e+000
5.938751e+002,-4.471802e+000
5.948393e+002,-4.855530e+000
5.958035e+002,-3.937927e+000
5.967678e+002,-8.543091e-001
5.977320e+002,4.018127e+000
5.986962e+002,6.215698e+000
5.996605e+002,5.351685e+000
6.006247e+002,4.174438e+000
6.015889e+002,4.248413e+000
6.025532e+002,5.459717e+000
6.035174e+002,5.378418e+000
6.044816e+002,2.253601e+000
6.054459e+002,-2.008057e-001
6.064101e+002,-1.153076e+000
6.073743e+002,-1.170227e+000
6.083386e+002,-1.521912e+000
6.093028e+002,-3.420410e+000
6.102670e+002,-4.159119e+000
6.112313e+002,-1.012024e+000
6.121955e+002,3.866821e+000
6.131597e+002,7.794556e+000
6.141240e+002,8.908203e+000
6.150882e+002,7.696594e+000
6.160524e+002,6.143005e+000
6.170167e+002,4.521912e+000
6.179809e+002,3.107971e+000
6.189451e+002,1.706360e+000
6.199094e+002,1.979980e-001
6.208736e+002,-7.608643e-001
6.218378e+002,7.977295e-002
6.228021e+002,9.822998e-001
6.237663e+002,2.155334e+000
6.247305e+002,3.356506e+000
6.256948e+002,4.058472e+000
6.266590e+002,3.667480e+000
6.276232e+002,2.487732e+000
6.285875e+002,1.003662e+000
6.295517e+002,-4.447021e-001
6.305159e+002,-1.858276e+000
6.314802e+002,-3.295654e+000
6.324444e+002,-4.576782e+000
6.334086e+002,-4.083313e+000
6.343729e+002,-2.118958e+000
6.353371e+002,-2.677002e-001
6.363013e+002,8.088989e-001
6.372656e+002,1.160339e+000
6.382298e+002,1.345520e+000
6.391940e+002,1.763062e+000
6.401583e+002,9.912109e-001
6.411225e+002,-1.394043e+000
6.420867e+002,-3.877991e+000
6.430510e+002,-4.737061e+000
6.440152e+002,-3.287781e+000
6.449794e+002,-2.615051e+000
6.459437e+002,-5.251099e+000
6.469079e+002,-8.475769e+000
6.478721e+002,-9.571777e+000
6.488364e+002,-7.790955e+000
6.498006e+002,-5.355713e+000
6.507648e+002,-7.444641e+000
6.517291e+002,-1.209662e+001
6.526933e+002,-1.391980e+001
6.536575e+002,-1.182983e+001
6.546218e+002,-7.563599e+000
6.555860e+002,-4.410889e+000
6.565502e+002,-3.191772e+000
6.575145e+002,-1.539795e+000
6.584787e+002,1.353638e+000
6.594429e+002,4.057068e+000
6.604072e+002,5.575439e+000
6.613714e+002,5.791565e+000
6.623356e+002,4.864868e+000
6.632999e+002,1.198975e+000
6.642641e+002,-2.687561e+000
6.652283e+002,-5.557983e+000
6.661926e+002,-6.885559e+000
6.671568e+002,-6.505798e+000
6.681210e+002,-3.837463e+000
6.690853e+002,-1.398926e-001
6.700495e+002,2.007813e+000
6.710137e+002,2.566406e+000
6.719780e+002,1.723145e+000
6.729422e+002,-6.167603e-001
6.739064e+002,-5.222900e+000
6.748707e+002,-7.389221e+000
6.758349e+002,-5.616577e+000
6.767991e+002,-4.071472e+000
6.777634e+002,-4.680847e+000
6.787276e+002,-6.793945e+000
6.796918e+002,-7.289124e+000
6.806561e+002,-3.821655e+000
6.816203e+002,-6.027832e-001
6.825845e+002,5.812988e-001
6.835488e+002,4.516602e-001
6.845130e+002,6.549683e-001
6.854772e+002,2.645020e+000
6.864415e+002,5.081665e+000
6.874057e+002,3.338501e+000
6.883699e+002,-1.411499e+000
6.893342e+002,-4.770508e+000
6.902984e+002,-3.989197e+000
6.912626e+002,1.889648e-001
6.922269e+002,1.680603e+000
6.931911e+002,-1.758179e+000
6.941553e+002,-3.619263e+000
6.951196e+002,-3.156738e+000
6.960838e+002,-1.688232e+000
6.970480e+002,-9.036865e-001
6.980123e+002,-1.017883e+000
6.989765e+002,-1.621826e+000
6.999407e+002,-3.061218e+000
7.009050e+002,-4.564148e+000
7.018692e+002,-5.555054e+000
7.028334e+002,-5.882324e+000
7.037977e+002,-5.834106e+000
7.047619e+002,-5.138245e+000
7.057261e+002,-4.123108e+000
7.066904e+002,-4.519714e+000
7.076546e+002,-6.630493e+000
7.086188e+002,-9.018433e+000
7.095831e+002,-9.323364e+000
7.105473e+002,-6.715393e+000
7.115115e+002,-5.330627e+000
7.124758e+002,-5.990723e+000
7.134400e+002,-7.051880e+000
7.144042e+002,-7.470398e+000
7.153685e+002,-7.032288e+000
7.163327e+002,-6.145752e+000
7.172969e+002,-3.705444e+000
7.182612e+002,-1.997192e+000
7.192254e+002,-2.850769e+000
7.201896e+002,-5.403564e+000
7.211539e+002,-7.651917e+000
7.221181e+002,-7.816284e+000
7.230823e+002,-6.774719e+000
7.240466e+002,-7.324097e+000
7.250108e+002,-8.674622e+000
7.259750e+002,-8.728210e+000
7.269393e+002,-6.319885e+000
7.279035e+002,-2.432251e+000
7.288677e+002,-1.584045e+000
7.298320e+002,-7.005066e+000
7.307962e+002,-9.696716e+000
7.317604e+002,-7.271912e+000
7.327247e+002,-2.400757e+000
7.336889e+002,8.968506e-001
7.346531e+002,7.252197e-001
7.356174e+002,-8.171997e-001
7.365816e+002,-2.149597e+000
7.375458e+002,-2.907043e+000
7.385101e+002,-2.615173e+000
7.394743e+002,-1.346497e+000
7.404385e+002,7.226563e-002
7.414028e+002,-6.701660e-002
7.423670e+002,-2.005676e+000
7.433312e+002,-2.495361e+000
7.442955e+002,-5.289307e-001
7.452597e+002,2.333435e+000
7.462239e+002,3.893555e+000
7.471882e+002,3.399719e+000
7.481524e+002,3.942932e+000
7.491166e+002,6.201355e+000
7.500809e+002,7.304749e+000
7.510451e+002,6.043091e+000
7.520093e+002,2.727600e+000
7.529736e+002,-1.529114e+000
7.539378e+002,-7.134399e+000
7.549020e+002,-1.079761e+001
7.558663e+002,-9.706970e+000
7.568306e+002,-6.152954e+000
7.577948e+002,-3.476013e+000
7.587590e+002,-3.768921e+000
7.597233e+002,-5.941650e+000
7.606875e+002,-5.531372e+000
7.616517e+002,-2.605347e+000
7.626160e+002,-3.708496e-001
7.635802e+002,3.607788e-001
7.645444e+002,1.771240e-001
7.655087e+002,1.716309e-001
7.664729e+002,4.671021e-001
7.674371e+002,3.170166e-001
7.684014e+002,-1.467407e+000
7.693656e+002,-2.725647e+000
7.703298e+002,-1.109558e+000
7.712941e+002,3.254272e+000
7.722583e+002,6.461792e+000
7.732225e+002,4.544983e+000
7.741868e+002,1.202759e+000
7.751510e+002,-1.541809e+000
7.761152e+002,-3.123779e+000
7.770795e+002,-2.866577e+000
7.780437e+002,-1.934204e-001
7.790079e+002,4.334717e+000
7.799722e+002,7.165955e+000
7.809364e+002,8.615540e+000
7.819006e+002,8.362976e+000
7.828649e+002,5.267273e+000
7.838291e+002,7.576904e-001
7.847933e+002,-7.764282e-001
7.857576e+002,3.251465e+000
7.867218e+002,4.646484e+000
7.876860e+002,3.403931e-001
7.886503e+002,-4.774048e+000
7.896145e+002,-6.428711e+000
7.905787e+002,-3.625061e+000
7.915430e+002,3.952637e-001
7.925072e+002,2.018982e+000
7.934714e+002,2.264893e+000
7.944357e+002,3.393250e+000
7.953999e+002,5.375549e+000
7.963641e+002,5.814148e+000
7.973284e+002,1.584167e+000
7.982926e+002,-7.838318e+000
7.992568e+002,-1.080023e+001
8.002211e+002,-4.897766e+000
8.011853e+002,-4.971924e-001
8.021495e+002,-1.968567e+000
8.031138e+002,-6.886414e+000
8.040780e+002,-8.247498e+000
8.050422e+002,-2.942139e+000
8.060065e+002,1.702698e+000
8.069707e+002,2.468201e+000
8.079349e+002,1.495789e+000
8.088992e+002,1.307068e+000
8.098634e+002,2.881287e+000
8.108276e+002,4.661316e+000
8.117919e+002,3.453491e+000
8.127561e+002,3.222656e-002
8.137203e+002,-2.541504e+000
8.146846e+002,-3.445984e+000
8.156488e+002,-3.232849e+000
8.166130e+002,-2.844055e+000
8.175773e+002,-2.387451e+000
8.185415e+002,-1.858765e+000
8.195057e+002,-1.943726e+000
8.204700e+002,-1.976624e+000
8.214342e+002,-1.495972e+000
8.223984e+002,-7.709351e-001
8.233627e+002,-6.433716e-001
8.243269e+002,-1.803406e+000
8.252911e+002,-2.341309e+000
8.262554e+002,-8.031616e-001
8.272196e+002,1.436035e+000
8.281838e+002,2.773254e+000
8.291481e+002,2.703430e+000
8.301123e+002,2.245850e+000
8.310765e+002,3.411499e+000
8.320408e+002,5.805054e+000
8.330050e+002,6.441833e+000
8.339692e+002,5.072815e+000
8.349335e+002,2.613464e+000
8.358977e+002,-6.809082e-001
8.368619e+002,-5.151733e+000
8.378262e+002,-5.961060e+000
8.387904e+002,2.976685e-001
8.397546e+002,5.704224e+000
8.407189e+002,8.424255e+000
8.416831e+002,9.046387e+000
8.426473e+002,8.710022e+000
8.436116e+002,7.724365e+000
8.445758e+002,7.018982e+000
8.455400e+002,7.836182e+000
8.465043e+002,8.423584e+000
8.474685e+002,6.773499e+000
8.484327e+002,2.996338e+000
8.493970e+002,-6.765137e-001
8.503612e+002,-1.032654e+000
8.513254e+002,2.346741e+000
8.522897e+002,5.532043e+000
8.532539e+002,1.015265e+001
8.542181e+002,1.208234e+001
8.551824e+002,6.777893e+000
8.561466e+002,-3.948975e+000
8.571108e+002,-8.233032e+000
8.580751e+002,6.651001e-001
8.590393e+002,8.674255e+000
8.600035e+002,1.133197e+001
8.609678e+002,1.150311e+001
8.619320e+002,1.270715e+001
8.628962e+002,1.624323e+001
8.638605e+002,1.995660e+001
8.648247e+002,2.018250e+001
8.657889e+002,1.820001e+001
8.667532e+002,1.693671e+001
8.677174e+002,1.676904e+001
8.686816e+002,1.687866e+001
8.696459e+002,1.635944e+001
8.706101e+002,1.525848e+001
8.715743e+002,1.504492e+001
8.725386e+002,1.613464e+001
8.735028e+002,1.756787e+001
8.744670e+002,1.913519e+001
8.754313e+002,2.024634e+001
8.763955e+002,1.998645e+001
8.773597e+002,1.774854e+001
8.783240e+002,1.613757e+001
8.792882e+002,1.720532e+001
8.802524e+002,1.915576e+001
8.812167e+002,2.092926e+001
8.821809e+002,2.206366e+001
8.831451e+002,2.233978e+001
8.841094e+002,2.147662e+001
8.850736e+002,1.984814e+001
8.860378e+002,1.916296e+001
8.870021e+002,1.941626e+001
8.879663e+002,1.954309e+001
8.889305e+002,1.860901e+001
8.898948e+002,1.673169e+001
8.908590e+002,1.519269e+001
8.918232e+002,1.409143e+001
8.927875e+002,1.422418e+001
8.937517e+002,1.602911e+001
8.947159e+002,1.876758e+001
8.956802e+002,2.206299e+001
8.966444e+002,2.532538e+001
8.976086e+002,2.742816e+001
8.985729e+002,2.732813e+001
8.995371e+002,2.610022e+001
9.005013e+002,2.466785e+001
9.014656e+002,2.350781e+001
9.024298e+002,2.380615e+001
9.033940e+002,2.638141e+001
9.043583e+002,3.046161e+001
9.053225e+002,3.262140e+001
9.062867e+002,3.039093e+001
9.072510e+002,2.867767e+001
9.082152e+002,2.885559e+001
9.091794e+002,2.972980e+001
9.101437e+002,2.979004e+001
9.111079e+002,2.873950e+001
9.120721e+002,2.812860e+001
9.130364e+002,2.904169e+001
9.140006e+002,2.974750e+001
9.149648e+002,2.993451e+001
9.159291e+002,2.964771e+001
9.168933e+002,2.822919e+001
9.178575e+002,2.509277e+001
9.188218e+002,2.135516e+001
9.197860e+002,2.253662e+001
9.207502e+002,2.865125e+001
9.217145e+002,3.157513e+001
9.226787e+002,2.868988e+001
9.236429e+002,2.406458e+001
9.246072e+002,2.320660e+001
9.255714e+002,2.686957e+001
9.265356e+002,2.848315e+001
9.274999e+002,2.357758e+001
9.284641e+002,1.977667e+001
9.294283e+002,2.108746e+001
9.303926e+002,2.543665e+001
9.313568e+002,2.886554e+001
9.323210e+002,2.933978e+001
9.332853e+002,2.783423e+001
9.342495e+002,2.463129e+001
9.352137e+002,2.067932e+001
9.361780e+002,1.785718e+001
9.371422e+002,1.689520e+001
9.381064e+002,1.744617e+001
9.390707e+002,1.869708e+001
9.400349e+002,2.027881e+001
9.409991e+002,2.193060e+001
9.419634e+002,2.429590e+001
9.429276e+002,2.569550e+001
9.438918e+002,2.542273e+001
9.448561e+002,2.417322e+001
9.458203e+002,2.275250e+001
9.467845e+002,2.118726e+001
9.477488e+002,2.118555e+001
9.487130e+002,2.585480e+001
9.496772e+002,3.110083e+001
9.506415e+002,3.345142e+001
9.516057e+002,3.294373e+001
9.525699e+002,3.180298e+001
9.535342e+002,3.217188e+001
9.544984e+002,3.357849e+001
9.554626e+002,3.329041e+001
9.564269e+002,3.162787e+001
9.573911e+002,3.046155e+001
9.583553e+002,3.026825e+001
9.593196e+002,3.057367e+001
9.602838e+002,3.055621e+001
9.612480e+002,2.982300e+001
9.622123e+002,2.965930e+001
9.631765e+002,3.164764e+001
9.641407e+002,3.339777e+001
9.651050e+002,3.311768e+001
9.660692e+002,3.146344e+001
9.670334e+002,3.082745e+001
9.679977e+002,3.302716e+001
9.689619e+002,3.593225e+001
9.699261e+002,3.210889e+001
9.708904e+002,2.391681e+001
9.718546e+002,1.952429e+001
9.728188e+002,2.082489e+001
9.737831e+002,2.503009e+001
9.747473e+002,2.936084e+001
9.757115e+002,3.451013e+001
9.766758e+002,3.670026e+001
9.776400e+002,3.425958e+001
9.786042e+002,3.163452e+001
9.795685e+002,2.886670e+001
9.805327e+002,2.631348e+001
9.814969e+002,2.503925e+001
9.824612e+002,2.570380e+001
9.834254e+002,2.644177e+001
9.843896e+002,2.396863e+001
9.853539e+002,2.068079e+001
9.863181e+002,1.909717e+001
9.872823e+002,1.915564e+001
9.882466e+002,2.044189e+001
9.892108e+002,2.309845e+001
9.901750e+002,2.744397e+001
9.911393e+002,3.113196e+001
9.921035e+002,3.081036e+001
9.930677e+002,3.288245e+001
9.940320e+002,4.116071e+001
9.949962e+002,5.008771e+001
9.959604e+002,5.344391e+001
9.969247e+002,5.119977e+001
9.978889e+002,5.107330e+001
9.988531e+002,5.770001e+001
9.998174e+002,6.472467e+001
1.000782e+003,6.920343e+001
1.001746e+003,7.194574e+001
1.002710e+003,7.427924e+001
1.003674e+003,7.665222e+001
1.004639e+003,7.810712e+001
1.005603e+003,7.673724e+001
1.006567e+003,7.203796e+001
1.007531e+003,6.993372e+001
1.008495e+003,7.167224e+001
1.009460e+003,7.351959e+001
1.010424e+003,7.313837e+001
1.011388e+003,7.121783e+001
1.012352e+003,7.023395e+001
1.013317e+003,7.101642e+001
1.014281e+003,7.099561e+001
1.015245e+003,6.969867e+001
1.016209e+003,6.685803e+001
1.017174e+003,6.173041e+001
1.018138e+003,5.495428e+001
1.019102e+003,4.837415e+001
1.020066e+003,4.364679e+001
1.021031e+003,4.032178e+001
1.021995e+003,3.570734e+001
1.022959e+003,2.978217e+001
1.023923e+003,2.566095e+001
1.024887e+003,2.496942e+001
1.025852e+003,2.526514e+001
1.026816e+003,2.239740e+001
1.027780e+003,1.559052e+001
1.028744e+003,1.108221e+001
1.029709e+003,1.010748e+001
1.030673e+003,1.033649e+001
1.031637e+003,1.228723e+001
1.032601e+003,1.427856e+001
1.033566e+003,1.375073e+001
1.034530e+003,1.005658e+001
1.035494e+003,6.695190e+000
1.036458e+003,8.183472e+000
1.037422e+003,1.173224e+001
1.038387e+003,1.242499e+001
1.039351e+003,1.027881e+001
1.040315e+003,8.407959e+000
1.041279e+003,9.427246e+000
1.042244e+003,1.274457e+001
1.043208e+003,1.451746e+001
1.044172e+003,1.381818e+001
1.045136e+003,1.192200e+001
1.046101e+003,7.699829e+000
1.047065e+003,3.980408e+000
1.048029e+003,2.313232e+000
1.048993e+003,2.558167e+000
1.049958e+003,4.300049e+000
1.050922e+003,8.350403e+000
1.051886e+003,1.207489e+001
1.052850e+003,1.183972e+001
1.053814e+003,9.986511e+000
1.054779e+003,9.630127e+000
1.055743e+003,1.128436e+001
1.056707e+003,1.324121e+001
1.057671e+003,1.347382e+001
1.058636e+003,1.187506e+001
1.059600e+003,1.020807e+001
1.060564e+003,8.151428e+000
1.061528e+003,7.639587e+000
1.062493e+003,9.361084e+000
1.063457e+003,1.159766e+001
1.064421e+003,1.304218e+001
1.065385e+003,1.369745e+001
1.066349e+003,1.336975e+001
1.067314e+003,1.112128e+001
1.068278e+003,8.875793e+000
1.069242e+003,8.124146e+000
1.070206e+003,8.478943e+000
1.071171e+003,9.221558e+000
1.072135e+003,9.767761e+000
1.073099e+003,9.689514e+000
1.074063e+003,8.567200e+000
1.075028e+003,6.424194e+000
1.075992e+003,5.350403e+000
1.076956e+003,5.272461e+000
1.077920e+003,5.367493e+000
1.078885e+003,6.115051e+000
1.079849e+003,7.202209e+000
1.080813e+003,7.504395e+000
1.081777e+003,6.655640e+000
1.082741e+003,6.646362e+000
1.083706e+003,9.250854e+000
1.084670e+003,1.134796e+001
1.085634e+003,1.077319e+001
1.086598e+003,8.411316e+000
1.087563e+003,6.320862e+000
1.088527e+003,5.857605e+000
1.089491e+003,6.618103e+000
1.090455e+003,7.095459e+000
1.091420e+003,6.869934e+000
1.092384e+003,7.836670e+000
1.093348e+003,1.094672e+001
1.094312e+003,1.284814e+001
1.095276e+003,1.085889e+001
1.096241e+003,6.746948e+000
1.097205e+003,5.354553e+000
1.098169e+003,7.899963e+000
1.099133e+003,1.015350e+001
1.100098e+003,1.123920e+001
1.101062e+003,1.135815e+001
1.102026e+003,9.635254e+000
1.102990e+003,7.176208e+000
1.103955e+003,6.121155e+000
1.104919e+003,7.668213e+000
1.105883e+003,1.072552e+001
1.106847e+003,1.340546e+001
1.107812e+003,1.558594e+001
1.108776e+003,1.724243e+001
1.109740e+003,1.846521e+001
1.110704e+003,1.900366e+001
1.111668e+003,1.863586e+001
1.112633e+003,1.793762e+001
1.113597e+003,1.824768e+001
1.114561e+003,1.987799e+001
1.115525e+003,2.112421e+001
1.116490e+003,2.037421e+001
1.117454e+003,1.998071e+001
1.118418e+003,2.267682e+001
1.119382e+003,2.752533e+001
1.120347e+003,3.124170e+001
1.121311e+003,3.145026e+001
1.122275e+003,2.917285e+001
1.123239e+003,2.739020e+001
1.124203e+003,2.675995e+001
1.125168e+003,2.728198e+001
1.126132e+003,2.921136e+001
1.127096e+003,3.205731e+001
1.128060e+003,3.565601e+001
1.129025e+003,3.957904e+001
1.129989e+003,4.255829e+001
1.130953e+003,4.431866e+001
1.131917e+003,4.497015e+001
1.132882e+003,4.258020e+001
1.133846e+003,4.152472e+001
1.134810e+003,4.548364e+001
1.135774e+003,5.301520e+001
1.136739e+003,6.008081e+001
1.137703e+003,6.438318e+001
1.138667e+003,6.783160e+001
1.139631e+003,7.401282e+001
1.140595e+003,8.259088e+001
1.141560e+003,9.076526e+001
1.142524e+003,9.835248e+001
1.143488e+003,1.071681e+002
1.144452e+003,1.183127e+002
1.145417e+003,1.314802e+002
1.146381e+003,1.451652e+002
1.147345e+003,1.577654e+002
1.148309e+003,1.749227e+002
1.149274e+003,2.042716e+002
1.150238e+003,2.322675e+002
1.151202e+003,2.520634e+002
1.152166e+003,2.656697e+002
1.153130e+003,2.779710e+002
1.154095e+003,2.907614e+002
1.155059e+003,3.007759e+002
1.156023e+003,3.041853e+002
1.156987e+003,3.011645e+002
1.157952e+003,2.945439e+002
1.158916e+003,2.851133e+002
1.159880e+003,2.731324e+002
1.160844e+003,2.565595e+002
1.161809e+003,2.365472e+002
1.162773e+003,2.170237e+002
1.163737e+003,1.981213e+002
1.164701e+003,1.794692e+002
1.165666e+003,1.579192e+002
1.166630e+003,1.406271e+002
1.167594e+003,1.320618e+002
1.168558e+003,1.285485e+002
1.169522e+003,1.255047e+002
1.170487e+003,1.213005e+002
1.171451e+003,1.171797e+002
1.172415e+003,1.143690e+002
1.173379e+003,1.127053e+002
1.174344e+003,1.126385e+002
1.175308e+003,1.146231e+002
1.176272e+003,1.145375e+002
1.177236e+003,1.093829e+002
1.178201e+003,1.031119e+002
1.179165e+003,1.015224e+002
1.180129e+003,1.043580e+002
1.181093e+003,1.030912e+002
1.182057e+003,9.286224e+001
1.183022e+003,8.342950e+001
1.183986e+003,7.706085e+001
1.184950e+003,7.405988e+001
1.185914e+003,7.582532e+001
1.186879e+003,8.155615e+001
1.187843e+003,8.881555e+001
1.188807e+003,9.559613e+001
1.189771e+003,1.006132e+002
1.190736e+003,9.960059e+001
1.191700e+003,9.161237e+001
1.192664e+003,8.705933e+001
1.193628e+003,8.921210e+001
1.194593e+003,9.243463e+001
1.195557e+003,9.317792e+001
1.196521e+003,9.161469e+001
1.197485e+003,8.854822e+001
1.198449e+003,8.412213e+001
1.199414e+003,7.836145e+001
1.200378e+003,6.847223e+001
1.201342e+003,5.987244e+001
1.202306e+003,5.658203e+001
1.203271e+003,5.703931e+001
1.204235e+003,5.790546e+001
1.205199e+003,5.747754e+001
1.206163e+003,5.634094e+001
1.207128e+003,5.546216e+001
1.208092e+003,5.497461e+001
1.209056e+003,5.140082e+001
1.210020e+003,4.304932e+001
1.210984e+003,3.564581e+001
1.211949e+003,3.147028e+001
1.212913e+003,2.848181e+001
1.213877e+003,2.371375e+001
1.214841e+003,1.721832e+001
1.215806e+003,1.301923e+001
1.216770e+003,1.429590e+001
1.217734e+003,1.543866e+001
1.218698e+003,1.158539e+001
1.219663e+003,5.605835e+000
1.220627e+003,7.191772e-001
1.221591e+003,-2.216492e+000
1.222555e+003,-3.673035e+000
1.223520e+003,-3.965637e+000
1.224484e+003,-3.096313e+000
1.225448e+003,-1.948853e+000
1.226412e+003,-3.870850e-001
1.227376e+003,8.671265e-001
1.228341e+003,2.243774e+000
1.229305e+003,2.539246e+000
1.230269e+003,-2.404785e-002
1.231233e+003,-3.880554e+000
1.232198e+003,-5.444092e+000
1.233162e+003,-3.483215e+000
1.234126e+003,-1.070435e+000
1.235090e+003,-8.544312e-001
1.236055e+003,-1.458984e+000
1.237019e+003,-1.438477e+000
1.237983e+003,-1.000427e+000
1.238947e+003,-9.887695e-002
1.239911e+003,1.473938e+000
1.240876e+003,2.463745e+000
1.241840e+003,3.528442e-001
1.242804e+003,-5.161804e+000
1.243768e+003,-7.703369e+000
1.244733e+003,-4.213379e+000
1.245697e+003,-1.597290e+000
1.246661e+003,-1.692505e+000
1.247625e+003,-2.466675e+000
1.248590e+003,-2.339600e+000
1.249554e+003,-9.336548e-001
1.250518e+003,1.728516e+000
1.251482e+003,5.532104e+000
1.252447e+003,8.917236e+000
1.253411e+003,1.036212e+001
1.254375e+003,1.051947e+001
1.255339e+003,9.842773e+000
1.256303e+003,8.688904e+000
1.257268e+003,9.244751e+000
1.258232e+003,1.288654e+001
1.259196e+003,1.768329e+001
1.260160e+003,2.023352e+001
1.261125e+003,2.041980e+001
1.262089e+003,2.157452e+001
1.263053e+003,2.401160e+001
1.264017e+003,2.662854e+001
1.264982e+003,3.114929e+001
1.265946e+003,3.463953e+001
1.266910e+003,3.351056e+001
1.267874e+003,2.850195e+001
1.268839e+003,2.361871e+001
1.269803e+003,2.155359e+001
1.270767e+003,2.079248e+001
1.271731e+003,1.814020e+001
1.272695e+003,1.401331e+001
1.273660e+003,1.295886e+001
1.274624e+003,1.588019e+001
1.275588e+003,1.779724e+001
1.276552e+003,1.574384e+001
1.277517e+003,1.183905e+001
1.278481e+003,9.480835e+000
1.279445e+003,8.773254e+000
1.280409e+003,8.553650e+000
1.281374e+003,9.398926e+000
1.282338e+003,9.489685e+000
1.283302e+003,6.739197e+000
1.284266e+003,3.378723e+000
1.285230e+003,2.418030e+000
1.286195e+003,3.762695e+000
1.287159e+003,4.663757e+000
1.288123e+003,3.040527e+000
1.289087e+003,1.494141e-001
1.290052e+003,-9.923096e-001
1.291016e+003,-1.171875e-001
1.291980e+003,4.021606e-001
1.292944e+003,6.958008e-002
1.293909e+003,-7.266846e-001
1.294873e+003,-1.324402e+000
1.295837e+003,-1.887512e+000
1.296801e+003,-3.149231e+000
1.297766e+003,-5.069153e+000
1.298730e+003,-6.203369e+000
1.299694e+003,-5.748962e+000
1.300658e+003,-4.989014e+000
1.301622e+003,-5.268494e+000
1.302587e+003,-5.851929e+000
1.303551e+003,-5.814941e+000
1.304515e+003,-4.836853e+000
1.305479e+003,-2.985107e+000
1.306444e+003,-3.346558e-001
1.307408e+003,2.487305e+000
1.308372e+003,3.899780e+000
1.309336e+003,3.463379e+000
1.310301e+003,2.820618e+000
1.311265e+003,2.575623e+000
1.312229e+003,2.006897e+000
1.313193e+003,1.610718e-001
1.314157e+003,-1.817688e+000
1.315122e+003,-2.369507e+000
1.316086e+003,-1.807617e+000
1.317050e+003,-2.204712e+000
1.318014e+003,-4.835266e+000
1.318979e+003,-7.901001e+000
1.319943e+003,-8.496277e+000
1.320907e+003,-6.562683e+000
1.321871e+003,-4.014709e+000
1.322836e+003,-1.361084e+000
1.323800e+003,1.392944e+000
1.324764e+003,5.523010e+000
1.325728e+003,9.283691e+000
1.326693e+003,8.800781e+000
1.327657e+003,3.656311e+000
1.328621e+003,-8.690796e-001
1.329585e+003,-2.424622e+000
1.330549e+003,-2.239990e+000
1.331514e+003,-1.879395e+000
1.332478e+003,-1.574707e+000
1.333442e+003,-1.062439e+000
1.334406e+003,-2.145386e-001
1.335371e+003,8.803101e-001
1.336335e+003,2.131714e+000
1.337299e+003,3.342407e+000
1.338263e+003,4.035034e+000
1.339228e+003,4.280823e+000
1.340192e+003,3.465698e+000
1.341156e+003,3.831787e-001
1.342120e+003,-1.961243e+000
1.343084e+003,-3.241028e+000
1.344049e+003,-4.332275e+000
1.345013e+003,-6.213623e+000
1.345977e+003,-7.901489e+000
1.346941e+003,-6.308044e+000
1.347906e+003,-9.680176e-002
1.348870e+003,5.204956e+000
1.349834e+003,3.075745e+000
1.350798e+003,-2.585205e+000
1.351763e+003,-3.260254e+000
1.352727e+003,3.252563e-001
1.353691e+003,2.979370e+000
1.354655e+003,2.869629e+000
1.355620e+003,1.319031e+000
1.356584e+003,-2.335205e-001
1.357548e+003,-1.670288e+000
1.358512e+003,-3.483276e+000
1.359476e+003,-7.043884e+000
1.360441e+003,-8.962708e+000
1.361405e+003,-5.947449e+000
1.362369e+003,-3.285278e+000
1.363333e+003,-4.220398e+000
1.364298e+003,-6.786133e+000
1.365262e+003,-8.245178e+000
1.366226e+003,-7.761597e+000
1.367190e+003,-5.630920e+000
1.368155e+003,-2.026062e+000
1.369119e+003,1.750610e+000
1.370083e+003,1.383667e+000
1.371047e+003,-4.633179e+000
1.372011e+003,-7.274292e+000
1.372976e+003,-4.681641e+000
1.373940e+003,-2.325195e+000
1.374904e+003,-2.713318e+000
1.375868e+003,-3.711670e+000
1.376833e+003,-2.488586e+000
1.377797e+003,7.837524e-001
1.378761e+003,3.780884e+000
1.379725e+003,5.944946e+000
1.380690e+003,6.632568e+000
1.381654e+003,4.052673e+000
1.382618e+003,2.901611e-001
1.383582e+003,-2.504761e+000
1.384547e+003,-3.956360e+000
1.385511e+003,-2.818115e+000
1.386475e+003,1.991333e+000
1.387439e+003,7.376343e+000
1.388403e+003,8.216675e+000
1.389368e+003,4.481567e+000
1.390332e+003,2.205017e+000
1.391296e+003,2.500610e+000
1.392260e+003,2.981689e+000
1.393225e+003,2.670776e+000
1.394189e+003,2.599548e+000
1.395153e+003,4.069458e+000
1.396117e+003,5.890686e+000
1.397082e+003,5.906799e+000
1.398046e+003,3.974976e+000
1.399010e+003,2.432190e+000
1.399974e+003,3.213867e+000
1.400938e+003,4.615845e+000
1.401903e+003,2.438354e+000
1.402867e+003,-3.801819e+000
1.403831e+003,-5.550903e+000
1.404795e+003,-4.274902e-001
1.405760e+003,4.588257e+000
1.406724e+003,6.058655e+000
1.407688e+003,5.397522e+000
1.408652e+003,5.403381e+000
1.409617e+003,6.396423e+000
1.410581e+003,5.920898e+000
1.411545e+003,2.613953e+000
1.412509e+003,-3.431396e-001
1.413474e+003,4.656982e-001
1.414438e+003,2.628540e+000
1.415402e+003,3.173035e+000
1.416366e+003,2.529724e+000
1.417330e+003,1.361206e+000
1.418295e+003,-3.672485e-001
1.419259e+003,-1.396118e+000
1.420223e+003,2.003174e-001
1.421187e+003,3.534180e+000
1.422152e+003,4.399109e+000
1.423116e+003,2.018311e+000
1.424080e+003,1.201355e+000
1.425044e+003,4.159729e+000
1.426009e+003,7.066406e+000
1.426973e+003,8.179810e+000
1.427937e+003,8.423523e+000
1.428901e+003,9.037292e+000
1.429865e+003,1.039465e+001
1.430830e+003,1.230658e+001
1.431794e+003,1.440790e+001
1.432758e+003,1.590765e+001
1.433722e+003,1.569141e+001
1.434687e+003,1.417975e+001
1.435651e+003,1.452936e+001
1.436615e+003,1.723468e+001
1.437579e+003,1.788721e+001
1.438544e+003,1.429303e+001
1.439508e+003,1.081134e+001
1.440472e+003,1.093420e+001
1.441436e+003,1.368304e+001
1.442401e+003,1.672607e+001
1.443365e+003,1.919830e+001
1.444329e+003,2.102728e+001
1.445293e+003,2.241296e+001
1.446257e+003,2.298199e+001
1.447222e+003,2.093427e+001
1.448186e+003,1.689478e+001
1.449150e+003,1.511896e+001
1.450114e+003,1.657086e+001
1.451079e+003,1.716150e+001
1.452043e+003,1.408301e+001
1.453007e+003,1.012579e+001
1.453971e+003,8.609009e+000
1.454936e+003,9.260986e+000
1.455900e+003,1.138702e+001
1.456864e+003,1.577936e+001
1.457828e+003,1.925177e+001
1.458792e+003,1.906195e+001
1.459757e+003,1.733417e+001
1.460721e+003,1.458240e+001
1.461685e+003,1.197589e+001
1.462649e+003,1.252191e+001
1.463614e+003,1.678613e+001
1.464578e+003,2.071320e+001
1.465542e+003,2.045782e+001
1.466506e+003,1.710492e+001
1.467471e+003,1.394385e+001
1.468435e+003,1.101672e+001
1.469399e+003,1.083447e+001
1.470363e+003,1.577728e+001
1.471328e+003,1.913403e+001
1.472292e+003,1.771368e+001
1.473256e+003,1.498236e+001
1.474220e+003,1.371936e+001
1.475184e+003,1.412128e+001
1.476149e+003,1.541541e+001
1.477113e+003,1.691290e+001
1.478077e+003,1.821899e+001
1.479041e+003,1.931934e+001
1.480006e+003,2.052673e+001
1.480970e+003,2.186774e+001
1.481934e+003,2.293451e+001
1.482898e+003,2.368799e+001
1.483863e+003,2.251282e+001
1.484827e+003,2.308148e+001
1.485791e+003,2.939154e+001
1.486755e+003,3.601691e+001
1.487719e+003,3.693402e+001
1.488684e+003,3.348846e+001
1.489648e+003,3.056610e+001
1.490612e+003,3.003821e+001
1.491576e+003,3.177924e+001
1.492541e+003,3.581946e+001
1.493505e+003,4.119067e+001
1.494469e+003,4.651813e+001
1.495433e+003,5.112909e+001
1.496398e+003,5.305145e+001
1.497362e+003,5.128851e+001
1.498326e+003,5.183917e+001
1.499290e+003,5.881903e+001
1.500255e+003,6.896838e+001
1.501219e+003,7.835095e+001
1.502183e+003,8.669971e+001
1.503147e+003,9.367682e+001
1.504111e+003,9.864380e+001
1.505076e+003,1.051271e+002
1.506040e+003,1.152842e+002
1.507004e+003,1.281025e+002
1.507968e+003,1.427804e+002
1.508933e+003,1.589487e+002
1.509897e+003,1.756483e+002
1.510861e+003,1.934689e+002
1.511825e+003,2.147262e+002
1.512790e+003,2.412552e+002
1.513754e+003,2.701479e+002
1.514718e+003,2.963799e+002
1.515682e+003,3.195535e+002
1.516646e+003,3.441392e+002
1.517611e+003,3.740768e+002
1.518575e+003,3.981666e+002
1.519539e+003,4.106224e+002
1.520503e+003,4.196323e+002
1.521468e+003,4.302328e+002
1.522432e+003,4.390480e+002
1.523396e+003,4.408655e+002
1.524360e+003,4.353411e+002
1.525325e+003,4.262358e+002
1.526289e+003,4.161919e+002
1.527253e+003,4.041190e+002
1.528217e+003,3.877274e+002
1.529182e+003,3.673529e+002
1.530146e+003,3.448363e+002
1.531110e+003,3.198813e+002
1.532074e+003,2.923369e+002
1.533039e+003,2.591742e+002
1.534003e+003,2.252947e+002
1.534967e+003,1.923472e+002
1.535931e+003,1.619824e+002
1.536896e+003,1.353418e+002
1.537860e+003,1.126985e+002
1.538824e+003,9.346021e+001
1.539788e+003,7.716119e+001
1.540752e+003,6.485663e+001
1.541717e+003,5.865808e+001
1.542681e+003,5.759320e+001
1.543645e+003,5.381995e+001
1.544609e+003,4.633795e+001
1.545573e+003,3.994110e+001
1.546538e+003,3.215259e+001
1.547502e+003,2.723730e+001
1.548466e+003,3.052875e+001
1.549430e+003,3.558752e+001
1.550395e+003,3.440399e+001
1.551359e+003,2.853308e+001
1.552323e+003,2.566217e+001
1.553287e+003,2.830096e+001
1.554252e+003,3.033350e+001
1.555216e+003,2.593701e+001
1.556180e+003,1.838287e+001
1.557144e+003,1.570532e+001
1.558109e+003,1.830249e+001
1.559073e+003,1.890594e+001
1.560037e+003,1.515326e+001
1.561001e+003,1.251862e+001
1.561966e+003,1.524615e+001
1.562930e+003,1.888611e+001
1.563894e+003,1.828491e+001
1.564858e+003,1.494379e+001
1.565823e+003,1.338434e+001
1.566787e+003,1.436249e+001
1.567751e+003,1.532733e+001
1.568715e+003,1.487213e+001
1.569679e+003,1.443262e+001
1.570644e+003,1.586963e+001
1.571608e+003,1.817145e+001
1.572572e+003,1.924304e+001
1.573536e+003,1.930548e+001
1.574500e+003,1.985193e+001
1.575465e+003,2.175427e+001
1.576429e+003,2.326489e+001
1.577393e+003,2.254108e+001
1.578357e+003,2.029895e+001
1.579322e+003,1.833710e+001
1.580286e+003,1.687524e+001
1.581250e+003,1.459729e+001
1.582214e+003,1.051221e+001
1.583179e+003,7.705750e+000
1.584143e+003,9.278137e+000
1.585107e+003,1.215167e+001
1.586071e+003,1.217529e+001
1.587036e+003,1.096442e+001
1.588000e+003,1.246503e+001
1.588964e+003,1.738855e+001
1.589928e+003,2.137714e+001
1.590893e+003,2.094611e+001
1.591857e+003,1.872528e+001
1.592821e+003,1.855682e+001
1.593785e+003,2.026178e+001
1.594750e+003,2.242578e+001
1.595714e+003,2.479688e+001
1.596678e+003,2.666943e+001
1.597642e+003,2.766309e+001
1.598606e+003,2.833832e+001
1.599571e+003,2.945453e+001
1.600535e+003,3.066956e+001
1.601499e+003,3.097021e+001
1.602463e+003,3.054260e+001
1.603427e+003,3.164148e+001
1.604392e+003,3.562347e+001
1.605356e+003,3.812622e+001
1.606320e+003,3.282544e+001
1.607284e+003,2.330005e+001
1.608249e+003,2.050812e+001
1.609213e+003,2.474359e+001
1.610177e+003,2.684686e+001
1.611141e+003,2.453571e+001
1.612106e+003,2.200726e+001
1.613070e+003,2.112854e+001
1.614034e+003,2.081720e+001
1.614998e+003,2.094916e+001
1.615963e+003,2.089862e+001
1.616927e+003,1.892773e+001
1.617891e+003,1.513440e+001
1.618855e+003,1.231519e+001
1.619820e+003,1.190826e+001
1.620784e+003,1.286145e+001
1.621748e+003,1.564355e+001
1.622712e+003,2.010254e+001
1.623677e+003,2.047211e+001
1.624641e+003,1.587213e+001
1.625605e+003,1.243396e+001
1.626569e+003,9.985107e+000
1.627533e+003,8.985779e+000
1.628498e+003,1.280249e+001
1.629462e+003,1.641730e+001
1.630426e+003,1.308319e+001
1.631390e+003,6.515869e+000
1.632354e+003,6.290283e+000
1.633319e+003,1.404468e+001
1.634283e+003,2.149091e+001
1.635247e+003,2.242633e+001
1.636211e+003,1.950513e+001
1.637176e+003,1.710089e+001
1.638140e+003,1.548651e+001
1.639104e+003,1.611163e+001
1.640068e+003,2.002692e+001
1.641033e+003,2.131012e+001
1.641997e+003,1.671295e+001
1.642961e+003,1.222174e+001
1.643925e+003,9.811707e+000
1.644890e+003,9.568481e+000
1.645854e+003,1.253937e+001
1.646818e+003,1.741724e+001
1.647782e+003,2.167273e+001
1.648747e+003,2.434729e+001
1.649711e+003,2.490216e+001
1.650675e+003,2.281354e+001
1.651639e+003,1.951825e+001
1.652604e+003,1.710193e+001
1.653568e+003,1.531610e+001
1.654532e+003,1.479565e+001
1.655496e+003,1.597369e+001
1.656460e+003,1.707428e+001
1.657425e+003,1.839435e+001
1.658389e+003,1.879846e+001
1.659353e+003,1.674786e+001
1.660317e+003,1.418274e+001
1.661281e+003,1.341986e+001
1.662246e+003,1.384149e+001
1.663210e+003,1.345129e+001
1.664174e+003,1.175232e+001
1.665138e+003,9.516357e+000
1.666103e+003,6.938110e+000
1.667067e+003,4.346741e+000
1.668031e+003,2.701477e+000
1.668995e+003,2.090088e+000
1.669960e+003,2.232544e+000
1.670924e+003,3.456604e+000
1.671888e+003,4.476440e+000
1.672852e+003,4.051697e+000
1.673817e+003,4.064270e+000
1.674781e+003,6.649841e+000
1.675745e+003,9.489746e+000
1.676709e+003,9.621216e+000
1.677674e+003,7.685913e+000
1.678638e+003,6.462708e+000
1.679602e+003,6.814514e+000
1.680566e+003,6.766968e+000
1.681531e+003,4.519714e+000
1.682495e+003,1.961060e+000
1.683459e+003,2.078613e+000
1.684423e+003,4.206787e+000
1.685387e+003,5.914551e+000
1.686352e+003,7.174744e+000
1.687316e+003,7.602112e+000
1.688280e+003,5.983215e+000
1.689244e+003,5.549011e+000
1.690208e+003,1.168219e+001
1.691173e+003,1.792719e+001
1.692137e+003,1.570081e+001
1.693101e+003,7.886292e+000
1.694065e+003,3.469299e+000
1.695030e+003,4.265381e+000
1.695994e+003,6.340820e+000
1.696958e+003,8.339050e+000
1.697922e+003,9.591309e+000
1.698887e+003,8.852478e+000
1.699851e+003,6.876465e+000
1.700815e+003,5.494568e+000
1.701779e+003,4.653381e+000
1.702744e+003,3.779297e+000
1.703708e+003,2.940857e+000
1.704672e+003,3.271301e+000
1.705636e+003,5.687561e+000
1.706601e+003,8.301453e+000
1.707565e+003,9.795410e+000
1.708529e+003,1.014392e+001
1.709493e+003,7.151184e+000
1.710458e+003,-7.830811e-002
1.711422e+003,-5.222534e+000
1.712386e+003,-4.583191e+000
1.713350e+003,-1.571533e+000
1.714314e+003,1.520569e+000
1.715279e+003,4.122986e+000
1.716243e+003,5.695190e+000
1.717207e+003,6.353027e+000
1.718171e+003,6.745483e+000
1.719135e+003,7.154419e+000
1.720100e+003,6.763733e+000
1.721064e+003,4.660156e+000
1.722028e+003,1.827271e+000
1.722992e+003,1.563110e-001
1.723957e+003,-1.777344e-001
1.724921e+003,-1.010254e+000
1.725885e+003,-3.241150e+000
1.726849e+003,-5.362244e+000
1.727814e+003,-7.277893e+000
1.728778e+003,-7.155334e+000
1.729742e+003,-2.744629e+000
1.730706e+003,2.407410e+000
1.731671e+003,4.628418e+000
1.732635e+003,4.068726e+000
1.733599e+003,2.614868e+000
1.734563e+003,1.112122e+000
1.735528e+003,-1.232300e+000
1.736492e+003,-5.041748e+000
1.737456e+003,-8.013977e+000
1.738420e+003,-7.235352e+000
1.739385e+003,-4.138123e+000
1.740349e+003,-2.629150e+000
1.741313e+003,-2.682007e+000
1.742277e+003,-2.709106e+000
1.743241e+003,-1.627808e+000
1.744206e+003,-1.427368e+000
1.745170e+003,-3.477539e+000
1.746134e+003,-5.676208e+000
1.747098e+003,-7.130737e+000
1.748063e+003,-7.991882e+000
1.749027e+003,-8.919922e+000
1.749991e+003,-9.300110e+000
1.750955e+003,-7.018921e+000
1.751919e+003,-2.024902e+000
1.752884e+003,2.106873e+000
1.753848e+003,2.399170e+000
1.754812e+003,2.665405e-001
1.755776e+003,-1.058594e+000
1.756741e+003,-1.247009e+000
1.757705e+003,-3.721008e+000
1.758669e+003,-1.166718e+001
1.759633e+003,-1.347168e+001
1.760598e+003,-1.524048e+000
1.761562e+003,6.624756e+000
1.762526e+003,4.005737e+000
1.763490e+003,-1.362000e+000
1.764455e+003,-5.423889e+000
1.765419e+003,-7.444031e+000
1.766383e+003,-7.120667e+000
1.767347e+003,-4.898926e+000
1.768312e+003,-1.237000e+000
1.769276e+003,3.598389e+000
1.770240e+003,6.722229e+000
1.771204e+003,5.374756e+000
1.772168e+003,1.399109e+000
1.773133e+003,-3.113464e+000
1.774097e+003,-7.784424e+000
1.775061e+003,-7.430725e+000
1.776025e+003,-9.758301e-001
1.776990e+003,2.236633e+000
1.777954e+003,-1.927002e+000
1.778918e+003,-6.064209e+000
1.779882e+003,-4.527100e+000
1.780846e+003,-1.101440e+000
1.781811e+003,-4.099731e-001
1.782775e+003,-1.654724e+000
1.783739e+003,-2.502014e+000
1.784703e+003,-2.421143e+000
1.785668e+003,-2.523315e+000
1.786632e+003,-4.622192e+000
1.787596e+003,-6.376892e+000
1.788560e+003,-4.407593e+000
1.789525e+003,-1.010132e+000
1.790489e+003,-8.902588e-001
1.791453e+003,-2.958496e+000
1.792417e+003,-1.458252e+000
1.793382e+003,4.271545e+000
1.794346e+003,7.465332e+000
1.795310e+003,4.322083e+000
1.796274e+003,-8.401489e-001
1.797239e+003,-2.869690e+000
1.798203e+003,-2.207947e+000
1.799167e+003,-2.082275e+000
1.800131e+003,-3.683411e+000
1.801095e+003,-4.494446e+000
1.802060e+003,-2.529541e+000
1.803024e+003,-1.187012e+000
1.803988e+003,-1.975647e+000
1.804952e+003,-2.661560e+000
1.805917e+003,-2.056030e+000
1.806881e+003,-9.851074e-001
1.807845e+003,1.141541e+000
1.808809e+003,2.792725e+000
1.809773e+003,-4.908447e-001
1.810738e+003,-8.122375e+000
1.811702e+003,-1.229913e+001
1.812666e+003,-8.285706e+000
1.813630e+003,-1.139648e+000
1.814595e+003,2.813232e+000
1.815559e+003,3.475647e+000
1.816523e+003,-3.764648e-001
1.817487e+003,-9.506042e+000
1.818452e+003,-1.249915e+001
1.819416e+003,-5.865234e+000
1.820380e+003,-4.198608e-001
1.821344e+003,-2.050171e-001
1.822309e+003,-1.199768e+000
1.823273e+003,-1.560181e+000
1.824237e+003,-8.305054e-001
1.825201e+003,2.804993e+000
1.826166e+003,7.240967e+000
1.827130e+003,6.588318e+000
1.828094e+003,-1.528931e-001
1.829058e+003,-6.302734e+000
1.830022e+003,-8.898376e+000
1.830987e+003,-8.760132e+000
1.831951e+003,-4.566345e+000
1.832915e+003,5.155640e-001
1.833879e+003,1.104309e+000
1.834844e+003,-1.393127e+000
1.835808e+003,-1.446533e+000
1.836772e+003,1.429321e+000
1.837736e+003,1.672729e+000
1.838700e+003,-3.490479e+000
1.839665e+003,-8.518494e+000
1.840629e+003,-7.990112e+000
1.841593e+003,-4.025269e+000
1.842557e+003,-9.479370e-001
1.843522e+003,1.174255e+000
1.844486e+003,-9.430542e-001
1.845450e+003,-1.280664e+001
1.846414e+003,-1.689081e+001
1.847379e+003,-6.768555e+000
1.848343e+003,6.750488e-001
1.849307e+003,-4.123535e-001
1.850271e+003,-4.293945e+000
1.851236e+003,-8.878479e+000
1.852200e+003,-1.172107e+001
1.853164e+003,-9.086731e+000
1.854128e+003,-3.126770e+000
1.855093e+003,-2.124634e-001
1.856057e+003,-2.182739e+000
1.857021e+003,-5.471741e+000
1.857985e+003,-7.660095e+000
1.858949e+003,-8.385864e+000
1.859914e+003,-6.046875e+000
1.860878e+003,-1.270386e+000
1.861842e+003,1.692993e+000
1.862806e+003,2.628906e+000
1.863771e+003,2.360840e+000
1.864735e+003,4.190674e-001
1.865699e+003,-8.654785e-001
1.866663e+003,3.286133e-001
1.867627e+003,1.788391e+000
1.868592e+003,1.052856e+000
1.869556e+003,-1.293030e+000
1.870520e+003,-4.215515e+000
1.871484e+003,-7.289551e+000
1.872449e+003,-6.431946e+000
1.873413e+003,2.000916e+000
1.874377e+003,7.221069e+000
1.875341e+003,1.111633e+000
1.876306e+003,-4.756653e+000
1.877270e+003,-3.538574e+000
1.878234e+003,-7.977295e-002
1.879198e+003,1.771301e+000
1.880163e+003,1.909485e+000
1.881127e+003,1.964722e-001
1.882091e+003,-2.451721e+000
1.883055e+003,-3.339233e+000
1.884020e+003,-1.565552e+000
1.884984e+003,5.580444e-001
1.885948e+003,9.793091e-001
1.886912e+003,1.840820e-001
1.887876e+003,-8.411865e-001
1.888841e+003,-2.056030e+000
1.889805e+003,-3.974609e+000
1.890769e+003,-7.264343e+000
1.891733e+003,-7.320190e+000
1.892698e+003,-2.334656e+000
1.893662e+003,1.693909e+000
1.894626e+003,3.822693e+000
1.895590e+003,3.308105e+000
1.896554e+003,-3.393311e+000
1.897519e+003,-1.034924e+001
1.898483e+003,-1.006555e+001
1.899447e+003,-4.515564e+000
1.900411e+003,7.418213e-001
1.901376e+003,5.150085e+000
1.902340e+003,6.265198e+000
1.903304e+003,8.789673e-001
1.904268e+003,-4.576538e+000
1.905233e+003,-6.065002e+000
1.906197e+003,-5.500366e+000
1.907161e+003,-4.607117e+000
1.908125e+003,-3.058411e+000
1.909090e+003,4.426880e-001
1.910054e+003,4.801086e+000
1.911018e+003,6.539490e+000
1.911982e+003,4.975098e+000
1.912947e+003,2.926636e+000
1.913911e+003,2.323669e+000
1.914875e+003,2.988708e+000
1.915839e+003,4.726074e+000
1.916803e+003,6.646729e+000
1.917768e+003,5.576721e+000
1.918732e+003,9.630127e-001
1.919696e+003,-7.608032e-001
1.920660e+003,1.433411e+000
1.921625e+003,4.868958e+000
1.922589e+003,1.061145e+001
1.923553e+003,1.416870e+001
1.924517e+003,1.056085e+001
1.925481e+003,6.166626e+000
1.926446e+003,7.406677e+000
1.927410e+003,1.165643e+001
1.928374e+003,1.392572e+001
1.929338e+003,1.347742e+001
1.930303e+003,1.052698e+001
1.931267e+003,4.707458e+000
1.932231e+003,1.172485e-001
1.933195e+003,-2.701538e+000
1.934160e+003,-3.227234e+000
1.935124e+003,1.037842e+000
1.936088e+003,5.833496e+000
1.937052e+003,6.390991e+000
1.938017e+003,3.882202e+000
1.938981e+003,4.177856e-001
1.939945e+003,-2.913269e+000
1.940909e+003,-4.007935e+000
1.941874e+003,-2.292908e+000
1.942838e+003,-8.950195e-001
1.943802e+003,-2.414856e+000
1.944766e+003,-4.667419e+000
1.945730e+003,-4.027893e+000
1.946695e+003,-1.226746e+000
1.947659e+003,2.909546e-001
1.948623e+003,2.730103e-001
1.949587e+003,7.461548e-001
1.950552e+003,2.692810e+000
1.951516e+003,2.656921e+000
1.952480e+003,-2.411377e+000
1.953444e+003,-5.516968e+000
1.954408e+003,7.121582e-001
1.955373e+003,8.517700e+000
1.956337e+003,5.902466e+000
1.957301e+003,-3.294250e+000
1.958265e+003,-7.200073e+000
1.959230e+003,-5.028198e+000
1.960194e+003,-1.437439e+000
1.961158e+003,4.434204e+000
1.962122e+003,7.796204e+000
1.963087e+003,5.793274e+000
1.964051e+003,3.179810e+000
1.965015e+003,3.825989e+000
1.965979e+003,5.054443e+000
1.966944e+003,2.422974e+000
1.967908e+003,-1.978699e+000
1.968872e+003,-3.202026e+000
1.969836e+003,-9.475098e-001
1.970801e+003,1.577881e+000
1.971765e+003,2.963074e+000
1.972729e+003,3.463257e+000
1.973693e+003,3.023254e+000
1.974657e+003,2.482605e+000
1.975622e+003,3.152832e+000
1.976586e+003,4.369141e+000
1.977550e+003,4.867981e+000
1.978514e+003,4.870728e+000
1.979479e+003,5.056763e+000
1.980443e+003,5.360291e+000
1.981407e+003,4.107056e+000
1.982371e+003,6.743774e-001
1.983335e+003,-3.967285e-001
1.984300e+003,4.495972e+000
1.985264e+003,1.101917e+001
1.986228e+003,1.289423e+001
1.987192e+003,1.072168e+001
1.988157e+003,7.433044e+000
1.989121e+003,2.484680e+000
1.990085e+003,3.964233e-001
1.991049e+003,3.450806e+000
1.992014e+003,5.292908e+000
1.992978e+003,3.337891e+000
1.993942e+003,2.056458e+000
1.994906e+003,3.492798e+000
1.995871e+003,5.629272e+000
1.996835e+003,7.593506e+000
1.997799e+003,9.267578e+000
1.998763e+003,1.073962e+001
1.999728e+003,1.141443e+001
