5.003444e+002,3.544641e+001
5.013087e+002,3.579456e+001
5.022729e+002,3.240100e+001
5.032371e+002,2.713861e+001
5.042014e+002,2.500171e+001
5.051656e+002,2.561450e+001
5.061298e+002,2.682300e+001
5.070941e+002,2.655908e+001
5.080583e+002,2.416248e+001
5.090225e+002,2.267596e+001
5.099868e+002,2.217291e+001
5.109510e+002,2.211279e+001
5.119152e+002,2.260059e+001
5.128795e+002,2.374091e+001
5.138437e+002,2.410944e+001
5.148079e+002,2.253534e+001
5.157722e+002,2.094623e+001
5.167364e+002,1.998438e+001
5.177006e+002,1.960712e+001
5.186649e+002,1.924384e+001
5.196291e+002,1.861688e+001
5.205933e+002,1.823853e+001
5.215576e+002,1.796844e+001
5.225218e+002,1.752686e+001
5.234860e+002,1.692120e+001
5.244503e+002,1.666980e+001
5.254145e+002,1.758643e+001
5.263787e+002,1.726642e+001
5.273430e+002,1.476630e+001
5.283072e+002,1.167206e+001
5.292714e+002,1.003967e+001
5.302357e+002,9.970398e+000
5.311999e+002,9.986450e+000
5.321641e+002,1.065417e+001
5.331284e+002,1.170178e+001
5.340926e+002,1.263245e+001
5.350568e+002,1.301819e+001
5.360211e+002,1.324969e+001
5.369853e+002,1.531573e+001
5.379495e+002,1.740350e+001
5.389138e+002,1.722919e+001
5.398780e+002,1.411707e+001
5.408422e+002,9.581055e+000
5.418065e+002,8.129211e+000
5.427707e+002,9.331055e+000
5.437349e+002,1.067487e+001
5.446992e+002,1.159839e+001
5.456634e+002,1.206116e+001
5.466276e+002,1.209186e+001
5.475919e+002,1.177100e+001
5.485561e+002,1.112683e+001
5.495203e+002,9.347473e+000
5.504846e+002,7.168823e+000
5.514488e+002,5.903320e+000
5.524130e+002,6.662415e+000
5.533773e+002,7.616211e+000
5.543415e+002,7.477661e+000
5.553057e+002,7.119629e+000
5.562700e+002,7.546021e+000
5.572342e+002,9.300598e+000
5.581984e+002,1.138550e+001
5.591627e+002,1.180096e+001
5.601269e+002,1.124719e+001
5.610911e+002,1.013354e+001
5.620554e+002,8.411499e+000
5.630196e+002,6.196838e+000
5.639838e+002,6.196899e+000
5.649481e+002,1.174463e+001
5.659123e+002,1.474030e+001
5.668765e+002,1.305841e+001
5.678408e+002,8.411011e+000
5.688050e+002,4.925171e+000
5.697692e+002,3.260376e+000
5.707335e+002,2.080078e+000
5.716977e+002,1.845886e+000
5.726619e+002,1.863525e+000
5.736262e+002,1.049255e+000
5.745904e+002,-1.508972e+000
5.755546e+002,-3.966492e+000
5.765189e+002,-3.994690e+000
5.774831e+002,-2.570984e+000
5.784473e+002,-3.889160e-001
5.794116e+002,2.237305e+000
5.803758e+002,5.396851e+000
5.813400e+002,6.082031e+000
5.823043e+002,3.018005e+000
5.832685e+002,-2.642822e-002
5.842327e+002,-1.520081e+000
5.851970e+002,-1.330566e+000
5.861612e+002,-3.819580e-001
5.871254e+002,2.500183e+000
5.880897e+002,4.024048e+000
5.890539e+002,2.293884e+000
5.900181e+002,-1.222839e+000
5.909824e+002,-3.953491e+000
5.919466e+002,-4.038269e+000
5.929108e+002,-2.869385e+000
5.938751e+002,-1.763306e+000
5.948393e+002,-9.045410e-001
5.958035e+002,-7.413940e-001
5.967678e+002,-1.506348e+000
5.977320e+002,-2.746033e+000
5.986962e+002,-1.875183e+000
5.996605e+002,5.905151e-001
6.006247e+002,2.803284e+000
6.015889e+002,4.473755e+000
6.025532e+002,5.554199e+000
6.035174e+002,4.746765e+000
6.044816e+002,-6.038818e-001
6.054459e+002,-4.938477e+000
6.064101e+002,-7.820740e+000
6.073743e+002,-9.134460e+000
6.083386e+002,-8.511047e+000
6.093028e+002,-4.637878e+000
6.102670e+002,-7.080688e-001
6.112313e+002,6.987305e-001
6.121955e+002,5.421143e-001
6.131597e+002,7.855225e-002
6.141240e+002,1.517334e-001
6.150882e+002,4.336548e-001
6.160524e+002,-8.238525e-001
6.170167e+002,-3.123108e+000
6.179809e+002,-3.784424e+000
6.189451e+002,-1.229187e+000
6.199094e+002,3.737976e+000
6.208736e+002,6.478699e+000
6.218378e+002,5.996643e+000
6.228021e+002,5.043396e+000
6.237663e+002,3.583435e+000
6.247305e+002,1.991455e+000
6.256948e+002,6.550293e-001
6.266590e+002,-5.029297e-001
6.276232e+002,-1.966492e+000
6.285875e+002,-4.320129e+000
6.295517e+002,-6.329407e+000
6.305159e+002,-6.619995e+000
6.314802e+002,-4.636230e+000
6.324444e+002,-1.570435e+000
6.334086e+002,2.185059e-001
6.343729e+002,1.291077e+000
6.353371e+002,1.696106e+000
6.363013e+002,1.227173e+000
6.372656e+002,1.495361e-002
6.382298e+002,-1.100403e+000
6.391940e+002,-1.961731e+000
6.401583e+002,-3.283264e+000
6.411225e+002,-5.264954e+000
6.420867e+002,-6.734375e+000
6.430510e+002,-6.276184e+000
6.440152e+002,-3.169373e+000
6.449794e+002,-9.287720e-001
6.459437e+002,-1.542725e+000
6.469079e+002,-3.367676e+000
6.478721e+002,-5.245667e+000
6.488364e+002,-6.586304e+000
6.498006e+002,-7.494629e+000
6.507648e+002,-8.707214e+000
6.517291e+002,-9.851501e+000
6.526933e+002,-9.172668e+000
6.536575e+002,-6.241089e+000
6.546218e+002,-2.611755e+000
6.555860e+002,-1.282654e+000
6.565502e+002,-3.765320e+000
6.575145e+002,-5.714478e+000
6.584787e+002,-7.580505e+000
6.594429e+002,-8.602356e+000
6.604072e+002,-7.800842e+000
6.613714e+002,-4.820740e+000
6.623356e+002,-2.034363e+000
6.632999e+002,-9.722900e-002
6.642641e+002,4.243164e-001
6.652283e+002,-1.400330e+000
6.661926e+002,-4.804382e+000
6.671568e+002,-7.664795e+000
6.681210e+002,-7.260986e+000
6.690853e+002,-5.193970e+000
6.700495e+002,-5.770813e+000
6.710137e+002,-8.838806e+000
6.719780e+002,-1.149799e+001
6.729422e+002,-1.059967e+001
6.739064e+002,-5.486450e+000
6.748707e+002,-1.571716e+000
6.758349e+002,2.236206e+000
6.767991e+002,3.912598e+000
6.777634e+002,1.357788e+000
6.787276e+002,-4.299377e+000
6.796918e+002,-7.052795e+000
6.806561e+002,-2.247009e+000
6.816203e+002,2.487000e+000
6.825845e+002,5.078735e+000
6.835488e+002,5.412415e+000
6.845130e+002,3.253052e+000
6.854772e+002,-1.860596e+000
6.864415e+002,-7.350098e+000
6.874057e+002,-7.630615e+000
6.883699e+002,-4.728027e+000
6.893342e+002,-2.337402e+000
6.902984e+002,-2.325989e+000
6.912626e+002,-4.402405e+000
6.922269e+002,-7.457886e+000
6.931911e+002,-1.426355e+001
6.941553e+002,-1.685767e+001
6.951196e+002,-1.212115e+001
6.960838e+002,-4.391724e+000
6.970480e+002,-6.344604e-001
6.980123e+002,-4.008240e+000
6.989765e+002,-6.328064e+000
6.999407e+002,-3.458557e+000
7.009050e+002,9.312134e-001
7.018692e+002,4.295532e+000
7.028334e+002,5.545349e+000
7.037977e+002,5.111694e+000
7.047619e+002,3.405518e+000
7.057261e+002,1.083801e+000
7.066904e+002,-1.562195e+000
7.076546e+002,-4.499817e+000
7.086188e+002,-6.887573e+000
7.095831e+002,-7.312988e+000
7.105473e+002,-5.240479e+000
7.115115e+002,-3.433228e+000
7.124758e+002,-1.338501e+000
7.134400e+002,-2.183228e-001
7.144042e+002,-8.590088e-001
7.153685e+002,-3.087524e+000
7.163327e+002,-5.592407e+000
7.172969e+002,-9.723389e+000
7.182612e+002,-1.196179e+001
7.192254e+002,-8.964661e+000
7.201896e+002,-3.181091e+000
7.211539e+002,4.435425e-001
7.221181e+002,-2.409180e+000
7.230823e+002,-9.073730e+000
7.240466e+002,-1.244122e+001
7.250108e+002,-1.272241e+001
7.259750e+002,-1.128021e+001
7.269393e+002,-9.106812e+000
7.279035e+002,-6.748352e+000
7.288677e+002,-5.041626e+000
7.298320e+002,-2.861084e+000
7.307962e+002,-1.022583e+000
7.317604e+002,1.550293e-002
7.327247e+002,9.570313e-001
7.336889e+002,2.862061e+000
7.346531e+002,6.112732e+000
7.356174e+002,6.921509e+000
7.365816e+002,2.023010e+000
7.375458e+002,-3.321289e+000
7.385101e+002,-4.777039e+000
7.394743e+002,-1.556824e+000
7.404385e+002,3.424988e+000
7.414028e+002,5.761536e+000
7.423670e+002,4.970093e+000
7.433312e+002,3.741577e+000
7.442955e+002,2.865234e+000
7.452597e+002,2.517883e+000
7.462239e+002,2.503723e+000
7.471882e+002,2.549866e+000
7.481524e+002,3.279236e+000
7.491166e+002,4.382019e+000
7.500809e+002,5.114929e+000
7.510451e+002,5.788330e+000
7.520093e+002,5.993774e+000
7.529736e+002,4.240784e+000
7.539378e+002,-1.532471e+000
7.549020e+002,-6.058167e+000
7.558663e+002,-5.502319e+000
7.568306e+002,-2.160950e+000
7.577948e+002,7.471313e-001
7.587590e+002,1.139343e+000
7.597233e+002,-3.247681e-001
7.606875e+002,-8.663330e-001
7.616517e+002,-2.904663e-001
7.626160e+002,4.722900e-001
7.635802e+002,1.319092e+000
7.645444e+002,2.304443e+000
7.655087e+002,3.566589e+000
7.664729e+002,5.735229e+000
7.674371e+002,6.288574e+000
7.684014e+002,3.983276e+000
7.693656e+002,1.264709e+000
7.703298e+002,-5.391235e-001
7.712941e+002,-1.096069e+000
7.722583e+002,-4.978638e-001
7.732225e+002,2.199097e+000
7.741868e+002,5.068604e+000
7.751510e+002,6.696228e+000
7.761152e+002,7.205566e+000
7.770795e+002,7.106995e+000
7.780437e+002,6.781433e+000
7.790079e+002,6.112976e+000
7.799722e+002,5.040894e+000
7.809364e+002,3.557129e+000
7.819006e+002,1.968689e+000
7.828649e+002,4.749146e-001
7.838291e+002,-5.871582e-001
7.847933e+002,-7.078857e-001
7.857576e+002,5.456543e-001
7.867218e+002,6.235352e-001
7.876860e+002,-1.468323e+000
7.886503e+002,-3.511536e+000
7.896145e+002,-3.686340e+000
7.905787e+002,-1.548584e+000
7.915430e+002,1.781494e+000
7.925072e+002,6.306091e+000
7.934714e+002,9.719482e+000
7.944357e+002,9.216858e+000
7.953999e+002,5.441162e+000
7.963641e+002,1.277100e+000
7.973284e+002,-2.081909e-001
7.982926e+002,1.198914e+000
7.992568e+002,1.660706e+000
8.002211e+002,-1.024780e-001
8.011853e+002,-2.339905e+000
8.021495e+002,-4.207825e+000
8.031138e+002,-4.873535e+000
8.040780e+002,-3.158997e+000
8.050422e+002,2.363159e+000
8.060065e+002,6.960571e+000
8.069707e+002,9.078674e+000
8.079349e+002,9.199768e+000
8.088992e+002,7.474731e+000
8.098634e+002,4.397461e+000
8.108276e+002,1.401611e+000
8.117919e+002,-6.945801e-002
8.127561e+002,-7.649536e-001
8.137203e+002,-7.165527e-002
8.146846e+002,2.464783e+000
8.156488e+002,4.909302e+000
8.166130e+002,4.284668e+000
8.175773e+002,-5.213013e-001
8.185415e+002,-2.392273e+000
8.195057e+002,-2.216187e-001
8.204700e+002,2.034302e+000
8.214342e+002,3.484619e+000
8.223984e+002,4.039978e+000
8.233627e+002,3.396362e+000
8.243269e+002,4.872437e-001
8.252911e+002,-1.221680e+000
8.262554e+002,6.353760e-001
8.272196e+002,4.022339e+000
8.281838e+002,7.123962e+000
8.291481e+002,9.080322e+000
8.301123e+002,1.000647e+001
8.310765e+002,9.966248e+000
8.320408e+002,8.826050e+000
8.330050e+002,7.240906e+000
8.339692e+002,5.110535e+000
8.349335e+002,3.329956e+000
8.358977e+002,2.945190e+000
8.368619e+002,4.296021e+000
8.378262e+002,6.516907e+000
8.387904e+002,1.053308e+001
8.397546e+002,1.355444e+001
8.407189e+002,1.494360e+001
8.416831e+002,1.494214e+001
8.426473e+002,1.373346e+001
8.436116e+002,1.108051e+001
8.445758e+002,8.934509e+000
8.455400e+002,9.282288e+000
8.465043e+002,1.032562e+001
8.474685e+002,1.068475e+001
8.484327e+002,1.032855e+001
8.493970e+002,1.017157e+001
8.503612e+002,1.123749e+001
8.513254e+002,1.366968e+001
8.522897e+002,1.434338e+001
8.532539e+002,1.187494e+001
8.542181e+002,9.092712e+000
8.551824e+002,8.137878e+000
8.561466e+002,9.264648e+000
8.571108e+002,1.086853e+001
8.580751e+002,1.139520e+001
8.590393e+002,1.177203e+001
8.600035e+002,1.301752e+001
8.609678e+002,1.470209e+001
8.619320e+002,1.616016e+001
8.628962e+002,1.707776e+001
8.638605e+002,1.783789e+001
8.648247e+002,1.928784e+001
8.657889e+002,2.088312e+001
8.667532e+002,2.172186e+001
8.677174e+002,2.167737e+001
8.686816e+002,2.085138e+001
8.696459e+002,1.936414e+001
8.706101e+002,1.734906e+001
8.715743e+002,1.555347e+001
8.725386e+002,1.168365e+001
8.735028e+002,1.089337e+001
8.744670e+002,1.659863e+001
8.754313e+002,2.516187e+001
8.763955e+002,3.007397e+001
8.773597e+002,2.881018e+001
8.783240e+002,2.605646e+001
8.792882e+002,2.338263e+001
8.802524e+002,2.172833e+001
8.812167e+002,2.333643e+001
8.821809e+002,2.773285e+001
8.831451e+002,3.140735e+001
8.841094e+002,2.961578e+001
8.850736e+002,2.306555e+001
8.860378e+002,2.152570e+001
8.870021e+002,2.583533e+001
8.879663e+002,3.033411e+001
8.889305e+002,3.146539e+001
8.898948e+002,2.981793e+001
8.908590e+002,2.911456e+001
8.918232e+002,3.028107e+001
8.927875e+002,3.216443e+001
8.937517e+002,3.587256e+001
8.947159e+002,3.917828e+001
8.956802e+002,3.947729e+001
8.966444e+002,3.632538e+001
8.976086e+002,3.212421e+001
8.985729e+002,2.923779e+001
8.995371e+002,2.797144e+001
9.005013e+002,2.817572e+001
9.014656e+002,2.986938e+001
9.024298e+002,3.252313e+001
9.033940e+002,3.562646e+001
9.043583e+002,3.860138e+001
9.053225e+002,3.963721e+001
9.062867e+002,3.539520e+001
9.072510e+002,3.292114e+001
9.082152e+002,3.440454e+001
9.091794e+002,3.736273e+001
9.101437e+002,3.909894e+001
9.111079e+002,3.912903e+001
9.120721e+002,3.945386e+001
9.130364e+002,4.136481e+001
9.140006e+002,4.302411e+001
9.149648e+002,4.434851e+001
9.159291e+002,4.508282e+001
9.168933e+002,4.410474e+001
9.178575e+002,4.049097e+001
9.188218e+002,3.525543e+001
9.197860e+002,3.287415e+001
9.207502e+002,3.316333e+001
9.217145e+002,3.346277e+001
9.226787e+002,3.391827e+001
9.236429e+002,3.465131e+001
9.246072e+002,3.556281e+001
9.255714e+002,3.652478e+001
9.265356e+002,3.655182e+001
9.274999e+002,3.484692e+001
9.284641e+002,3.249646e+001
9.294283e+002,2.877911e+001
9.303926e+002,2.527197e+001
9.313568e+002,2.486786e+001
9.323210e+002,2.921875e+001
9.332853e+002,3.478131e+001
9.342495e+002,3.592749e+001
9.352137e+002,3.427905e+001
9.361780e+002,3.195166e+001
9.371422e+002,2.978320e+001
9.381064e+002,2.786188e+001
9.390707e+002,2.557532e+001
9.400349e+002,2.182104e+001
9.409991e+002,2.216296e+001
9.419634e+002,3.098102e+001
9.429276e+002,3.749512e+001
9.438918e+002,3.779449e+001
9.448561e+002,3.457117e+001
9.458203e+002,3.229053e+001
9.467845e+002,3.226019e+001
9.477488e+002,3.350452e+001
9.487130e+002,3.655591e+001
9.496772e+002,3.945435e+001
9.506415e+002,3.992731e+001
9.516057e+002,3.841846e+001
9.525699e+002,3.756659e+001
9.535342e+002,3.996918e+001
9.544984e+002,4.476782e+001
9.554626e+002,4.564368e+001
9.564269e+002,4.259314e+001
9.573911e+002,4.012799e+001
9.583553e+002,3.877783e+001
9.593196e+002,3.868231e+001
9.602838e+002,4.093512e+001
9.612480e+002,4.661469e+001
9.622123e+002,4.944147e+001
9.631765e+002,4.504388e+001
9.641407e+002,4.036877e+001
9.651050e+002,3.840869e+001
9.660692e+002,3.849219e+001
9.670334e+002,3.886823e+001
9.679977e+002,3.873218e+001
9.689619e+002,3.842792e+001
9.699261e+002,3.739124e+001
9.708904e+002,3.563782e+001
9.718546e+002,3.420050e+001
9.728188e+002,3.301483e+001
9.737831e+002,3.252100e+001
9.747473e+002,3.378107e+001
9.757115e+002,3.743768e+001
9.766758e+002,4.020447e+001
9.776400e+002,4.204596e+001
9.786042e+002,4.378149e+001
9.795685e+002,4.592548e+001
9.805327e+002,4.728564e+001
9.814969e+002,4.582745e+001
9.824612e+002,4.112695e+001
9.834254e+002,3.753345e+001
9.843896e+002,4.040979e+001
9.853539e+002,4.532928e+001
9.863181e+002,4.792529e+001
9.872823e+002,4.769861e+001
9.882466e+002,4.578497e+001
9.892108e+002,4.349890e+001
9.901750e+002,4.173145e+001
9.911393e+002,4.245850e+001
9.921035e+002,4.655029e+001
9.930677e+002,4.919263e+001
9.940320e+002,4.876569e+001
9.949962e+002,4.884723e+001
9.959604e+002,5.348505e+001
9.969247e+002,6.279889e+001
9.978889e+002,7.138898e+001
9.988531e+002,7.573981e+001
9.998174e+002,7.838055e+001
1.000782e+003,8.114197e+001
1.001746e+003,8.408490e+001
1.002710e+003,8.735773e+001
1.003674e+003,9.071613e+001
1.004639e+003,9.287451e+001
1.005603e+003,9.133331e+001
1.006567e+003,8.547278e+001
1.007531e+003,8.183026e+001
1.008495e+003,8.108716e+001
1.009460e+003,8.116400e+001
1.010424e+003,8.107294e+001
1.011388e+003,8.101703e+001
1.012352e+003,8.155957e+001
1.013317e+003,8.342432e+001
1.014281e+003,8.383234e+001
1.015245e+003,8.118585e+001
1.016209e+003,7.735187e+001
1.017174e+003,7.404108e+001
1.018138e+003,7.120752e+001
1.019102e+003,6.723102e+001
1.020066e+003,6.065497e+001
1.021031e+003,5.319873e+001
1.021995e+003,4.924347e+001
1.022959e+003,4.765118e+001
1.023923e+003,4.603528e+001
1.024887e+003,4.384656e+001
1.025852e+003,4.068323e+001
1.026816e+003,3.539990e+001
1.027780e+003,2.722931e+001
1.028744e+003,2.243207e+001
1.029709e+003,2.420355e+001
1.030673e+003,2.594849e+001
1.031637e+003,2.566608e+001
1.032601e+003,2.393475e+001
1.033566e+003,2.156213e+001
1.034530e+003,1.904242e+001
1.035494e+003,1.763281e+001
1.036458e+003,1.943103e+001
1.037422e+003,2.243726e+001
1.038387e+003,2.325800e+001
1.039351e+003,2.184680e+001
1.040315e+003,2.021033e+001
1.041279e+003,2.008356e+001
1.042244e+003,2.117334e+001
1.043208e+003,2.095685e+001
1.044172e+003,1.690320e+001
1.045136e+003,1.509515e+001
1.046101e+003,1.782367e+001
1.047065e+003,2.097314e+001
1.048029e+003,2.195648e+001
1.048993e+003,2.078534e+001
1.049958e+003,1.855377e+001
1.050922e+003,1.525781e+001
1.051886e+003,1.320581e+001
1.052850e+003,1.546381e+001
1.053814e+003,1.967554e+001
1.054779e+003,2.335168e+001
1.055743e+003,2.562909e+001
1.056707e+003,2.601666e+001
1.057671e+003,2.370410e+001
1.058636e+003,1.856903e+001
1.059600e+003,1.739856e+001
1.060564e+003,2.569012e+001
1.061528e+003,3.096191e+001
1.062493e+003,2.800848e+001
1.063457e+003,2.269318e+001
1.064421e+003,2.308514e+001
1.065385e+003,3.006409e+001
1.066349e+003,3.369507e+001
1.067314e+003,2.558057e+001
1.068278e+003,1.660870e+001
1.069242e+003,1.440985e+001
1.070206e+003,1.687634e+001
1.071171e+003,2.056866e+001
1.072135e+003,2.359503e+001
1.073099e+003,2.591632e+001
1.074063e+003,2.789471e+001
1.075028e+003,2.980426e+001
1.075992e+003,2.925403e+001
1.076956e+003,2.386078e+001
1.077920e+003,1.961267e+001
1.078885e+003,2.077002e+001
1.079849e+003,2.440833e+001
1.080813e+003,2.401001e+001
1.081777e+003,1.770447e+001
1.082741e+003,1.344714e+001
1.083706e+003,1.622247e+001
1.084670e+003,2.047308e+001
1.085634e+003,2.445032e+001
1.086598e+003,2.735376e+001
1.087563e+003,2.841217e+001
1.088527e+003,2.749554e+001
1.089491e+003,2.571130e+001
1.090455e+003,2.443054e+001
1.091420e+003,2.333948e+001
1.092384e+003,2.326898e+001
1.093348e+003,2.479333e+001
1.094312e+003,2.558978e+001
1.095276e+003,2.403375e+001
1.096241e+003,2.128613e+001
1.097205e+003,2.026135e+001
1.098169e+003,2.166718e+001
1.099133e+003,2.260461e+001
1.100098e+003,2.195929e+001
1.101062e+003,2.100446e+001
1.102026e+003,2.031122e+001
1.102990e+003,2.005652e+001
1.103955e+003,1.985632e+001
1.104919e+003,1.943823e+001
1.105883e+003,1.990448e+001
1.106847e+003,2.480444e+001
1.107812e+003,3.398834e+001
1.108776e+003,3.763922e+001
1.109740e+003,3.290668e+001
1.110704e+003,2.773175e+001
1.111668e+003,2.922943e+001
1.112633e+003,3.579730e+001
1.113597e+003,3.870099e+001
1.114561e+003,3.481885e+001
1.115525e+003,3.175293e+001
1.116490e+003,3.111847e+001
1.117454e+003,3.242725e+001
1.118418e+003,3.743634e+001
1.119382e+003,4.451965e+001
1.120347e+003,4.949951e+001
1.121311e+003,4.946234e+001
1.122275e+003,4.633350e+001
1.123239e+003,4.521661e+001
1.124203e+003,4.653064e+001
1.125168e+003,4.715283e+001
1.126132e+003,4.640100e+001
1.127096e+003,4.656696e+001
1.128060e+003,4.990320e+001
1.129025e+003,5.540796e+001
1.129989e+003,5.876746e+001
1.130953e+003,5.797986e+001
1.131917e+003,5.854199e+001
1.132882e+003,6.353619e+001
1.133846e+003,6.896033e+001
1.134810e+003,7.267395e+001
1.135774e+003,7.477612e+001
1.136739e+003,7.540308e+001
1.137703e+003,7.470593e+001
1.138667e+003,7.524377e+001
1.139631e+003,8.247406e+001
1.140595e+003,9.557843e+001
1.141560e+003,1.069272e+002
1.142524e+003,1.161788e+002
1.143488e+003,1.251279e+002
1.144452e+003,1.329703e+002
1.145417e+003,1.412137e+002
1.146381e+003,1.564092e+002
1.147345e+003,1.820416e+002
1.148309e+003,2.051504e+002
1.149274e+003,2.204236e+002
1.150238e+003,2.352642e+002
1.151202e+003,2.540438e+002
1.152166e+003,2.756005e+002
1.153130e+003,2.979673e+002
1.154095e+003,3.193431e+002
1.155059e+003,3.358865e+002
1.156023e+003,3.424077e+002
1.156987e+003,3.395889e+002
1.157952e+003,3.352682e+002
1.158916e+003,3.307708e+002
1.159880e+003,3.229793e+002
1.160844e+003,3.076525e+002
1.161809e+003,2.870120e+002
1.162773e+003,2.675322e+002
1.163737e+003,2.496911e+002
1.164701e+003,2.312866e+002
1.165666e+003,2.101447e+002
1.166630e+003,1.907407e+002
1.167594e+003,1.736404e+002
1.168558e+003,1.596713e+002
1.169522e+003,1.502138e+002
1.170487e+003,1.453760e+002
1.171451e+003,1.436901e+002
1.172415e+003,1.437487e+002
1.173379e+003,1.449566e+002
1.174344e+003,1.454413e+002
1.175308e+003,1.456944e+002
1.176272e+003,1.432450e+002
1.177236e+003,1.345884e+002
1.178201e+003,1.252287e+002
1.179165e+003,1.234663e+002
1.180129e+003,1.290812e+002
1.181093e+003,1.295238e+002
1.182057e+003,1.180251e+002
1.183022e+003,1.078176e+002
1.183986e+003,1.044645e+002
1.184950e+003,1.041592e+002
1.185914e+003,1.034917e+002
1.186879e+003,1.020574e+002
1.187843e+003,1.015792e+002
1.188807e+003,1.033563e+002
1.189771e+003,1.061857e+002
1.190736e+003,1.068181e+002
1.191700e+003,1.048785e+002
1.192664e+003,1.041814e+002
1.193628e+003,1.068298e+002
1.194593e+003,1.090629e+002
1.195557e+003,1.073777e+002
1.196521e+003,1.028983e+002
1.197485e+003,1.002886e+002
1.198449e+003,1.014468e+002
1.199414e+003,1.008912e+002
1.200378e+003,9.408630e+001
1.201342e+003,8.671350e+001
1.202306e+003,8.175183e+001
1.203271e+003,7.891516e+001
1.204235e+003,7.722064e+001
1.205199e+003,7.611890e+001
1.206163e+003,7.521606e+001
1.207128e+003,7.376440e+001
1.208092e+003,7.180353e+001
1.209056e+003,6.881183e+001
1.210020e+003,6.450372e+001
1.210984e+003,6.004254e+001
1.211949e+003,5.564612e+001
1.212913e+003,5.112213e+001
1.213877e+003,4.631543e+001
1.214841e+003,4.136267e+001
1.215806e+003,3.675043e+001
1.216770e+003,3.251117e+001
1.217734e+003,2.869818e+001
1.218698e+003,2.486829e+001
1.219663e+003,2.125775e+001
1.220627e+003,1.820947e+001
1.221591e+003,1.583362e+001
1.222555e+003,1.418359e+001
1.223520e+003,1.342224e+001
1.224484e+003,1.346655e+001
1.225448e+003,1.298944e+001
1.226412e+003,1.076520e+001
1.227376e+003,1.075500e+001
1.228341e+003,1.511743e+001
1.229305e+003,1.887030e+001
1.230269e+003,1.935254e+001
1.231233e+003,1.724237e+001
1.232198e+003,1.362073e+001
1.233162e+003,8.797852e+000
1.234126e+003,5.629517e+000
1.235090e+003,6.693176e+000
1.236055e+003,9.409302e+000
1.237019e+003,1.189526e+001
1.237983e+003,1.351599e+001
1.238947e+003,1.303149e+001
1.239911e+003,1.017749e+001
1.240876e+003,6.480591e+000
1.241840e+003,3.610229e+000
1.242804e+003,1.440063e+000
1.243768e+003,2.720276e+000
1.244733e+003,1.275330e+001
1.245697e+003,1.920154e+001
1.246661e+003,1.846027e+001
1.247625e+003,1.543536e+001
1.248590e+003,1.319562e+001
1.249554e+003,1.258783e+001
1.250518e+003,1.414301e+001
1.251482e+003,1.806500e+001
1.252447e+003,2.167273e+001
1.253411e+003,2.146851e+001
1.254375e+003,1.946552e+001
1.255339e+003,1.982343e+001
1.256303e+003,2.281195e+001
1.257268e+003,2.562006e+001
1.258232e+003,2.598077e+001
1.259196e+003,2.506317e+001
1.260160e+003,2.626459e+001
1.261125e+003,3.051233e+001
1.262089e+003,3.361353e+001
1.263053e+003,3.260425e+001
1.264017e+003,3.272968e+001
1.264982e+003,3.676508e+001
1.265946e+003,4.167743e+001
1.266910e+003,4.466064e+001
1.267874e+003,4.555139e+001
1.268839e+003,4.612488e+001
1.269803e+003,4.760095e+001
1.270767e+003,4.848016e+001
1.271731e+003,4.530115e+001
1.272695e+003,3.844580e+001
1.273660e+003,3.413269e+001
1.274624e+003,3.272485e+001
1.275588e+003,3.134283e+001
1.276552e+003,2.903833e+001
1.277517e+003,2.629736e+001
1.278481e+003,2.329883e+001
1.279445e+003,1.985089e+001
1.280409e+003,1.686700e+001
1.281374e+003,1.436987e+001
1.282338e+003,1.303943e+001
1.283302e+003,1.375061e+001
1.284266e+003,1.524603e+001
1.285230e+003,1.674481e+001
1.286195e+003,1.754486e+001
1.287159e+003,1.628857e+001
1.288123e+003,1.201978e+001
1.289087e+003,6.424255e+000
1.290052e+003,3.854004e+000
1.291016e+003,4.870056e+000
1.291980e+003,5.945374e+000
1.292944e+003,7.375244e+000
1.293909e+003,7.719360e+000
1.294873e+003,5.954163e+000
1.295837e+003,3.732910e+000
1.296801e+003,3.304626e+000
1.297766e+003,4.874756e+000
1.298730e+003,6.597778e+000
1.299694e+003,7.324951e+000
1.300658e+003,7.511780e+000
1.301622e+003,8.419861e+000
1.302587e+003,9.309509e+000
1.303551e+003,8.143127e+000
1.304515e+003,4.988281e+000
1.305479e+003,2.785278e+000
1.306444e+003,3.800964e+000
1.307408e+003,6.986206e+000
1.308372e+003,9.332458e+000
1.309336e+003,1.018298e+001
1.310301e+003,1.212738e+001
1.311265e+003,1.856598e+001
1.312229e+003,2.254486e+001
1.313193e+003,1.981000e+001
1.314157e+003,1.485443e+001
1.315122e+003,1.273474e+001
1.316086e+003,1.353076e+001
1.317050e+003,1.329565e+001
1.318014e+003,9.477051e+000
1.318979e+003,5.054504e+000
1.319943e+003,5.743591e+000
1.320907e+003,1.095789e+001
1.321871e+003,1.309094e+001
1.322836e+003,1.045020e+001
1.323800e+003,7.650146e+000
1.324764e+003,7.182312e+000
1.325728e+003,8.217285e+000
1.326693e+003,9.536987e+000
1.327657e+003,1.088464e+001
1.328621e+003,1.086029e+001
1.329585e+003,9.400452e+000
1.330549e+003,8.465271e+000
1.331514e+003,7.734680e+000
1.332478e+003,7.077148e+000
1.333442e+003,6.803162e+000
1.334406e+003,7.087036e+000
1.335371e+003,7.882263e+000
1.336335e+003,9.131104e+000
1.337299e+003,1.076971e+001
1.338263e+003,1.264191e+001
1.339228e+003,1.496985e+001
1.340192e+003,1.557092e+001
1.341156e+003,1.302106e+001
1.342120e+003,1.092810e+001
1.343084e+003,9.062073e+000
1.344049e+003,7.701416e+000
1.345013e+003,7.774170e+000
1.345977e+003,9.138977e+000
1.346941e+003,1.099701e+001
1.347906e+003,1.311273e+001
1.348870e+003,1.422540e+001
1.349834e+003,1.200989e+001
1.350798e+003,8.588684e+000
1.351763e+003,8.696106e+000
1.352727e+003,1.191553e+001
1.353691e+003,1.519940e+001
1.354655e+003,1.781696e+001
1.355620e+003,1.909833e+001
1.356584e+003,1.794263e+001
1.357548e+003,1.474725e+001
1.358512e+003,1.158838e+001
1.359476e+003,7.493958e+000
1.360441e+003,4.614685e+000
1.361405e+003,4.324097e+000
1.362369e+003,4.907104e+000
1.363333e+003,6.291504e+000
1.364298e+003,7.710388e+000
1.365262e+003,7.962463e+000
1.366226e+003,7.033508e+000
1.367190e+003,6.424866e+000
1.368155e+003,7.499512e+000
1.369119e+003,9.516113e+000
1.370083e+003,1.012659e+001
1.371047e+003,8.891174e+000
1.372011e+003,9.267029e+000
1.372976e+003,1.315753e+001
1.373940e+003,1.512286e+001
1.374904e+003,1.102179e+001
1.375868e+003,5.681335e+000
1.376833e+003,5.974854e+000
1.377797e+003,1.150153e+001
1.378761e+003,1.531464e+001
1.379725e+003,1.431403e+001
1.380690e+003,1.179279e+001
1.381654e+003,1.100897e+001
1.382618e+003,1.105029e+001
1.383582e+003,1.029803e+001
1.384547e+003,8.874573e+000
1.385511e+003,8.220520e+000
1.386475e+003,8.824707e+000
1.387439e+003,1.059558e+001
1.388403e+003,1.460266e+001
1.389368e+003,2.077661e+001
1.390332e+003,2.231573e+001
1.391296e+003,1.619678e+001
1.392260e+003,1.178986e+001
1.393225e+003,1.137988e+001
1.394189e+003,1.258606e+001
1.395153e+003,1.548212e+001
1.396117e+003,1.852960e+001
1.397082e+003,1.962158e+001
1.398046e+003,1.846893e+001
1.399010e+003,1.642358e+001
1.399974e+003,1.438458e+001
1.400938e+003,1.243616e+001
1.401903e+003,1.247845e+001
1.402867e+003,1.650714e+001
1.403831e+003,1.923816e+001
1.404795e+003,1.859045e+001
1.405760e+003,1.837671e+001
1.406724e+003,1.989856e+001
1.407688e+003,2.102679e+001
1.408652e+003,1.997974e+001
1.409617e+003,1.734381e+001
1.410581e+003,1.444135e+001
1.411545e+003,1.149823e+001
1.412509e+003,9.908325e+000
1.413474e+003,1.207245e+001
1.414438e+003,1.504565e+001
1.415402e+003,1.414111e+001
1.416366e+003,1.039581e+001
1.417330e+003,8.390381e+000
1.418295e+003,1.005768e+001
1.419259e+003,1.348041e+001
1.420223e+003,1.679065e+001
1.421187e+003,1.956628e+001
1.422152e+003,2.064410e+001
1.423116e+003,1.974475e+001
1.424080e+003,1.974408e+001
1.425044e+003,2.121539e+001
1.426009e+003,2.308551e+001
1.426973e+003,2.577026e+001
1.427937e+003,2.805817e+001
1.428901e+003,2.855835e+001
1.429865e+003,2.750214e+001
1.430830e+003,2.587048e+001
1.431794e+003,2.415222e+001
1.432758e+003,2.275098e+001
1.433722e+003,2.303351e+001
1.434687e+003,2.568799e+001
1.435651e+003,2.996716e+001
1.436615e+003,3.731262e+001
1.437579e+003,4.098932e+001
1.438544e+003,3.757208e+001
1.439508e+003,3.360901e+001
1.440472e+003,3.493658e+001
1.441436e+003,3.900079e+001
1.442401e+003,3.963910e+001
1.443365e+003,3.546851e+001
1.444329e+003,3.081079e+001
1.445293e+003,2.899091e+001
1.446257e+003,2.868665e+001
1.447222e+003,2.666565e+001
1.448186e+003,2.350586e+001
1.449150e+003,2.344855e+001
1.450114e+003,2.775366e+001
1.451079e+003,3.083606e+001
1.452043e+003,2.880450e+001
1.453007e+003,2.531982e+001
1.453971e+003,2.575330e+001
1.454936e+003,2.927393e+001
1.455900e+003,2.998505e+001
1.456864e+003,2.568622e+001
1.457828e+003,2.290057e+001
1.458792e+003,2.767657e+001
1.459757e+003,3.282965e+001
1.460721e+003,3.106317e+001
1.461685e+003,2.554700e+001
1.462649e+003,2.406006e+001
1.463614e+003,2.838202e+001
1.464578e+003,3.207544e+001
1.465542e+003,2.883582e+001
1.466506e+003,2.138995e+001
1.467471e+003,1.850763e+001
1.468435e+003,2.166382e+001
1.469399e+003,2.462665e+001
1.470363e+003,2.687744e+001
1.471328e+003,2.800940e+001
1.472292e+003,2.674518e+001
1.473256e+003,2.460565e+001
1.474220e+003,2.237616e+001
1.475184e+003,2.127264e+001
1.476149e+003,2.333002e+001
1.477113e+003,2.828815e+001
1.478077e+003,3.247864e+001
1.479041e+003,3.265942e+001
1.480006e+003,3.027222e+001
1.480970e+003,2.898114e+001
1.481934e+003,2.810010e+001
1.482898e+003,2.942816e+001
1.483863e+003,3.544122e+001
1.484827e+003,3.970288e+001
1.485791e+003,3.979083e+001
1.486755e+003,3.883972e+001
1.487719e+003,3.895276e+001
1.488684e+003,4.010236e+001
1.489648e+003,4.238898e+001
1.490612e+003,4.596692e+001
1.491576e+003,4.880798e+001
1.492541e+003,4.850256e+001
1.493505e+003,4.707379e+001
1.494469e+003,4.939655e+001
1.495433e+003,5.440082e+001
1.496398e+003,5.898724e+001
1.497362e+003,6.346588e+001
1.498326e+003,6.793268e+001
1.499290e+003,7.154089e+001
1.500255e+003,7.561987e+001
1.501219e+003,8.196173e+001
1.502183e+003,9.022784e+001
1.503147e+003,9.894739e+001
1.504111e+003,1.077363e+002
1.505076e+003,1.172783e+002
1.506040e+003,1.281000e+002
1.507004e+003,1.399814e+002
1.507968e+003,1.517186e+002
1.508933e+003,1.644758e+002
1.509897e+003,1.805361e+002
1.510861e+003,2.010284e+002
1.511825e+003,2.264243e+002
1.512790e+003,2.577771e+002
1.513754e+003,2.913569e+002
1.514718e+003,3.200376e+002
1.515682e+003,3.434302e+002
1.516646e+003,3.698774e+002
1.517611e+003,4.032843e+002
1.518575e+003,4.332075e+002
1.519539e+003,4.580214e+002
1.520503e+003,4.777214e+002
1.521468e+003,4.918414e+002
1.522432e+003,5.004915e+002
1.523396e+003,5.038664e+002
1.524360e+003,5.019897e+002
1.525325e+003,4.948321e+002
1.526289e+003,4.825181e+002
1.527253e+003,4.658848e+002
1.528217e+003,4.459283e+002
1.529182e+003,4.229992e+002
1.530146e+003,3.989630e+002
1.531110e+003,3.744745e+002
1.532074e+003,3.466249e+002
1.533039e+003,3.133863e+002
1.534003e+003,2.772571e+002
1.534967e+003,2.371705e+002
1.535931e+003,1.981371e+002
1.536896e+003,1.638201e+002
1.537860e+003,1.358402e+002
1.538824e+003,1.164814e+002
1.539788e+003,1.061756e+002
1.540752e+003,9.892957e+001
1.541717e+003,8.703595e+001
1.542681e+003,7.216467e+001
1.543645e+003,6.347583e+001
1.544609e+003,6.528278e+001
1.545573e+003,6.366583e+001
1.546538e+003,5.425177e+001
1.547502e+003,4.589166e+001
1.548466e+003,4.284930e+001
1.549430e+003,4.270917e+001
1.550395e+003,4.338568e+001
1.551359e+003,4.390515e+001
1.552323e+003,4.318561e+001
1.553287e+003,4.099109e+001
1.554252e+003,3.854077e+001
1.555216e+003,3.688635e+001
1.556180e+003,3.547229e+001
1.557144e+003,3.264148e+001
1.558109e+003,2.854309e+001
1.559073e+003,2.744818e+001
1.560037e+003,3.075452e+001
1.561001e+003,3.270081e+001
1.561966e+003,3.089526e+001
1.562930e+003,2.874475e+001
1.563894e+003,2.951343e+001
1.564858e+003,3.181708e+001
1.565823e+003,3.221399e+001
1.566787e+003,3.005157e+001
1.567751e+003,2.726263e+001
1.568715e+003,2.467029e+001
1.569679e+003,2.332239e+001
1.570644e+003,2.503772e+001
1.571608e+003,2.838147e+001
1.572572e+003,3.006525e+001
1.573536e+003,3.027319e+001
1.574500e+003,3.044708e+001
1.575465e+003,3.083502e+001
1.576429e+003,3.127124e+001
1.577393e+003,3.167969e+001
1.578357e+003,3.170337e+001
1.579322e+003,3.050507e+001
1.580286e+003,2.838788e+001
1.581250e+003,2.793298e+001
1.582214e+003,3.025940e+001
1.583179e+003,3.313873e+001
1.584143e+003,3.577917e+001
1.585107e+003,3.675842e+001
1.586071e+003,3.357898e+001
1.587036e+003,2.838568e+001
1.588000e+003,2.662836e+001
1.588964e+003,2.929163e+001
1.589928e+003,3.236658e+001
1.590893e+003,3.368414e+001
1.591857e+003,3.365283e+001
1.592821e+003,3.190613e+001
1.593785e+003,2.919012e+001
1.594750e+003,3.003088e+001
1.595714e+003,3.554675e+001
1.596678e+003,3.930353e+001
1.597642e+003,3.757483e+001
1.598606e+003,3.514496e+001
1.599571e+003,3.581647e+001
1.600535e+003,3.839240e+001
1.601499e+003,4.223315e+001
1.602463e+003,4.644421e+001
1.603427e+003,4.808789e+001
1.604392e+003,4.585004e+001
1.605356e+003,4.215472e+001
1.606320e+003,3.910248e+001
1.607284e+003,3.665100e+001
1.608249e+003,3.478992e+001
1.609213e+003,3.357019e+001
1.610177e+003,3.136365e+001
1.611141e+003,2.710950e+001
1.612106e+003,2.388202e+001
1.613070e+003,2.417303e+001
1.614034e+003,2.503937e+001
1.614998e+003,2.400024e+001
1.615963e+003,2.226080e+001
1.616927e+003,2.179810e+001
1.617891e+003,2.283960e+001
1.618855e+003,2.465021e+001
1.619820e+003,2.670502e+001
1.620784e+003,2.832281e+001
1.621748e+003,2.954010e+001
1.622712e+003,3.083698e+001
1.623677e+003,3.101300e+001
1.624641e+003,2.993488e+001
1.625605e+003,2.878772e+001
1.626569e+003,2.644702e+001
1.627533e+003,2.401935e+001
1.628498e+003,2.197864e+001
1.629462e+003,2.115723e+001
1.630426e+003,2.373669e+001
1.631390e+003,2.748663e+001
1.632354e+003,2.724634e+001
1.633319e+003,2.209918e+001
1.634283e+003,1.633044e+001
1.635247e+003,1.253973e+001
1.636211e+003,1.139410e+001
1.637176e+003,1.593402e+001
1.638140e+003,2.571741e+001
1.639104e+003,3.062488e+001
1.640068e+003,2.911084e+001
1.641033e+003,2.668134e+001
1.641997e+003,2.376831e+001
1.642961e+003,2.196606e+001
1.643925e+003,2.272925e+001
1.644890e+003,2.422089e+001
1.645854e+003,2.410272e+001
1.646818e+003,2.306946e+001
1.647782e+003,2.370203e+001
1.648747e+003,2.664252e+001
1.649711e+003,2.971289e+001
1.650675e+003,3.156598e+001
1.651639e+003,3.237122e+001
1.652604e+003,3.165424e+001
1.653568e+003,2.921686e+001
1.654532e+003,2.638043e+001
1.655496e+003,2.289001e+001
1.656460e+003,2.017633e+001
1.657425e+003,1.851385e+001
1.658389e+003,1.835089e+001
1.659353e+003,2.157428e+001
1.660317e+003,2.498419e+001
1.661281e+003,2.486841e+001
1.662246e+003,2.171356e+001
1.663210e+003,1.778027e+001
1.664174e+003,1.408160e+001
1.665138e+003,1.181775e+001
1.666103e+003,1.204004e+001
1.667067e+003,1.363507e+001
1.668031e+003,1.494159e+001
1.668995e+003,1.602802e+001
1.669960e+003,1.629956e+001
1.670924e+003,1.560645e+001
1.671888e+003,1.510162e+001
1.672852e+003,1.515161e+001
1.673817e+003,1.493652e+001
1.674781e+003,1.314984e+001
1.675745e+003,1.133807e+001
1.676709e+003,1.167352e+001
1.677674e+003,1.346460e+001
1.678638e+003,1.407892e+001
1.679602e+003,1.272192e+001
1.680566e+003,1.142499e+001
1.681531e+003,1.228400e+001
1.682495e+003,1.401898e+001
1.683459e+003,1.362177e+001
1.684423e+003,1.130951e+001
1.685387e+003,1.041870e+001
1.686352e+003,1.166101e+001
1.687316e+003,1.189874e+001
1.688280e+003,8.945007e+000
1.689244e+003,6.977722e+000
1.690208e+003,1.158533e+001
1.691173e+003,1.684198e+001
1.692137e+003,1.498792e+001
1.693101e+003,8.597412e+000
1.694065e+003,5.656372e+000
1.695030e+003,7.745972e+000
1.695994e+003,1.140912e+001
1.696958e+003,1.637311e+001
1.697922e+003,2.003662e+001
1.698887e+003,1.765350e+001
1.699851e+003,1.167957e+001
1.700815e+003,9.907959e+000
1.701779e+003,1.267126e+001
1.702744e+003,1.308948e+001
1.703708e+003,8.663025e+000
1.704672e+003,4.998901e+000
1.705636e+003,5.746582e+000
1.706601e+003,8.668152e+000
1.707565e+003,1.251300e+001
1.708529e+003,1.660168e+001
1.709493e+003,1.697021e+001
1.710458e+003,1.263055e+001
1.711422e+003,9.001099e+000
1.712386e+003,9.173340e+000
1.713350e+003,1.048932e+001
1.714314e+003,1.082574e+001
1.715279e+003,1.009192e+001
1.716243e+003,7.885132e+000
1.717207e+003,4.836487e+000
1.718171e+003,3.682861e+000
1.719135e+003,5.270020e+000
1.720100e+003,7.397766e+000
1.721064e+003,8.731934e+000
1.722028e+003,8.782471e+000
1.722992e+003,6.784729e+000
1.723957e+003,3.679993e+000
1.724921e+003,2.144714e+000
1.725885e+003,1.481812e+000
1.726849e+003,1.514771e+000
1.727814e+003,4.515503e+000
1.728778e+003,6.765137e+000
1.729742e+003,5.516113e+000
1.730706e+003,3.519958e+000
1.731671e+003,3.159424e+000
1.732635e+003,3.447815e+000
1.733599e+003,2.968140e+000
1.734563e+003,1.886597e+000
1.735528e+003,5.913086e-001
1.736492e+003,-9.066772e-001
1.737456e+003,-1.333984e+000
1.738420e+003,1.129517e+000
1.739385e+003,4.889832e+000
1.740349e+003,5.268494e+000
1.741313e+003,1.755676e+000
1.742277e+003,-8.448486e-001
1.743241e+003,-1.932007e+000
1.744206e+003,-2.389648e+000
1.745170e+003,-2.319702e+000
1.746134e+003,-2.127258e+000
1.747098e+003,-2.020325e+000
1.748063e+003,-1.994629e+000
1.749027e+003,-2.253296e+000
1.749991e+003,-2.394409e+000
1.750955e+003,-1.281067e+000
1.751919e+003,1.087830e+000
1.752884e+003,2.813232e+000
1.753848e+003,2.315613e+000
1.754812e+003,2.218018e-001
1.755776e+003,-2.123169e+000
1.756741e+003,-4.275269e+000
1.757705e+003,-4.300659e+000
1.758669e+003,-1.601379e+000
1.759633e+003,3.749390e-001
1.760598e+003,3.780518e-001
1.761562e+003,2.285156e-001
1.762526e+003,2.020325e+000
1.763490e+003,3.130066e+000
1.764455e+003,8.264160e-001
1.765419e+003,-2.834106e+000
1.766383e+003,-5.147339e+000
1.767347e+003,-5.791687e+000
1.768312e+003,-5.111084e+000
1.769276e+003,-3.359192e+000
1.770240e+003,-1.685059e+000
1.771204e+003,-4.757080e-001
1.772168e+003,3.795166e-001
1.773133e+003,-5.703735e-001
1.774097e+003,-2.953186e+000
1.775061e+003,-2.181580e+000
1.776025e+003,2.362732e+000
1.776990e+003,5.169800e+000
1.777954e+003,4.478516e+000
1.778918e+003,3.070679e+000
1.779882e+003,2.582397e+000
1.780846e+003,1.913330e+000
1.781811e+003,-3.596802e-001
1.782775e+003,-3.496643e+000
1.783739e+003,-5.460449e+000
1.784703e+003,-5.815674e+000
1.785668e+003,-4.979614e+000
1.786632e+003,-2.348022e+000
1.787596e+003,-7.202759e-001
1.788560e+003,-2.407288e+000
1.789525e+003,-4.957642e+000
1.790489e+003,-5.404236e+000
1.791453e+003,-4.439575e+000
1.792417e+003,-4.534485e+000
1.793382e+003,-5.969910e+000
1.794346e+003,-6.015381e+000
1.795310e+003,-3.143372e+000
1.796274e+003,-1.893921e-001
1.797239e+003,-2.167358e-001
1.798203e+003,-1.772339e+000
1.799167e+003,-1.931152e+000
1.800131e+003,-1.364563e+000
1.801095e+003,-1.325012e+000
1.802060e+003,-1.354431e+000
1.803024e+003,-8.306274e-001
1.803988e+003,1.335144e+000
1.804952e+003,2.153503e+000
1.805917e+003,-1.610840e+000
1.806881e+003,-5.887085e+000
1.807845e+003,-5.801270e+000
1.808809e+003,-2.874878e+000
1.809773e+003,-1.082153e+000
1.810738e+003,-1.437744e+000
1.811702e+003,-2.792969e+000
1.812666e+003,-4.418518e+000
1.813630e+003,-5.513977e+000
1.814595e+003,-4.960205e+000
1.815559e+003,-3.146179e+000
1.816523e+003,-5.515137e-001
1.817487e+003,3.278992e+000
1.818452e+003,3.450623e+000
1.819416e+003,-1.652039e+000
1.820380e+003,-5.051025e+000
1.821344e+003,-4.376526e+000
1.822309e+003,-3.178101e+000
1.823273e+003,-3.463013e+000
1.824237e+003,-3.681946e+000
1.825201e+003,-2.219604e+000
1.826166e+003,1.899414e-001
1.827130e+003,1.855347e+000
1.828094e+003,2.312256e+000
1.829058e+003,1.845581e+000
1.830022e+003,6.663818e-001
1.830987e+003,-7.918701e-001
1.831951e+003,-2.928833e+000
1.832915e+003,-4.564758e+000
1.833879e+003,-3.131653e+000
1.834844e+003,1.220093e-001
1.835808e+003,8.134766e-001
1.836772e+003,-1.326843e+000
1.837736e+003,-1.894165e+000
1.838700e+003,9.091187e-001
1.839665e+003,2.779480e+000
1.840629e+003,-4.478149e-001
1.841593e+003,-5.677307e+000
1.842557e+003,-6.497253e+000
1.843522e+003,-3.005859e+000
1.844486e+003,-1.000977e+000
1.845450e+003,-6.872559e-001
1.846414e+003,-3.931274e-001
1.847379e+003,-1.158081e+000
1.848343e+003,-2.011353e+000
1.849307e+003,-2.580750e+000
1.850271e+003,-2.718933e+000
1.851236e+003,-1.423157e+000
1.852200e+003,2.183228e-001
1.853164e+003,-1.842041e-001
1.854128e+003,-2.499512e+000
1.855093e+003,-4.005981e+000
1.856057e+003,-3.456055e+000
1.857021e+003,-3.023621e+000
1.857985e+003,-4.856079e+000
1.858949e+003,-7.731628e+000
1.859914e+003,-9.659912e+000
1.860878e+003,-1.050793e+001
1.861842e+003,-1.009753e+001
1.862806e+003,-8.561584e+000
1.863771e+003,-6.675964e+000
1.864735e+003,-4.510193e+000
1.865699e+003,-3.212891e+000
1.866663e+003,-3.354614e+000
1.867627e+003,-3.523499e+000
1.868592e+003,-2.399536e+000
1.869556e+003,-1.388123e+000
1.870520e+003,-2.907898e+000
1.871484e+003,-6.472961e+000
1.872449e+003,-8.383057e+000
1.873413e+003,-6.722290e+000
1.874377e+003,-4.354431e+000
1.875341e+003,-3.695496e+000
1.876306e+003,-2.668030e+000
1.877270e+003,1.209106e+000
1.878234e+003,4.446777e+000
1.879198e+003,2.764771e+000
1.880163e+003,-1.518738e+000
1.881127e+003,-4.058960e+000
1.882091e+003,-4.220215e+000
1.883055e+003,-3.372131e+000
1.884020e+003,-2.294434e+000
1.884984e+003,-1.475281e+000
1.885948e+003,-1.320374e+000
1.886912e+003,-1.784546e+000
1.887876e+003,-2.881287e+000
1.888841e+003,-4.441650e+000
1.889805e+003,-4.737610e+000
1.890769e+003,-3.340576e+000
1.891733e+003,-3.230103e+000
1.892698e+003,-6.274048e+000
1.893662e+003,-7.506348e+000
1.894626e+003,-3.272156e+000
1.895590e+003,9.879761e-001
1.896554e+003,1.116455e+000
1.897519e+003,-2.667236e-002
1.898483e+003,7.542725e-001
1.899447e+003,2.536804e+000
1.900411e+003,3.104614e+000
1.901376e+003,2.249512e+000
1.902340e+003,4.357910e-001
1.903304e+003,-3.838623e+000
1.904268e+003,-6.574158e+000
1.905233e+003,-2.743530e+000
1.906197e+003,1.696899e+000
1.907161e+003,-8.914795e-001
1.908125e+003,-6.460754e+000
1.909090e+003,-7.663452e+000
1.910054e+003,-4.485840e+000
1.911018e+003,-2.673340e-002
1.911982e+003,4.447754e+000
1.912947e+003,7.831970e+000
1.913911e+003,9.206726e+000
1.914875e+003,8.667297e+000
1.915839e+003,5.912598e+000
1.916803e+003,1.376892e+000
1.917768e+003,-5.894775e-001
1.918732e+003,1.001343e+000
1.919696e+003,5.178223e-001
1.920660e+003,-3.045471e+000
1.921625e+003,-5.321350e+000
1.922589e+003,-6.086487e+000
1.923553e+003,-4.900085e+000
1.924517e+003,1.115234e+000
1.925481e+003,6.963257e+000
1.926446e+003,7.773682e+000
1.927410e+003,5.474854e+000
1.928374e+003,3.306519e+000
1.929338e+003,1.432800e+000
1.930303e+003,9.199219e-001
1.931267e+003,3.551270e+000
1.932231e+003,4.939819e+000
1.933195e+003,5.549316e-001
1.934160e+003,-3.729309e+000
1.935124e+003,-2.711731e+000
1.936088e+003,-1.801147e-001
1.937052e+003,-5.471802e-001
1.938017e+003,-2.680847e+000
1.938981e+003,-3.588989e+000
1.939945e+003,-3.053040e+000
1.940909e+003,-2.952026e+000
1.941874e+003,-4.230469e+000
1.942838e+003,-6.216248e+000
1.943802e+003,-8.012390e+000
1.944766e+003,-8.590637e+000
1.945730e+003,-6.338867e+000
1.946695e+003,-2.081787e+000
1.947659e+003,-4.257813e-001
1.948623e+003,-1.792358e+000
1.949587e+003,-2.140747e+000
1.950552e+003,-5.786133e-001
1.951516e+003,1.211548e+000
1.952480e+003,3.281860e+000
1.953444e+003,4.012207e+000
1.954408e+003,8.507690e-001
1.955373e+003,-3.423035e+000
1.956337e+003,-4.036316e+000
1.957301e+003,-1.598755e+000
1.958265e+003,-1.904297e-002
1.959230e+003,4.765625e-001
1.960194e+003,1.898071e+000
1.961158e+003,4.761475e+000
1.962122e+003,6.684753e+000
1.963087e+003,7.011658e+000
1.964051e+003,6.533081e+000
1.965015e+003,5.983643e+000
1.965979e+003,5.445801e+000
1.966944e+003,4.457520e+000
1.967908e+003,2.883667e+000
1.968872e+003,2.972412e-001
1.969836e+003,-2.579651e+000
1.970801e+003,-3.318237e+000
1.971765e+003,-9.882202e-001
1.972729e+003,1.925842e+000
1.973693e+003,3.425171e+000
1.974657e+003,3.921570e+000
1.975622e+003,3.591125e+000
1.976586e+003,2.592407e+000
1.977550e+003,1.633972e+000
1.978514e+003,1.015259e+000
1.979479e+003,1.846802e+000
1.980443e+003,4.009949e+000
1.981407e+003,4.051270e+000
1.982371e+003,6.953735e-001
1.983335e+003,-1.552246e+000
1.984300e+003,5.546265e-001
1.985264e+003,4.814026e+000
1.986228e+003,8.587769e+000
1.987192e+003,1.130450e+001
1.988157e+003,9.644775e+000
1.989121e+003,2.155518e+000
1.990085e+003,-1.089233e+000
1.991049e+003,2.903687e+000
1.992014e+003,5.612366e+000
1.992978e+003,4.776855e+000
1.993942e+003,3.734619e+000
1.994906e+003,4.355164e+000
1.995871e+003,4.474548e+000
1.996835e+003,1.275574e+000
1.997799e+003,-2.407898e+000
1.998763e+003,-2.279358e+000
1.999728e+003,9.163818e-001
