5.003444e+002,2.216564e+002
5.013087e+002,2.192195e+002
5.022729e+002,2.181118e+002
5.032371e+002,2.184666e+002
5.042014e+002,2.176870e+002
5.051656e+002,2.160369e+002
5.061298e+002,2.131902e+002
5.070941e+002,2.082792e+002
5.080583e+002,1.997598e+002
5.090225e+002,1.958661e+002
5.099868e+002,1.985442e+002
5.109510e+002,2.020779e+002
5.119152e+002,2.043840e+002
5.128795e+002,2.054697e+002
5.138437e+002,2.041970e+002
5.148079e+002,1.977769e+002
5.157722e+002,1.915742e+002
5.167364e+002,1.877908e+002
5.177006e+002,1.862644e+002
5.186649e+002,1.848141e+002
5.196291e+002,1.814373e+002
5.205933e+002,1.779646e+002
5.215576e+002,1.751344e+002
5.225218e+002,1.724519e+002
5.234860e+002,1.694061e+002
5.244503e+002,1.659180e+002
5.254145e+002,1.628958e+002
5.263787e+002,1.605002e+002
5.273430e+002,1.593488e+002
5.283072e+002,1.584132e+002
5.292714e+002,1.558120e+002
5.302357e+002,1.492167e+002
5.311999e+002,1.432858e+002
5.321641e+002,1.390365e+002
5.331284e+002,1.369166e+002
5.340926e+002,1.377644e+002
5.350568e+002,1.417356e+002
5.360211e+002,1.442886e+002
5.369853e+002,1.419315e+002
5.379495e+002,1.376826e+002
5.389138e+002,1.328127e+002
5.398780e+002,1.280221e+002
5.408422e+002,1.237507e+002
5.418065e+002,1.219905e+002
5.427707e+002,1.223766e+002
5.437349e+002,1.228835e+002
5.446992e+002,1.232554e+002
5.456634e+002,1.229923e+002
5.466276e+002,1.205535e+002
5.475919e+002,1.121941e+002
5.485561e+002,1.070588e+002
5.495203e+002,1.071007e+002
5.504846e+002,1.093427e+002
5.514488e+002,1.096958e+002
5.524130e+002,1.063748e+002
5.533773e+002,1.032498e+002
5.543415e+002,1.030947e+002
5.553057e+002,1.037903e+002
5.562700e+002,1.026094e+002
5.572342e+002,9.780493e+001
5.581984e+002,9.144067e+001
5.591627e+002,8.973584e+001
5.601269e+002,9.132471e+001
5.610911e+002,9.243616e+001
5.620554e+002,9.082715e+001
5.630196e+002,8.664319e+001
5.639838e+002,8.403052e+001
5.649481e+002,8.446265e+001
5.659123e+002,8.439966e+001
5.668765e+002,8.484973e+001
5.678408e+002,8.555188e+001
5.688050e+002,8.421301e+001
5.697692e+002,7.639453e+001
5.707335e+002,6.933643e+001
5.716977e+002,6.564038e+001
5.726619e+002,6.443970e+001
5.736262e+002,6.488318e+001
5.745904e+002,6.692273e+001
5.755546e+002,6.892957e+001
5.765189e+002,6.703381e+001
5.774831e+002,6.239880e+001
5.784473e+002,5.798914e+001
5.794116e+002,5.615662e+001
5.803758e+002,5.711731e+001
5.813400e+002,5.708801e+001
5.823043e+002,5.463171e+001
5.832685e+002,5.214612e+001
5.842327e+002,5.110132e+001
5.851970e+002,5.183862e+001
5.861612e+002,5.334668e+001
5.871254e+002,5.663367e+001
5.880897e+002,5.817517e+001
5.890539e+002,5.567725e+001
5.900181e+002,5.084680e+001
5.909824e+002,4.674670e+001
5.919466e+002,4.566638e+001
5.929108e+002,4.594751e+001
5.938751e+002,4.593933e+001
5.948393e+002,4.553857e+001
5.958035e+002,4.441125e+001
5.967678e+002,4.245496e+001
5.977320e+002,4.030212e+001
5.986962e+002,4.116724e+001
5.996605e+002,4.427502e+001
6.006247e+002,4.633008e+001
6.015889e+002,4.557861e+001
6.025532e+002,4.231116e+001
6.035174e+002,3.955750e+001
6.044816e+002,3.692566e+001
6.054459e+002,3.570593e+001
6.064101e+002,3.760974e+001
6.073743e+002,4.074670e+001
6.083386e+002,4.174512e+001
6.093028e+002,3.823853e+001
6.102670e+002,3.386475e+001
6.112313e+002,2.990747e+001
6.121955e+002,2.729358e+001
6.131597e+002,2.789575e+001
6.141240e+002,3.285583e+001
6.150882e+002,4.033264e+001
6.160524e+002,4.270813e+001
6.170167e+002,4.126892e+001
6.179809e+002,3.892114e+001
6.189451e+002,3.602136e+001
6.199094e+002,3.248755e+001
6.208736e+002,3.051367e+001
6.218378e+002,3.488306e+001
6.228021e+002,3.678674e+001
6.237663e+002,3.379785e+001
6.247305e+002,2.855017e+001
6.256948e+002,2.475562e+001
6.266590e+002,2.284546e+001
6.276232e+002,2.326428e+001
6.285875e+002,2.938538e+001
6.295517e+002,3.673279e+001
6.305159e+002,3.971240e+001
6.314802e+002,3.528064e+001
6.324444e+002,2.651270e+001
6.334086e+002,2.298218e+001
6.343729e+002,2.357166e+001
6.353371e+002,2.407947e+001
6.363013e+002,2.273853e+001
6.372656e+002,2.006982e+001
6.382298e+002,1.862219e+001
6.391940e+002,2.041431e+001
6.401583e+002,2.013928e+001
6.411225e+002,1.803271e+001
6.420867e+002,1.527905e+001
6.430510e+002,1.233081e+001
6.440152e+002,8.180420e+000
6.449794e+002,4.964111e+000
6.459437e+002,4.902466e+000
6.469079e+002,5.320190e+000
6.478721e+002,3.931274e+000
6.488364e+002,3.345947e-001
6.498006e+002,-3.288086e+000
6.507648e+002,-3.009766e+000
6.517291e+002,-3.012695e-001
6.526933e+002,2.311646e+000
6.536575e+002,4.395874e+000
6.546218e+002,5.306396e+000
6.555860e+002,3.664673e+000
6.565502e+002,-3.003052e+000
6.575145e+002,-7.039185e+000
6.584787e+002,-7.405396e+000
6.594429e+002,-6.270630e+000
6.604072e+002,-5.265747e+000
6.613714e+002,-4.640625e+000
6.623356e+002,-3.326416e+000
6.632999e+002,-2.502441e-002
6.642641e+002,2.465454e+000
6.652283e+002,2.997803e+000
6.661926e+002,1.918213e+000
6.671568e+002,3.251953e-001
6.681210e+002,-1.320923e+000
6.690853e+002,-2.641479e+000
6.700495e+002,-2.105957e+000
6.710137e+002,2.934570e-001
6.719780e+002,3.910522e+000
6.729422e+002,8.275635e+000
6.739064e+002,1.377710e+001
6.748707e+002,1.541858e+001
6.758349e+002,1.077002e+001
6.767991e+002,5.977783e+000
6.777634e+002,4.491333e+000
6.787276e+002,6.368652e+000
6.796918e+002,8.136597e+000
6.806561e+002,7.126465e+000
6.816203e+002,5.905884e+000
6.825845e+002,5.946167e+000
6.835488e+002,6.442749e+000
6.845130e+002,5.539795e+000
6.854772e+002,1.665771e+000
6.864415e+002,-2.005249e+000
6.874057e+002,1.947510e+000
6.883699e+002,1.006604e+001
6.893342e+002,1.508655e+001
6.902984e+002,1.293591e+001
6.912626e+002,5.098022e+000
6.922269e+002,3.283691e-001
6.931911e+002,1.503174e+000
6.941553e+002,4.093140e+000
6.951196e+002,8.356567e+000
6.960838e+002,1.241919e+001
6.970480e+002,1.342419e+001
6.980123e+002,9.537842e+000
6.989765e+002,6.825073e+000
6.999407e+002,8.574829e+000
7.009050e+002,1.142957e+001
7.018692e+002,1.280701e+001
7.028334e+002,1.171448e+001
7.037977e+002,9.080566e+000
7.047619e+002,6.324707e+000
7.057261e+002,4.070435e+000
7.066904e+002,2.471436e+000
7.076546e+002,1.518555e+000
7.086188e+002,9.743652e-001
7.095831e+002,3.671875e-001
7.105473e+002,-1.203857e+000
7.115115e+002,-9.040527e-001
7.124758e+002,3.383789e+000
7.134400e+002,6.634888e+000
7.144042e+002,5.597534e+000
7.153685e+002,5.285645e-001
7.163327e+002,-4.195679e+000
7.172969e+002,-6.633789e+000
7.182612e+002,-8.052734e+000
7.192254e+002,-8.587891e+000
7.201896e+002,-8.882080e+000
7.211539e+002,-9.940918e+000
7.221181e+002,-1.268567e+001
7.230823e+002,-1.591638e+001
7.240466e+002,-1.686206e+001
7.250108e+002,-1.521997e+001
7.259750e+002,-1.103442e+001
7.269393e+002,-4.546387e+000
7.279035e+002,3.025146e+000
7.288677e+002,7.754761e+000
7.298320e+002,1.070642e+001
7.307962e+002,1.214380e+001
7.317604e+002,1.064600e+001
7.327247e+002,8.371948e+000
7.336889e+002,8.075195e+000
7.346531e+002,1.016541e+001
7.356174e+002,1.041858e+001
7.365816e+002,7.902954e+000
7.375458e+002,4.581543e+000
7.385101e+002,1.165283e+000
7.394743e+002,-1.807861e+000
7.404385e+002,-3.677124e+000
7.414028e+002,-3.399292e+000
7.423670e+002,-2.747314e+000
7.433312e+002,-3.065308e+000
7.442955e+002,-3.326538e+000
7.452597e+002,-3.531982e+000
7.462239e+002,-4.890381e+000
7.471882e+002,-9.066772e+000
7.481524e+002,-8.177368e+000
7.491166e+002,5.041504e-001
7.500809e+002,8.073120e+000
7.510451e+002,1.147644e+001
7.520093e+002,1.104553e+001
7.529736e+002,8.927612e+000
7.539378e+002,6.125977e+000
7.549020e+002,3.612793e+000
7.558663e+002,9.443359e-001
7.568306e+002,-1.013550e+000
7.577948e+002,-8.146973e-001
7.587590e+002,2.011719e+000
7.597233e+002,5.606689e+000
7.606875e+002,5.447510e+000
7.616517e+002,2.553955e+000
7.626160e+002,3.865967e-001
7.635802e+002,-3.101807e-001
7.645444e+002,6.158447e-001
7.655087e+002,3.718872e+000
7.664729e+002,1.092236e+001
7.674371e+002,1.539539e+001
7.684014e+002,1.596240e+001
7.693656e+002,1.484937e+001
7.703298e+002,1.298096e+001
7.712941e+002,1.083496e+001
7.722583e+002,9.368530e+000
7.732225e+002,9.670532e+000
7.741868e+002,1.053674e+001
7.751510e+002,1.065222e+001
7.761152e+002,1.053882e+001
7.770795e+002,1.149170e+001
7.780437e+002,1.457446e+001
7.790079e+002,1.927856e+001
7.799722e+002,2.389697e+001
7.809364e+002,2.924048e+001
7.819006e+002,3.094116e+001
7.828649e+002,2.539697e+001
7.838291e+002,1.559546e+001
7.847933e+002,1.044922e+001
7.857576e+002,1.167517e+001
7.867218e+002,1.338635e+001
7.876860e+002,1.634375e+001
7.886503e+002,1.937134e+001
7.896145e+002,2.197278e+001
7.905787e+002,2.382678e+001
7.915430e+002,2.377356e+001
7.925072e+002,1.678796e+001
7.934714e+002,8.298828e+000
7.944357e+002,6.015747e+000
7.953999e+002,1.025098e+001
7.963641e+002,1.661755e+001
7.973284e+002,1.995654e+001
7.982926e+002,2.006030e+001
7.992568e+002,2.074829e+001
8.002211e+002,2.114771e+001
8.011853e+002,2.018860e+001
8.021495e+002,1.832043e+001
8.031138e+002,1.679761e+001
8.040780e+002,1.667761e+001
8.050422e+002,1.700769e+001
8.060065e+002,1.866895e+001
8.069707e+002,2.189868e+001
8.079349e+002,2.549084e+001
8.088992e+002,2.895593e+001
8.098634e+002,3.227271e+001
8.108276e+002,3.528540e+001
8.117919e+002,3.734387e+001
8.127561e+002,3.701550e+001
8.137203e+002,3.331470e+001
8.146846e+002,2.699890e+001
8.156488e+002,2.064893e+001
8.166130e+002,1.685046e+001
8.175773e+002,1.563086e+001
8.185415e+002,1.558923e+001
8.195057e+002,1.675952e+001
8.204700e+002,1.744250e+001
8.214342e+002,1.686255e+001
8.223984e+002,1.540747e+001
8.233627e+002,1.386609e+001
8.243269e+002,1.171228e+001
8.252911e+002,1.200708e+001
8.262554e+002,1.872424e+001
8.272196e+002,2.668384e+001
8.281838e+002,3.009070e+001
8.291481e+002,2.709021e+001
8.301123e+002,2.071118e+001
8.310765e+002,1.562341e+001
8.320408e+002,1.204468e+001
8.330050e+002,1.193970e+001
8.339692e+002,1.650793e+001
8.349335e+002,2.184058e+001
8.358977e+002,2.387012e+001
8.368619e+002,2.240027e+001
8.378262e+002,2.235559e+001
8.387904e+002,2.542371e+001
8.397546e+002,2.693042e+001
8.407189e+002,2.430591e+001
8.416831e+002,1.981018e+001
8.426473e+002,1.736938e+001
8.436116e+002,1.894482e+001
8.445758e+002,2.256348e+001
8.455400e+002,2.561853e+001
8.465043e+002,2.798816e+001
8.474685e+002,3.111938e+001
8.484327e+002,3.562146e+001
8.493970e+002,4.019958e+001
8.503612e+002,4.173047e+001
8.513254e+002,3.934668e+001
8.522897e+002,3.614172e+001
8.532539e+002,2.908264e+001
8.542181e+002,2.411279e+001
8.551824e+002,2.714185e+001
8.561466e+002,3.775293e+001
8.571108e+002,4.626306e+001
8.580751e+002,4.649683e+001
8.590393e+002,4.615027e+001
8.600035e+002,4.894226e+001
8.609678e+002,5.316235e+001
8.619320e+002,5.608936e+001
8.628962e+002,5.668079e+001
8.638605e+002,5.734436e+001
8.648247e+002,6.322888e+001
8.657889e+002,7.134924e+001
8.667532e+002,7.517029e+001
8.677174e+002,7.383594e+001
8.686816e+002,7.082275e+001
8.696459e+002,7.019849e+001
8.706101e+002,7.265588e+001
8.715743e+002,7.544849e+001
8.725386e+002,7.894348e+001
8.735028e+002,8.243872e+001
8.744670e+002,8.464197e+001
8.754313e+002,8.592798e+001
8.763955e+002,8.772327e+001
8.773597e+002,9.091541e+001
8.783240e+002,9.472815e+001
8.792882e+002,9.946667e+001
8.802524e+002,1.033224e+002
8.812167e+002,1.041655e+002
8.821809e+002,1.020686e+002
8.831451e+002,9.915405e+001
8.841094e+002,9.826428e+001
8.850736e+002,9.995703e+001
8.860378e+002,1.026281e+002
8.870021e+002,1.061263e+002
8.879663e+002,1.093674e+002
8.889305e+002,1.109736e+002
8.898948e+002,1.112148e+002
8.908590e+002,1.128313e+002
8.918232e+002,1.182578e+002
8.927875e+002,1.225590e+002
8.937517e+002,1.242097e+002
8.947159e+002,1.248855e+002
8.956802e+002,1.247935e+002
8.966444e+002,1.240590e+002
8.976086e+002,1.242214e+002
8.985729e+002,1.286396e+002
8.995371e+002,1.349167e+002
9.005013e+002,1.379619e+002
9.014656e+002,1.384069e+002
9.024298e+002,1.384935e+002
9.033940e+002,1.394257e+002
9.043583e+002,1.405073e+002
9.053225e+002,1.408422e+002
9.062867e+002,1.380922e+002
9.072510e+002,1.366685e+002
9.082152e+002,1.388390e+002
9.091794e+002,1.426014e+002
9.101437e+002,1.458998e+002
9.111079e+002,1.483334e+002
9.120721e+002,1.504229e+002
9.130364e+002,1.519348e+002
9.140006e+002,1.522205e+002
9.149648e+002,1.509161e+002
9.159291e+002,1.491115e+002
9.168933e+002,1.484264e+002
9.178575e+002,1.496096e+002
9.188218e+002,1.511736e+002
9.197860e+002,1.486243e+002
9.207502e+002,1.414788e+002
9.217145e+002,1.360723e+002
9.226787e+002,1.352267e+002
9.236429e+002,1.368143e+002
9.246072e+002,1.372535e+002
9.255714e+002,1.356042e+002
9.265356e+002,1.348381e+002
9.274999e+002,1.375974e+002
9.284641e+002,1.383134e+002
9.294283e+002,1.339056e+002
9.303926e+002,1.268812e+002
9.313568e+002,1.217212e+002
9.323210e+002,1.207534e+002
9.332853e+002,1.211858e+002
9.342495e+002,1.185343e+002
9.352137e+002,1.140697e+002
9.361780e+002,1.101046e+002
9.371422e+002,1.076951e+002
9.381064e+002,1.066534e+002
9.390707e+002,1.060461e+002
9.400349e+002,1.050771e+002
9.409991e+002,1.046563e+002
9.419634e+002,1.048248e+002
9.429276e+002,1.050208e+002
9.438918e+002,1.061541e+002
9.448561e+002,1.071808e+002
9.458203e+002,1.057415e+002
9.467845e+002,1.006730e+002
9.477488e+002,9.696094e+001
9.487130e+002,9.988013e+001
9.496772e+002,1.042771e+002
9.506415e+002,1.062992e+002
9.516057e+002,1.056497e+002
9.525699e+002,1.038267e+002
9.535342e+002,1.021624e+002
9.544984e+002,1.004944e+002
9.554626e+002,1.002579e+002
9.564269e+002,1.029030e+002
9.573911e+002,1.051011e+002
9.583553e+002,1.058085e+002
9.593196e+002,1.051674e+002
9.602838e+002,1.028586e+002
9.612480e+002,9.774500e+001
9.622123e+002,9.472998e+001
9.631765e+002,9.917920e+001
9.641407e+002,1.025831e+002
9.651050e+002,9.933521e+001
9.660692e+002,9.149084e+001
9.670334e+002,8.439197e+001
9.679977e+002,8.172961e+001
9.689619e+002,8.264282e+001
9.699261e+002,8.359302e+001
9.708904e+002,8.485034e+001
9.718546e+002,9.038074e+001
9.728188e+002,1.013484e+002
9.737831e+002,1.143512e+002
9.747473e+002,1.256244e+002
9.757115e+002,1.353911e+002
9.766758e+002,1.434608e+002
9.776400e+002,1.516992e+002
9.786042e+002,1.571995e+002
9.795685e+002,1.598619e+002
9.805327e+002,1.579921e+002
9.814969e+002,1.487312e+002
9.824612e+002,1.315620e+002
9.834254e+002,1.131658e+002
9.843896e+002,9.628784e+001
9.853539e+002,8.288049e+001
9.863181e+002,7.730457e+001
9.872823e+002,7.803076e+001
9.882466e+002,7.944043e+001
9.892108e+002,7.752026e+001
9.901750e+002,7.370752e+001
9.911393e+002,7.131250e+001
9.921035e+002,6.784277e+001
9.930677e+002,6.610510e+001
9.940320e+002,6.705957e+001
9.949962e+002,7.056104e+001
9.959604e+002,7.737732e+001
9.969247e+002,8.743408e+001
9.978889e+002,9.709497e+001
9.988531e+002,1.038250e+002
9.998174e+002,1.083707e+002
1.000782e+003,1.123217e+002
1.001746e+003,1.154515e+002
1.002710e+003,1.163232e+002
1.003674e+003,1.145693e+002
1.004639e+003,1.122797e+002
1.005603e+003,1.133855e+002
1.006567e+003,1.180282e+002
1.007531e+003,1.205643e+002
1.008495e+003,1.205756e+002
1.009460e+003,1.197761e+002
1.010424e+003,1.194886e+002
1.011388e+003,1.195541e+002
1.012352e+003,1.185243e+002
1.013317e+003,1.152369e+002
1.014281e+003,1.119022e+002
1.015245e+003,1.100199e+002
1.016209e+003,1.070598e+002
1.017174e+003,1.004694e+002
1.018138e+003,9.105786e+001
1.019102e+003,8.265430e+001
1.020066e+003,7.892114e+001
1.021031e+003,7.756494e+001
1.021995e+003,6.890625e+001
1.022959e+003,5.404187e+001
1.023923e+003,4.262024e+001
1.024887e+003,3.841956e+001
1.025852e+003,3.763428e+001
1.026816e+003,3.441931e+001
1.027780e+003,2.854590e+001
1.028744e+003,2.402136e+001
1.029709e+003,2.103284e+001
1.030673e+003,1.921265e+001
1.031637e+003,1.877893e+001
1.032601e+003,1.890881e+001
1.033566e+003,1.921667e+001
1.034530e+003,1.970093e+001
1.035494e+003,1.932666e+001
1.036458e+003,1.533716e+001
1.037422e+003,1.017432e+001
1.038387e+003,8.655396e+000
1.039351e+003,1.042102e+001
1.040315e+003,1.203528e+001
1.041279e+003,1.099780e+001
1.042244e+003,8.488159e+000
1.043208e+003,9.108521e+000
1.044172e+003,1.518738e+001
1.045136e+003,1.902991e+001
1.046101e+003,1.980945e+001
1.047065e+003,1.982214e+001
1.048029e+003,2.052185e+001
1.048993e+003,2.147485e+001
1.049958e+003,2.107458e+001
1.050922e+003,1.851440e+001
1.051886e+003,1.574915e+001
1.052850e+003,1.431177e+001
1.053814e+003,1.380347e+001
1.054779e+003,1.352966e+001
1.055743e+003,1.336914e+001
1.056707e+003,1.436389e+001
1.057671e+003,1.800549e+001
1.058636e+003,2.417847e+001
1.059600e+003,2.704883e+001
1.060564e+003,2.475403e+001
1.061528e+003,2.384875e+001
1.062493e+003,2.527026e+001
1.063457e+003,2.705713e+001
1.064421e+003,2.757104e+001
1.065385e+003,2.691040e+001
1.066349e+003,2.612073e+001
1.067314e+003,2.629175e+001
1.068278e+003,2.578552e+001
1.069242e+003,2.294177e+001
1.070206e+003,1.924109e+001
1.071171e+003,1.645459e+001
1.072135e+003,1.515625e+001
1.073099e+003,1.499561e+001
1.074063e+003,1.606287e+001
1.075028e+003,1.883972e+001
1.075992e+003,2.001794e+001
1.076956e+003,1.869409e+001
1.077920e+003,1.651868e+001
1.078885e+003,1.381250e+001
1.079849e+003,1.168579e+001
1.080813e+003,1.224585e+001
1.081777e+003,1.648853e+001
1.082741e+003,2.006677e+001
1.083706e+003,1.898071e+001
1.084670e+003,1.671118e+001
1.085634e+003,1.466333e+001
1.086598e+003,1.302527e+001
1.087563e+003,1.212585e+001
1.088527e+003,1.235437e+001
1.089491e+003,1.329285e+001
1.090455e+003,1.298145e+001
1.091420e+003,1.068518e+001
1.092384e+003,9.699829e+000
1.093348e+003,1.014807e+001
1.094312e+003,1.059412e+001
1.095276e+003,1.113318e+001
1.096241e+003,1.183728e+001
1.097205e+003,1.103113e+001
1.098169e+003,6.393799e+000
1.099133e+003,4.921753e+000
1.100098e+003,1.443262e+001
1.101062e+003,2.354688e+001
1.102026e+003,2.417761e+001
1.102990e+003,1.844812e+001
1.103955e+003,1.266577e+001
1.104919e+003,1.055688e+001
1.105883e+003,1.063928e+001
1.106847e+003,1.017151e+001
1.107812e+003,9.071167e+000
1.108776e+003,8.781494e+000
1.109740e+003,9.432251e+000
1.110704e+003,1.077747e+001
1.111668e+003,1.391382e+001
1.112633e+003,1.856958e+001
1.113597e+003,2.137024e+001
1.114561e+003,2.048145e+001
1.115525e+003,1.989294e+001
1.116490e+003,2.040466e+001
1.117454e+003,2.175977e+001
1.118418e+003,2.506042e+001
1.119382e+003,2.975964e+001
1.120347e+003,3.400293e+001
1.121311e+003,3.610974e+001
1.122275e+003,3.572900e+001
1.123239e+003,3.325867e+001
1.124203e+003,2.992603e+001
1.125168e+003,2.950525e+001
1.126132e+003,3.300159e+001
1.127096e+003,3.812476e+001
1.128060e+003,4.306238e+001
1.129025e+003,4.767432e+001
1.129989e+003,5.265271e+001
1.130953e+003,5.880029e+001
1.131917e+003,6.269824e+001
1.132882e+003,6.220557e+001
1.133846e+003,6.136682e+001
1.134810e+003,6.198840e+001
1.135774e+003,6.454321e+001
1.136739e+003,6.919617e+001
1.137703e+003,7.594592e+001
1.138667e+003,8.398206e+001
1.139631e+003,9.229028e+001
1.140595e+003,1.006846e+002
1.141560e+003,1.085951e+002
1.142524e+003,1.155648e+002
1.143488e+003,1.256285e+002
1.144452e+003,1.421339e+002
1.145417e+003,1.636757e+002
1.146381e+003,1.849357e+002
1.147345e+003,2.043577e+002
1.148309e+003,2.267417e+002
1.149274e+003,2.560153e+002
1.150238e+003,2.861648e+002
1.151202e+003,3.156708e+002
1.152166e+003,3.440193e+002
1.153130e+003,3.710701e+002
1.154095e+003,3.960060e+002
1.155059e+003,4.165485e+002
1.156023e+003,4.310676e+002
1.156987e+003,4.390214e+002
1.157952e+003,4.384329e+002
1.158916e+003,4.299099e+002
1.159880e+003,4.175240e+002
1.160844e+003,4.023910e+002
1.161809e+003,3.827686e+002
1.162773e+003,3.556831e+002
1.163737e+003,3.193142e+002
1.164701e+003,2.841515e+002
1.165666e+003,2.509432e+002
1.166630e+003,2.225432e+002
1.167594e+003,2.005039e+002
1.168558e+003,1.836202e+002
1.169522e+003,1.705756e+002
1.170487e+003,1.608186e+002
1.171451e+003,1.550350e+002
1.172415e+003,1.544813e+002
1.173379e+003,1.575067e+002
1.174344e+003,1.557683e+002
1.175308e+003,1.492213e+002
1.176272e+003,1.442953e+002
1.177236e+003,1.449946e+002
1.178201e+003,1.472924e+002
1.179165e+003,1.460236e+002
1.180129e+003,1.406819e+002
1.181093e+003,1.317883e+002
1.182057e+003,1.163029e+002
1.183022e+003,1.026577e+002
1.183986e+003,9.282666e+001
1.184950e+003,8.687036e+001
1.185914e+003,8.614258e+001
1.186879e+003,8.976270e+001
1.187843e+003,9.467542e+001
1.188807e+003,9.821790e+001
1.189771e+003,1.006014e+002
1.190736e+003,1.037019e+002
1.191700e+003,1.078291e+002
1.192664e+003,1.077837e+002
1.193628e+003,1.007163e+002
1.194593e+003,9.338269e+001
1.195557e+003,9.109644e+001
1.196521e+003,9.222485e+001
1.197485e+003,9.150586e+001
1.198449e+003,8.832690e+001
1.199414e+003,8.315723e+001
1.200378e+003,7.385596e+001
1.201342e+003,6.489404e+001
1.202306e+003,5.923584e+001
1.203271e+003,5.578906e+001
1.204235e+003,5.226550e+001
1.205199e+003,4.756470e+001
1.206163e+003,4.195276e+001
1.207128e+003,3.556006e+001
1.208092e+003,2.838062e+001
1.209056e+003,2.271558e+001
1.210020e+003,1.979517e+001
1.210984e+003,1.581921e+001
1.211949e+003,8.909790e+000
1.212913e+003,5.603027e-001
1.213877e+003,-7.571777e+000
1.214841e+003,-1.510107e+001
1.215806e+003,-2.073926e+001
1.216770e+003,-2.331580e+001
1.217734e+003,-2.518286e+001
1.218698e+003,-2.829773e+001
1.219663e+003,-3.212866e+001
1.220627e+003,-3.564331e+001
1.221591e+003,-3.882458e+001
1.222555e+003,-4.308984e+001
1.223520e+003,-4.977344e+001
1.224484e+003,-5.738647e+001
1.225448e+003,-5.997925e+001
1.226412e+003,-5.376367e+001
1.227376e+003,-5.130872e+001
1.228341e+003,-5.675830e+001
1.229305e+003,-6.162207e+001
1.230269e+003,-5.982654e+001
1.231233e+003,-5.465613e+001
1.232198e+003,-5.307178e+001
1.233162e+003,-5.670508e+001
1.234126e+003,-6.105359e+001
1.235090e+003,-6.489844e+001
1.236055e+003,-6.669519e+001
1.237019e+003,-6.280762e+001
1.237983e+003,-5.589233e+001
1.238947e+003,-5.254517e+001
1.239911e+003,-5.518823e+001
1.240876e+003,-6.041260e+001
1.241840e+003,-6.372656e+001
1.242804e+003,-6.506958e+001
1.243768e+003,-6.505212e+001
1.244733e+003,-6.294080e+001
1.245697e+003,-6.021704e+001
1.246661e+003,-5.711633e+001
1.247625e+003,-5.446057e+001
1.248590e+003,-5.243787e+001
1.249554e+003,-5.063293e+001
1.250518e+003,-4.886572e+001
1.251482e+003,-4.743872e+001
1.252447e+003,-4.580176e+001
1.253411e+003,-4.170618e+001
1.254375e+003,-3.678894e+001
1.255339e+003,-3.591675e+001
1.256303e+003,-3.877100e+001
1.257268e+003,-3.996558e+001
1.258232e+003,-3.661987e+001
1.259196e+003,-3.107251e+001
1.260160e+003,-2.683252e+001
1.261125e+003,-2.342639e+001
1.262089e+003,-2.096179e+001
1.263053e+003,-2.205469e+001
1.264017e+003,-2.203455e+001
1.264982e+003,-1.906079e+001
1.265946e+003,-1.459424e+001
1.266910e+003,-8.548950e+000
1.267874e+003,-2.347778e+000
1.268839e+003,4.731445e-001
1.269803e+003,-2.456055e+000
1.270767e+003,-8.472778e+000
1.271731e+003,-1.272046e+001
1.272695e+003,-1.483960e+001
1.273660e+003,-1.581201e+001
1.274624e+003,-1.591492e+001
1.275588e+003,-1.684937e+001
1.276552e+003,-1.871863e+001
1.277517e+003,-2.128833e+001
1.278481e+003,-2.522644e+001
1.279445e+003,-3.090393e+001
1.280409e+003,-3.601758e+001
1.281374e+003,-3.969812e+001
1.282338e+003,-4.252625e+001
1.283302e+003,-4.499597e+001
1.284266e+003,-4.691675e+001
1.285230e+003,-4.752014e+001
1.286195e+003,-4.724341e+001
1.287159e+003,-4.790942e+001
1.288123e+003,-5.078027e+001
1.289087e+003,-5.430664e+001
1.290052e+003,-5.474194e+001
1.291016e+003,-5.090491e+001
1.291980e+003,-5.006836e+001
1.292944e+003,-5.591040e+001
1.293909e+003,-6.078992e+001
1.294873e+003,-5.999402e+001
1.295837e+003,-5.661926e+001
1.296801e+003,-5.581152e+001
1.297766e+003,-5.796460e+001
1.298730e+003,-5.815906e+001
1.299694e+003,-5.297217e+001
1.300658e+003,-4.739209e+001
1.301622e+003,-4.731641e+001
1.302587e+003,-4.984705e+001
1.303551e+003,-5.083887e+001
1.304515e+003,-4.936414e+001
1.305479e+003,-4.664832e+001
1.306444e+003,-4.372998e+001
1.307408e+003,-4.115894e+001
1.308372e+003,-3.989575e+001
1.309336e+003,-3.991321e+001
1.310301e+003,-4.156165e+001
1.311265e+003,-4.696106e+001
1.312229e+003,-5.065820e+001
1.313193e+003,-5.040149e+001
1.314157e+003,-4.833459e+001
1.315122e+003,-4.586719e+001
1.316086e+003,-4.411072e+001
1.317050e+003,-4.510291e+001
1.318014e+003,-5.017725e+001
1.318979e+003,-5.616284e+001
1.319943e+003,-5.793994e+001
1.320907e+003,-5.539624e+001
1.321871e+003,-5.071680e+001
1.322836e+003,-4.353821e+001
1.323800e+003,-3.861121e+001
1.324764e+003,-4.018237e+001
1.325728e+003,-4.444800e+001
1.326693e+003,-4.464905e+001
1.327657e+003,-4.083875e+001
1.328621e+003,-3.888843e+001
1.329585e+003,-3.968750e+001
1.330549e+003,-4.032275e+001
1.331514e+003,-4.127808e+001
1.332478e+003,-4.235999e+001
1.333442e+003,-4.255835e+001
1.334406e+003,-4.186414e+001
1.335371e+003,-4.135803e+001
1.336335e+003,-4.168542e+001
1.337299e+003,-4.200525e+001
1.338263e+003,-4.083752e+001
1.339228e+003,-3.791260e+001
1.340192e+003,-3.577051e+001
1.341156e+003,-3.480713e+001
1.342120e+003,-3.402478e+001
1.343084e+003,-3.396021e+001
1.344049e+003,-3.449402e+001
1.345013e+003,-3.477502e+001
1.345977e+003,-3.477002e+001
1.346941e+003,-3.548352e+001
1.347906e+003,-3.738623e+001
1.348870e+003,-3.931006e+001
1.349834e+003,-4.046692e+001
1.350798e+003,-4.119287e+001
1.351763e+003,-4.177588e+001
1.352727e+003,-4.197693e+001
1.353691e+003,-4.110779e+001
1.354655e+003,-3.849829e+001
1.355620e+003,-3.593164e+001
1.356584e+003,-3.605103e+001
1.357548e+003,-3.818884e+001
1.358512e+003,-3.783569e+001
1.359476e+003,-3.449023e+001
1.360441e+003,-3.166907e+001
1.361405e+003,-2.896252e+001
1.362369e+003,-2.770862e+001
1.363333e+003,-2.967651e+001
1.364298e+003,-3.294336e+001
1.365262e+003,-3.498547e+001
1.366226e+003,-3.511951e+001
1.367190e+003,-3.421558e+001
1.368155e+003,-3.304419e+001
1.369119e+003,-3.152869e+001
1.370083e+003,-2.920752e+001
1.371047e+003,-2.521338e+001
1.372011e+003,-2.297449e+001
1.372976e+003,-2.355188e+001
1.373940e+003,-2.567651e+001
1.374904e+003,-3.075195e+001
1.375868e+003,-3.540186e+001
1.376833e+003,-3.478760e+001
1.377797e+003,-2.935925e+001
1.378761e+003,-2.406384e+001
1.379725e+003,-2.030176e+001
1.380690e+003,-1.888098e+001
1.381654e+003,-2.289014e+001
1.382618e+003,-2.842749e+001
1.383582e+003,-2.983936e+001
1.384547e+003,-2.726831e+001
1.385511e+003,-2.475537e+001
1.386475e+003,-2.473645e+001
1.387439e+003,-2.527295e+001
1.388403e+003,-2.250745e+001
1.389368e+003,-1.652332e+001
1.390332e+003,-1.388330e+001
1.391296e+003,-1.665601e+001
1.392260e+003,-1.810266e+001
1.393225e+003,-1.437915e+001
1.394189e+003,-1.179565e+001
1.395153e+003,-1.508118e+001
1.396117e+003,-2.135693e+001
1.397082e+003,-2.621545e+001
1.398046e+003,-2.807727e+001
1.399010e+003,-2.774670e+001
1.399974e+003,-2.621387e+001
1.400938e+003,-2.484058e+001
1.401903e+003,-2.636414e+001
1.402867e+003,-3.104700e+001
1.403831e+003,-2.926489e+001
1.404795e+003,-1.520691e+001
1.405760e+003,-4.291260e+000
1.406724e+003,-4.746338e+000
1.407688e+003,-1.106702e+001
1.408652e+003,-1.625122e+001
1.409617e+003,-1.911975e+001
1.410581e+003,-2.157458e+001
1.411545e+003,-2.447400e+001
1.412509e+003,-2.665723e+001
1.413474e+003,-2.723584e+001
1.414438e+003,-2.715955e+001
1.415402e+003,-2.715173e+001
1.416366e+003,-2.650610e+001
1.417330e+003,-2.356702e+001
1.418295e+003,-1.712756e+001
1.419259e+003,-1.026965e+001
1.420223e+003,-6.998535e+000
1.421187e+003,-7.200073e+000
1.422152e+003,-7.879272e+000
1.423116e+003,-8.496216e+000
1.424080e+003,-8.847778e+000
1.425044e+003,-1.094055e+001
1.426009e+003,-1.166809e+001
1.426973e+003,-8.070068e+000
1.427937e+003,-3.423340e+000
1.428901e+003,-1.115967e+000
1.429865e+003,-1.452881e+000
1.430830e+003,-3.809204e+000
1.431794e+003,-7.921631e+000
1.432758e+003,-1.175549e+001
1.433722e+003,-1.025049e+001
1.434687e+003,-1.945557e+000
1.435651e+003,4.489746e+000
1.436615e+003,5.925293e+000
1.437579e+003,6.015137e+000
1.438544e+003,4.541138e+000
1.439508e+003,2.882813e+000
1.440472e+003,2.343994e+000
1.441436e+003,2.924194e+000
1.442401e+003,4.140503e+000
1.443365e+003,5.564819e+000
1.444329e+003,6.461670e+000
1.445293e+003,6.383911e+000
1.446257e+003,5.983032e+000
1.447222e+003,6.039551e+000
1.448186e+003,6.437988e+000
1.449150e+003,7.254517e+000
1.450114e+003,8.626587e+000
1.451079e+003,9.023438e+000
1.452043e+003,7.672241e+000
1.453007e+003,5.735107e+000
1.453971e+003,4.413208e+000
1.454936e+003,3.357300e+000
1.455900e+003,1.484131e+000
1.456864e+003,-1.576416e+000
1.457828e+003,-3.796509e+000
1.458792e+003,-4.807617e+000
1.459757e+003,-4.470459e+000
1.460721e+003,-8.944092e-001
1.461685e+003,3.671387e+000
1.462649e+003,4.316040e+000
1.463614e+003,3.593750e-001
1.464578e+003,-3.355347e+000
1.465542e+003,-2.579956e+000
1.466506e+003,7.464600e-001
1.467471e+003,1.323853e+000
1.468435e+003,-1.085449e+000
1.469399e+003,-1.420044e+000
1.470363e+003,7.496338e-001
1.471328e+003,3.364502e+000
1.472292e+003,6.363159e+000
1.473256e+003,8.070557e+000
1.474220e+003,7.683350e+000
1.475184e+003,6.370361e+000
1.476149e+003,5.422363e+000
1.477113e+003,5.022949e+000
1.478077e+003,4.926514e+000
1.479041e+003,5.404907e+000
1.480006e+003,6.694946e+000
1.480970e+003,8.269897e+000
1.481934e+003,9.379761e+000
1.482898e+003,1.125964e+001
1.483863e+003,1.500488e+001
1.484827e+003,1.759912e+001
1.485791e+003,1.716040e+001
1.486755e+003,1.720886e+001
1.487719e+003,2.134448e+001
1.488684e+003,2.799756e+001
1.489648e+003,3.288330e+001
1.490612e+003,3.498547e+001
1.491576e+003,3.754602e+001
1.492541e+003,4.339868e+001
1.493505e+003,5.028845e+001
1.494469e+003,5.211377e+001
1.495433e+003,4.946667e+001
1.496398e+003,5.079468e+001
1.497362e+003,5.889587e+001
1.498326e+003,6.851624e+001
1.499290e+003,7.699304e+001
1.500255e+003,8.519568e+001
1.501219e+003,9.392786e+001
1.502183e+003,1.030631e+002
1.503147e+003,1.120664e+002
1.504111e+003,1.201071e+002
1.505076e+003,1.318694e+002
1.506040e+003,1.527823e+002
1.507004e+003,1.761168e+002
1.507968e+003,1.934603e+002
1.508933e+003,2.084789e+002
1.509897e+003,2.288307e+002
1.510861e+003,2.568223e+002
1.511825e+003,2.899784e+002
1.512790e+003,3.264421e+002
1.513754e+003,3.651279e+002
1.514718e+003,4.052396e+002
1.515682e+003,4.461844e+002
1.516646e+003,4.869850e+002
1.517611e+003,5.291172e+002
1.518575e+003,5.691643e+002
1.519539e+003,6.121339e+002
1.520503e+003,6.476326e+002
1.521468e+003,6.681755e+002
1.522432e+003,6.781490e+002
1.523396e+003,6.839117e+002
1.524360e+003,6.863221e+002
1.525325e+003,6.827980e+002
1.526289e+003,6.718041e+002
1.527253e+003,6.538890e+002
1.528217e+003,6.294344e+002
1.529182e+003,5.989144e+002
1.530146e+003,5.648333e+002
1.531110e+003,5.261643e+002
1.532074e+003,4.844205e+002
1.533039e+003,4.382743e+002
1.534003e+003,3.884133e+002
1.534967e+003,3.319244e+002
1.535931e+003,2.766401e+002
1.536896e+003,2.302419e+002
1.537860e+003,1.935208e+002
1.538824e+003,1.633274e+002
1.539788e+003,1.375919e+002
1.540752e+003,1.162354e+002
1.541717e+003,9.971606e+001
1.542681e+003,8.786584e+001
1.543645e+003,7.711951e+001
1.544609e+003,6.739355e+001
1.545573e+003,6.118079e+001
1.546538e+003,5.937549e+001
1.547502e+003,5.793872e+001
1.548466e+003,5.555396e+001
1.549430e+003,5.434497e+001
1.550395e+003,5.735413e+001
1.551359e+003,6.257483e+001
1.552323e+003,6.500208e+001
1.553287e+003,6.295215e+001
1.554252e+003,5.775330e+001
1.555216e+003,4.993469e+001
1.556180e+003,4.110254e+001
1.557144e+003,3.477698e+001
1.558109e+003,3.136353e+001
1.559073e+003,3.143103e+001
1.560037e+003,3.695435e+001
1.561001e+003,3.968091e+001
1.561966e+003,3.577039e+001
1.562930e+003,3.076697e+001
1.563894e+003,2.846228e+001
1.564858e+003,2.865540e+001
1.565823e+003,3.172852e+001
1.566787e+003,3.731958e+001
1.567751e+003,4.071729e+001
1.568715e+003,3.911707e+001
1.569679e+003,3.553455e+001
1.570644e+003,3.280542e+001
1.571608e+003,3.061731e+001
1.572572e+003,2.915613e+001
1.573536e+003,2.885010e+001
1.574500e+003,2.941772e+001
1.575465e+003,3.051343e+001
1.576429e+003,3.235083e+001
1.577393e+003,3.519226e+001
1.578357e+003,3.843237e+001
1.579322e+003,4.145837e+001
1.580286e+003,4.439282e+001
1.581250e+003,4.741370e+001
1.582214e+003,5.096838e+001
1.583179e+003,5.293542e+001
1.584143e+003,4.957654e+001
1.585107e+003,4.509106e+001
1.586071e+003,4.709546e+001
1.587036e+003,5.387305e+001
1.588000e+003,5.739087e+001
1.588964e+003,5.526428e+001
1.589928e+003,5.320703e+001
1.590893e+003,5.568774e+001
1.591857e+003,5.990442e+001
1.592821e+003,6.168652e+001
1.593785e+003,6.150085e+001
1.594750e+003,6.118896e+001
1.595714e+003,6.051221e+001
1.596678e+003,6.076868e+001
1.597642e+003,6.296704e+001
1.598606e+003,6.572388e+001
1.599571e+003,6.838135e+001
1.600535e+003,7.102979e+001
1.601499e+003,7.335437e+001
1.602463e+003,7.537012e+001
1.603427e+003,7.810107e+001
1.604392e+003,8.221704e+001
1.605356e+003,8.560339e+001
1.606320e+003,8.536963e+001
1.607284e+003,8.306665e+001
1.608249e+003,8.376379e+001
1.609213e+003,8.764575e+001
1.610177e+003,8.849707e+001
1.611141e+003,8.454309e+001
1.612106e+003,7.943127e+001
1.613070e+003,7.184167e+001
1.614034e+003,6.652075e+001
1.614998e+003,6.873462e+001
1.615963e+003,7.498535e+001
1.616927e+003,7.912073e+001
1.617891e+003,8.014587e+001
1.618855e+003,8.088403e+001
1.619820e+003,8.285986e+001
1.620784e+003,8.405920e+001
1.621748e+003,8.231812e+001
1.622712e+003,7.895117e+001
1.623677e+003,7.626306e+001
1.624641e+003,7.392419e+001
1.625605e+003,7.512915e+001
1.626569e+003,8.232874e+001
1.627533e+003,8.698230e+001
1.628498e+003,8.384314e+001
1.629462e+003,7.900415e+001
1.630426e+003,7.647632e+001
1.631390e+003,7.636926e+001
1.632354e+003,7.893701e+001
1.633319e+003,8.369226e+001
1.634283e+003,8.722681e+001
1.635247e+003,8.674683e+001
1.636211e+003,8.407581e+001
1.637176e+003,8.276111e+001
1.638140e+003,8.297888e+001
1.639104e+003,8.294519e+001
1.640068e+003,8.203516e+001
1.641033e+003,8.200000e+001
1.641997e+003,8.480823e+001
1.642961e+003,8.701636e+001
1.643925e+003,8.646655e+001
1.644890e+003,8.482117e+001
1.645854e+003,8.281177e+001
1.646818e+003,8.108875e+001
1.647782e+003,8.115491e+001
1.648747e+003,8.330908e+001
1.649711e+003,8.594568e+001
1.650675e+003,8.830603e+001
1.651639e+003,9.032666e+001
1.652604e+003,9.099744e+001
1.653568e+003,9.001477e+001
1.654532e+003,8.813379e+001
1.655496e+003,8.501318e+001
1.656460e+003,8.244470e+001
1.657425e+003,8.192834e+001
1.658389e+003,8.124792e+001
1.659353e+003,7.972351e+001
1.660317e+003,7.697449e+001
1.661281e+003,7.082361e+001
1.662246e+003,6.303564e+001
1.663210e+003,5.930701e+001
1.664174e+003,6.158923e+001
1.665138e+003,6.565955e+001
1.666103e+003,6.846826e+001
1.667067e+003,6.910767e+001
1.668031e+003,6.472546e+001
1.668995e+003,5.606201e+001
1.669960e+003,5.216748e+001
1.670924e+003,5.505750e+001
1.671888e+003,5.757593e+001
1.672852e+003,5.636816e+001
1.673817e+003,5.531665e+001
1.674781e+003,5.834070e+001
1.675745e+003,6.163916e+001
1.676709e+003,6.041650e+001
1.677674e+003,5.567395e+001
1.678638e+003,5.128894e+001
1.679602e+003,4.851782e+001
1.680566e+003,4.691016e+001
1.681531e+003,4.681250e+001
1.682495e+003,4.754639e+001
1.683459e+003,4.733936e+001
1.684423e+003,4.599268e+001
1.685387e+003,4.464636e+001
1.686352e+003,4.376465e+001
1.687316e+003,4.125159e+001
1.688280e+003,3.472571e+001
1.689244e+003,2.958203e+001
1.690208e+003,3.146594e+001
1.691173e+003,3.544556e+001
1.692137e+003,3.672595e+001
1.693101e+003,3.606482e+001
1.694065e+003,3.513550e+001
1.695030e+003,3.378943e+001
1.695994e+003,3.227673e+001
1.696958e+003,3.144470e+001
1.697922e+003,3.033032e+001
1.698887e+003,2.656226e+001
1.699851e+003,2.183484e+001
1.700815e+003,2.177576e+001
1.701779e+003,2.642969e+001
1.702744e+003,2.857629e+001
1.703708e+003,2.596790e+001
1.704672e+003,2.311328e+001
1.705636e+003,2.227417e+001
1.706601e+003,2.234473e+001
1.707565e+003,2.381909e+001
1.708529e+003,2.600891e+001
1.709493e+003,2.463525e+001
1.710458e+003,1.864514e+001
1.711422e+003,1.357788e+001
1.712386e+003,1.203442e+001
1.713350e+003,1.271106e+001
1.714314e+003,1.511572e+001
1.715279e+003,1.768054e+001
1.716243e+003,1.813306e+001
1.717207e+003,1.676123e+001
1.718171e+003,1.563647e+001
1.719135e+003,1.546033e+001
1.720100e+003,1.461609e+001
1.721064e+003,1.134534e+001
1.722028e+003,8.021851e+000
1.722992e+003,9.017700e+000
1.723957e+003,1.400537e+001
1.724921e+003,1.804041e+001
1.725885e+003,2.070093e+001
1.726849e+003,1.929260e+001
1.727814e+003,9.847412e+000
1.728778e+003,3.216553e+000
1.729742e+003,6.579468e+000
1.730706e+003,1.212268e+001
1.731671e+003,1.159033e+001
1.732635e+003,6.328857e+000
1.733599e+003,7.514648e-001
1.734563e+003,-3.132324e+000
1.735528e+003,-3.935181e+000
1.736492e+003,-1.207642e+000
1.737456e+003,3.655518e+000
1.738420e+003,9.493286e+000
1.739385e+003,1.468872e+001
1.740349e+003,1.471582e+001
1.741313e+003,8.689697e+000
1.742277e+003,4.183716e+000
1.743241e+003,8.997803e-001
1.744206e+003,3.735352e-001
1.745170e+003,5.217529e+000
1.746134e+003,9.472534e+000
1.747098e+003,1.028418e+001
1.748063e+003,8.350464e+000
1.749027e+003,3.028076e+000
1.749991e+003,-3.543701e+000
1.750955e+003,-6.841919e+000
1.751919e+003,-5.722412e+000
1.752884e+003,-3.302979e+000
1.753848e+003,-2.146118e+000
1.754812e+003,-1.940674e+000
1.755776e+003,-1.732178e+000
1.756741e+003,-1.022461e+000
1.757705e+003,1.754150e-001
1.758669e+003,1.627319e+000
1.759633e+003,2.906494e+000
1.760598e+003,4.529175e+000
1.761562e+003,4.211060e+000
1.762526e+003,1.030273e-001
1.763490e+003,-3.838989e+000
1.764455e+003,-4.440430e+000
1.765419e+003,-3.072510e+000
1.766383e+003,-2.503418e+000
1.767347e+003,-3.204712e+000
1.768312e+003,-3.556030e+000
1.769276e+003,-2.931030e+000
1.770240e+003,-2.856323e+000
1.771204e+003,-4.404663e+000
1.772168e+003,-6.425659e+000
1.773133e+003,-7.921997e+000
1.774097e+003,-8.795898e+000
1.775061e+003,-7.390869e+000
1.776025e+003,-3.727173e+000
1.776990e+003,-6.109619e-001
1.777954e+003,2.243286e+000
1.778918e+003,3.555298e+000
1.779882e+003,5.552979e-001
1.780846e+003,-4.133911e+000
1.781811e+003,-6.557495e+000
1.782775e+003,-6.961182e+000
1.783739e+003,-6.540894e+000
1.784703e+003,-5.233765e+000
1.785668e+003,-3.447876e+000
1.786632e+003,-6.948242e-001
1.787596e+003,2.066650e-001
1.788560e+003,-3.911011e+000
1.789525e+003,-8.843018e+000
1.790489e+003,-9.056152e+000
1.791453e+003,-5.838379e+000
1.792417e+003,-3.178589e+000
1.793382e+003,-1.992310e+000
1.794346e+003,-1.727905e+000
1.795310e+003,-2.198486e+000
1.796274e+003,-3.345825e+000
1.797239e+003,-4.940918e+000
1.798203e+003,-5.936523e+000
1.799167e+003,-5.024780e+000
1.800131e+003,-2.991943e+000
1.801095e+003,-1.818481e+000
1.802060e+003,6.950684e-001
1.803024e+003,1.148682e+000
1.803988e+003,-5.068726e+000
1.804952e+003,-8.945190e+000
1.805917e+003,-3.130859e+000
1.806881e+003,4.412964e+000
1.807845e+003,5.248291e+000
1.808809e+003,1.704224e+000
1.809773e+003,2.567139e-001
1.810738e+003,2.129028e+000
1.811702e+003,3.501099e+000
1.812666e+003,1.963623e+000
1.813630e+003,-1.595459e-001
1.814595e+003,3.752441e-001
1.815559e+003,2.643555e+000
1.816523e+003,3.471313e+000
1.817487e+003,2.849731e+000
1.818452e+003,2.456787e+000
1.819416e+003,3.043701e+000
1.820380e+003,3.437744e+000
1.821344e+003,1.975342e+000
1.822309e+003,1.019409e+000
1.823273e+003,4.032959e+000
1.824237e+003,7.401245e+000
1.825201e+003,6.192871e+000
1.826166e+003,1.918335e+000
1.827130e+003,-8.868408e-001
1.828094e+003,-1.602783e+000
1.829058e+003,-1.144287e+000
1.830022e+003,8.428955e-001
1.830987e+003,3.173096e+000
1.831951e+003,5.450439e+000
1.832915e+003,7.071533e+000
1.833879e+003,6.525513e+000
1.834844e+003,4.581055e+000
1.835808e+003,3.630981e+000
1.836772e+003,4.095093e+000
1.837736e+003,5.303345e+000
1.838700e+003,6.772461e+000
1.839665e+003,6.695923e+000
1.840629e+003,3.221802e+000
1.841593e+003,-1.271729e+000
1.842557e+003,-1.983887e+000
1.843522e+003,9.942627e-001
1.844486e+003,2.797974e+000
1.845450e+003,3.495850e+000
1.846414e+003,4.254028e+000
1.847379e+003,4.437622e+000
1.848343e+003,3.677002e+000
1.849307e+003,1.776367e+000
1.850271e+003,-3.636475e-001
1.851236e+003,-2.867798e+000
1.852200e+003,-4.200439e+000
1.853164e+003,-2.083374e+000
1.854128e+003,2.001465e+000
1.855093e+003,4.467041e+000
1.856057e+003,4.415039e+000
1.857021e+003,3.015015e+000
1.857985e+003,6.018066e-001
1.858949e+003,-1.390015e+000
1.859914e+003,5.291748e-001
1.860878e+003,5.559570e+000
1.861842e+003,7.897827e+000
1.862806e+003,7.230591e+000
1.863771e+003,7.989624e+000
1.864735e+003,1.119592e+001
1.865699e+003,1.327966e+001
1.866663e+003,1.274585e+001
1.867627e+003,1.154126e+001
1.868592e+003,1.064722e+001
1.869556e+003,9.604858e+000
1.870520e+003,8.555176e+000
1.871484e+003,7.433960e+000
1.872449e+003,6.044067e+000
1.873413e+003,5.437256e+000
1.874377e+003,6.795532e+000
1.875341e+003,1.080225e+001
1.876306e+003,1.363098e+001
1.877270e+003,1.196960e+001
1.878234e+003,8.962402e+000
1.879198e+003,7.766968e+000
1.880163e+003,8.091553e+000
1.881127e+003,9.526245e+000
1.882091e+003,1.139160e+001
1.883055e+003,1.142651e+001
1.884020e+003,8.958374e+000
1.884984e+003,7.255615e+000
1.885948e+003,9.399292e+000
1.886912e+003,1.318896e+001
1.887876e+003,1.403674e+001
1.888841e+003,1.239673e+001
1.889805e+003,1.350195e+001
1.890769e+003,1.828857e+001
1.891733e+003,2.064319e+001
1.892698e+003,1.870959e+001
1.893662e+003,1.632349e+001
1.894626e+003,1.439001e+001
1.895590e+003,1.330554e+001
1.896554e+003,1.371106e+001
1.897519e+003,1.539539e+001
1.898483e+003,1.825500e+001
1.899447e+003,2.128979e+001
1.900411e+003,2.291431e+001
1.901376e+003,2.304297e+001
1.902340e+003,2.229675e+001
1.903304e+003,1.986548e+001
1.904268e+003,1.803271e+001
1.905233e+003,1.957861e+001
1.906197e+003,2.151147e+001
1.907161e+003,1.987659e+001
1.908125e+003,1.702124e+001
1.909090e+003,1.718689e+001
1.910054e+003,1.992932e+001
1.911018e+003,2.256494e+001
1.911982e+003,2.426648e+001
1.912947e+003,2.497595e+001
1.913911e+003,2.449231e+001
1.914875e+003,2.367505e+001
1.915839e+003,2.359766e+001
1.916803e+003,2.392419e+001
1.917768e+003,2.539502e+001
1.918732e+003,2.875256e+001
1.919696e+003,3.113562e+001
1.920660e+003,3.319482e+001
1.921625e+003,3.313513e+001
1.922589e+003,2.860913e+001
1.923553e+003,2.428381e+001
1.924517e+003,2.161658e+001
1.925481e+003,2.130322e+001
1.926446e+003,2.601563e+001
1.927410e+003,3.280286e+001
1.928374e+003,3.529041e+001
1.929338e+003,3.305786e+001
1.930303e+003,3.161658e+001
1.931267e+003,3.360669e+001
1.932231e+003,3.517346e+001
1.933195e+003,3.242786e+001
1.934160e+003,2.996387e+001
1.935124e+003,3.321948e+001
1.936088e+003,3.664502e+001
1.937052e+003,3.181262e+001
1.938017e+003,2.305457e+001
1.938981e+003,2.092627e+001
1.939945e+003,2.589282e+001
1.940909e+003,3.049036e+001
1.941874e+003,3.100781e+001
1.942838e+003,2.855273e+001
1.943802e+003,2.432629e+001
1.944766e+003,2.144189e+001
1.945730e+003,2.619641e+001
1.946695e+003,3.671399e+001
1.947659e+003,3.996741e+001
1.948623e+003,3.509644e+001
1.949587e+003,3.104749e+001
1.950552e+003,2.893530e+001
1.951516e+003,2.829089e+001
1.952480e+003,2.972986e+001
1.953444e+003,3.086292e+001
1.954408e+003,2.943970e+001
1.955373e+003,2.668555e+001
1.956337e+003,2.440479e+001
1.957301e+003,2.336792e+001
1.958265e+003,2.464185e+001
1.959230e+003,2.868518e+001
1.960194e+003,3.194958e+001
1.961158e+003,3.329724e+001
1.962122e+003,3.294958e+001
1.963087e+003,2.855396e+001
1.964051e+003,2.569177e+001
1.965015e+003,3.012195e+001
1.965979e+003,3.640515e+001
1.966944e+003,3.828345e+001
1.967908e+003,3.691943e+001
1.968872e+003,3.566553e+001
1.969836e+003,3.553406e+001
1.970801e+003,3.636047e+001
1.971765e+003,3.808691e+001
1.972729e+003,4.052966e+001
1.973693e+003,4.388586e+001
1.974657e+003,4.664185e+001
1.975622e+003,4.534497e+001
1.976586e+003,4.169824e+001
1.977550e+003,4.140356e+001
1.978514e+003,4.405054e+001
1.979479e+003,4.544641e+001
1.980443e+003,4.488586e+001
1.981407e+003,4.368152e+001
1.982371e+003,4.245007e+001
1.983335e+003,4.280554e+001
1.984300e+003,4.605469e+001
1.985264e+003,4.896313e+001
1.986228e+003,4.650171e+001
1.987192e+003,4.013721e+001
1.988157e+003,3.770129e+001
1.989121e+003,4.029065e+001
1.990085e+003,4.237952e+001
1.991049e+003,4.423608e+001
1.992014e+003,4.570972e+001
1.992978e+003,4.620605e+001
1.993942e+003,4.645374e+001
1.994906e+003,4.717908e+001
1.995871e+003,4.731616e+001
1.996835e+003,4.517090e+001
1.997799e+003,4.284778e+001
1.998763e+003,4.354077e+001
1.999728e+003,4.645068e+001
