5.003444e+002,3.744086e+001
5.013087e+002,3.428474e+001
5.022729e+002,3.364803e+001
5.032371e+002,3.483025e+001
5.042014e+002,3.444048e+001
5.051656e+002,3.278221e+001
5.061298e+002,3.131700e+001
5.070941e+002,3.143385e+001
5.080583e+002,3.357823e+001
5.090225e+002,3.434052e+001
5.099868e+002,3.331447e+001
5.109510e+002,3.183936e+001
5.119152e+002,3.034875e+001
5.128795e+002,2.884460e+001
5.138437e+002,2.796986e+001
5.148079e+002,2.843489e+001
5.157722e+002,2.916158e+001
5.167364e+002,3.001025e+001
5.177006e+002,3.071429e+001
5.186649e+002,3.076910e+001
5.196291e+002,2.906667e+001
5.205933e+002,2.689293e+001
5.215576e+002,2.552863e+001
5.225218e+002,2.501740e+001
5.234860e+002,2.492525e+001
5.244503e+002,2.458823e+001
5.254145e+002,2.405206e+001
5.263787e+002,2.368855e+001
5.273430e+002,2.335239e+001
5.283072e+002,2.327827e+001
5.292714e+002,2.388086e+001
5.302357e+002,2.563263e+001
5.311999e+002,2.663387e+001
5.321641e+002,2.660126e+001
5.331284e+002,2.621080e+001
5.340926e+002,2.602472e+001
5.350568e+002,2.622841e+001
5.360211e+002,2.593425e+001
5.369853e+002,2.394807e+001
5.379495e+002,2.158484e+001
5.389138e+002,1.969679e+001
5.398780e+002,1.867960e+001
5.408422e+002,1.850354e+001
5.418065e+002,1.956084e+001
5.427707e+002,2.162663e+001
5.437349e+002,2.310281e+001
5.446992e+002,2.345944e+001
5.456634e+002,2.297559e+001
5.466276e+002,2.268558e+001
5.475919e+002,2.302927e+001
5.485561e+002,2.309874e+001
5.495203e+002,2.253979e+001
5.504846e+002,2.170457e+001
5.514488e+002,2.120012e+001
5.524130e+002,2.151956e+001
5.533773e+002,2.170541e+001
5.543415e+002,2.123164e+001
5.553057e+002,2.043134e+001
5.562700e+002,1.966885e+001
5.572342e+002,1.914662e+001
5.581984e+002,1.857062e+001
5.591627e+002,1.701770e+001
5.601269e+002,1.498506e+001
5.610911e+002,1.332857e+001
5.620554e+002,1.243956e+001
5.630196e+002,1.227013e+001
5.639838e+002,1.283929e+001
5.649481e+002,1.540378e+001
5.659123e+002,1.690776e+001
5.668765e+002,1.663892e+001
5.678408e+002,1.508676e+001
5.688050e+002,1.337448e+001
5.697692e+002,1.095638e+001
5.707335e+002,9.257401e+000
5.716977e+002,9.325455e+000
5.726619e+002,1.019659e+001
5.736262e+002,1.049051e+001
5.745904e+002,9.163330e+000
5.755546e+002,7.515045e+000
5.765189e+002,7.475571e+000
5.774831e+002,8.444809e+000
5.784473e+002,9.652191e+000
5.794116e+002,1.061221e+001
5.803758e+002,1.140807e+001
5.813400e+002,1.213971e+001
5.823043e+002,1.297227e+001
5.832685e+002,1.303297e+001
5.842327e+002,1.149544e+001
5.851970e+002,8.797653e+000
5.861612e+002,7.368774e+000
5.871254e+002,8.456161e+000
5.880897e+002,9.806747e+000
5.890539e+002,1.145074e+001
5.900181e+002,1.292999e+001
5.909824e+002,1.365514e+001
5.919466e+002,1.320674e+001
5.929108e+002,1.199852e+001
5.938751e+002,1.037650e+001
5.948393e+002,8.572479e+000
5.958035e+002,6.920685e+000
5.967678e+002,5.674774e+000
5.977320e+002,4.872452e+000
5.986962e+002,4.584930e+000
5.996605e+002,4.674286e+000
6.006247e+002,4.789566e+000
6.015889e+002,4.817215e+000
6.025532e+002,4.769882e+000
6.035174e+002,4.662079e+000
6.044816e+002,4.114639e+000
6.054459e+002,3.992538e+000
6.064101e+002,4.632782e+000
6.073743e+002,5.743607e+000
6.083386e+002,6.879242e+000
6.093028e+002,8.008682e+000
6.102670e+002,8.721130e+000
6.112313e+002,8.424210e+000
6.121955e+002,7.703537e+000
6.131597e+002,7.377686e+000
6.141240e+002,7.992188e+000
6.150882e+002,9.213638e+000
6.160524e+002,9.864685e+000
6.170167e+002,1.009488e+001
6.179809e+002,9.557510e+000
6.189451e+002,7.701736e+000
6.199094e+002,4.765060e+000
6.208736e+002,2.976364e+000
6.218378e+002,3.054062e+000
6.228021e+002,3.871948e+000
6.237663e+002,6.176559e+000
6.247305e+002,8.997665e+000
6.256948e+002,1.072600e+001
6.266590e+002,1.035158e+001
6.276232e+002,9.364212e+000
6.285875e+002,8.765091e+000
6.295517e+002,8.362122e+000
6.305159e+002,7.895065e+000
6.314802e+002,7.199554e+000
6.324444e+002,6.372452e+000
6.334086e+002,5.873505e+000
6.343729e+002,5.664581e+000
6.353371e+002,5.376297e+000
6.363013e+002,4.785995e+000
6.372656e+002,4.068237e+000
6.382298e+002,3.958862e+000
6.391940e+002,5.537582e+000
6.401583e+002,6.192505e+000
6.411225e+002,5.599380e+000
6.420867e+002,4.445938e+000
6.430510e+002,3.388382e+000
6.440152e+002,2.452148e+000
6.449794e+002,1.720718e+000
6.459437e+002,1.559891e+000
6.469079e+002,1.372009e+000
6.478721e+002,4.013672e-001
6.488364e+002,-1.421448e+000
6.498006e+002,-3.079285e+000
6.507648e+002,-2.416290e+000
6.517291e+002,-2.798462e-001
6.526933e+002,1.395844e+000
6.536575e+002,2.242325e+000
6.546218e+002,2.584595e+000
6.555860e+002,3.096909e+000
6.565502e+002,4.219055e+000
6.575145e+002,4.367676e+000
6.584787e+002,2.611069e+000
6.594429e+002,7.678528e-001
6.604072e+002,6.072540e-001
6.613714e+002,2.599457e+000
6.623356e+002,3.874100e+000
6.632999e+002,1.558640e+000
6.642641e+002,-6.598969e-001
6.652283e+002,-1.904449e-001
6.661926e+002,2.703613e+000
6.671568e+002,5.524155e+000
6.681210e+002,4.947128e+000
6.690853e+002,2.270874e+000
6.700495e+002,1.345367e+000
6.710137e+002,2.178940e+000
6.719780e+002,3.513611e+000
6.729422e+002,4.020523e+000
6.739064e+002,3.516235e+000
6.748707e+002,2.952194e+000
6.758349e+002,2.035004e+000
6.767991e+002,1.358185e+000
6.777634e+002,1.410706e+000
6.787276e+002,2.145615e+000
6.796918e+002,2.771194e+000
6.806561e+002,2.835403e+000
6.816203e+002,2.700241e+000
6.825845e+002,2.253418e+000
6.835488e+002,1.766434e+000
6.845130e+002,1.812347e+000
6.854772e+002,2.943176e+000
6.864415e+002,4.318588e+000
6.874057e+002,3.621643e+000
6.883699e+002,1.438217e+000
6.893342e+002,-6.672516e-001
6.902984e+002,-1.844421e+000
6.912626e+002,-2.065231e+000
6.922269e+002,-1.354782e+000
6.931911e+002,2.360672e+000
6.941553e+002,4.401581e+000
6.951196e+002,2.672668e+000
6.960838e+002,-5.286865e-001
6.970480e+002,-1.054474e+000
6.980123e+002,3.552353e+000
6.989765e+002,6.794052e+000
6.999407e+002,5.167770e+000
7.009050e+002,1.994247e+000
7.018692e+002,-3.909912e-001
7.028334e+002,-1.081955e+000
7.037977e+002,-6.886902e-001
7.047619e+002,5.006866e-001
7.057261e+002,1.969147e+000
7.066904e+002,2.151337e+000
7.076546e+002,7.931061e-001
7.086188e+002,-7.201080e-001
7.095831e+002,-1.280212e-002
7.105473e+002,4.385315e+000
7.115115e+002,5.954651e+000
7.124758e+002,2.956696e+000
7.134400e+002,-5.664368e-001
7.144042e+002,-2.197815e+000
7.153685e+002,-1.806488e+000
7.163327e+002,-1.188873e+000
7.172969e+002,-1.075058e+000
7.182612e+002,-9.145508e-001
7.192254e+002,-2.762451e-001
7.201896e+002,5.243988e-001
7.211539e+002,7.343140e-001
7.221181e+002,-3.825226e-001
7.230823e+002,-2.009079e+000
7.240466e+002,-1.611053e+000
7.250108e+002,3.715515e-001
7.259750e+002,1.838425e+000
7.269393e+002,1.350082e+000
7.279035e+002,-8.510590e-001
7.288677e+002,-1.892410e+000
7.298320e+002,-4.056549e-001
7.307962e+002,1.011581e+000
7.317604e+002,2.410507e+000
7.327247e+002,3.597153e+000
7.336889e+002,4.174637e+000
7.346531e+002,3.769913e+000
7.356174e+002,3.011276e+000
7.365816e+002,2.309601e+000
7.375458e+002,1.765671e+000
7.385101e+002,1.562119e+000
7.394743e+002,1.659592e+000
7.404385e+002,1.718384e+000
7.414028e+002,1.096420e+000
7.423670e+002,-2.174683e-001
7.433312e+002,-1.431870e+000
7.442955e+002,-2.424469e+000
7.452597e+002,-2.599731e+000
7.462239e+002,-1.030899e+000
7.471882e+002,3.024857e+000
7.481524e+002,5.290512e+000
7.491166e+002,4.750092e+000
7.500809e+002,3.671692e+000
7.510451e+002,2.533249e+000
7.520093e+002,1.522552e+000
7.529736e+002,1.011292e+000
7.539378e+002,1.652908e+000
7.549020e+002,2.367950e+000
7.558663e+002,2.611282e+000
7.568306e+002,2.413834e+000
7.577948e+002,1.523239e+000
7.587590e+002,-1.482391e-001
7.597233e+002,-1.992401e+000
7.606875e+002,-1.523544e+000
7.616517e+002,9.994049e-001
7.626160e+002,2.951752e+000
7.635802e+002,3.651703e+000
7.645444e+002,3.502350e+000
7.655087e+002,3.311447e+000
7.664729e+002,3.238602e+000
7.674371e+002,2.629959e+000
7.684014e+002,7.273865e-001
7.693656e+002,-9.981232e-001
7.703298e+002,-1.575867e+000
7.712941e+002,-9.038696e-001
7.722583e+002,3.371582e-001
7.732225e+002,2.286316e+000
7.741868e+002,3.988373e+000
7.751510e+002,4.490311e+000
7.761152e+002,4.096985e+000
7.770795e+002,3.663071e+000
7.780437e+002,3.933060e+000
7.790079e+002,4.723511e+000
7.799722e+002,4.569611e+000
7.809364e+002,3.498505e+000
7.819006e+002,2.184738e+000
7.828649e+002,2.615204e-001
7.838291e+002,-1.653473e+000
7.847933e+002,-1.397522e+000
7.857576e+002,3.044235e+000
7.867218e+002,6.049805e+000
7.876860e+002,6.378433e+000
7.886503e+002,5.497284e+000
7.896145e+002,4.335541e+000
7.905787e+002,3.245102e+000
7.915430e+002,2.430466e+000
7.925072e+002,2.186890e+000
7.934714e+002,2.163712e+000
7.944357e+002,2.177933e+000
7.953999e+002,2.235855e+000
7.963641e+002,2.276627e+000
7.973284e+002,2.180557e+000
7.982926e+002,1.923828e+000
7.992568e+002,2.086075e+000
8.002211e+002,2.649811e+000
8.011853e+002,3.091614e+000
8.021495e+002,3.422821e+000
8.031138e+002,3.759903e+000
8.040780e+002,4.080444e+000
8.050422e+002,4.223541e+000
8.060065e+002,4.298004e+000
8.069707e+002,3.977692e+000
8.079349e+002,3.706726e+000
8.088992e+002,4.241119e+000
8.098634e+002,5.754639e+000
8.108276e+002,7.213120e+000
8.117919e+002,6.695343e+000
8.127561e+002,4.927795e+000
8.137203e+002,3.694290e+000
8.146846e+002,3.306763e+000
8.156488e+002,3.397797e+000
8.166130e+002,3.441193e+000
8.175773e+002,3.329178e+000
8.185415e+002,3.686172e+000
8.195057e+002,4.973709e+000
8.204700e+002,5.898178e+000
8.214342e+002,5.908752e+000
8.223984e+002,5.228668e+000
8.233627e+002,4.470413e+000
8.243269e+002,3.812698e+000
8.252911e+002,3.228333e+000
8.262554e+002,2.254044e+000
8.272196e+002,1.521667e+000
8.281838e+002,1.867310e+000
8.291481e+002,3.466171e+000
8.301123e+002,5.617004e+000
8.310765e+002,7.201584e+000
8.320408e+002,8.103592e+000
8.330050e+002,8.335266e+000
8.339692e+002,7.962097e+000
8.349335e+002,6.786331e+000
8.358977e+002,4.103882e+000
8.368619e+002,-5.096436e-001
8.378262e+002,-3.086090e+000
8.387904e+002,-2.107193e+000
8.397546e+002,-8.571167e-001
8.407189e+002,-1.630707e-001
8.416831e+002,2.964935e-001
8.426473e+002,1.390396e+000
8.436116e+002,3.702164e+000
8.445758e+002,5.930588e+000
8.455400e+002,6.364182e+000
8.465043e+002,5.912979e+000
8.474685e+002,5.606552e+000
8.484327e+002,5.842743e+000
8.493970e+002,6.481796e+000
8.503612e+002,7.193573e+000
8.513254e+002,7.990814e+000
8.522897e+002,8.206177e+000
8.532539e+002,7.362045e+000
8.542181e+002,6.503174e+000
8.551824e+002,6.403442e+000
8.561466e+002,7.068497e+000
8.571108e+002,7.715302e+000
8.580751e+002,7.614517e+000
8.590393e+002,7.791153e+000
8.600035e+002,9.093216e+000
8.609678e+002,1.073247e+001
8.619320e+002,1.169751e+001
8.628962e+002,1.160582e+001
8.638605e+002,1.121442e+001
8.648247e+002,1.196425e+001
8.657889e+002,1.313965e+001
8.667532e+002,1.301019e+001
8.677174e+002,1.135713e+001
8.686816e+002,9.472397e+000
8.696459e+002,8.893829e+000
8.706101e+002,9.884155e+000
8.715743e+002,1.065669e+001
8.725386e+002,1.081802e+001
8.735028e+002,1.129555e+001
8.744670e+002,1.263751e+001
8.754313e+002,1.424423e+001
8.763955e+002,1.480981e+001
8.773597e+002,1.346423e+001
8.783240e+002,1.284982e+001
8.792882e+002,1.589969e+001
8.802524e+002,1.970961e+001
8.812167e+002,2.184055e+001
8.821809e+002,2.178481e+001
8.831451e+002,2.038858e+001
8.841094e+002,1.863831e+001
8.850736e+002,1.673106e+001
8.860378e+002,1.658434e+001
8.870021e+002,1.861751e+001
8.879663e+002,2.045689e+001
8.889305e+002,2.038708e+001
8.898948e+002,1.885730e+001
8.908590e+002,1.846165e+001
8.918232e+002,2.069295e+001
8.927875e+002,2.199223e+001
8.937517e+002,2.078648e+001
8.947159e+002,1.906837e+001
8.956802e+002,1.827596e+001
8.966444e+002,1.875352e+001
8.976086e+002,2.014621e+001
8.985729e+002,2.284599e+001
8.995371e+002,2.574509e+001
9.005013e+002,2.674246e+001
9.014656e+002,2.612407e+001
9.024298e+002,2.532268e+001
9.033940e+002,2.536160e+001
9.043583e+002,2.601933e+001
9.053225e+002,2.614053e+001
9.062867e+002,2.454468e+001
9.072510e+002,2.384923e+001
9.082152e+002,2.524556e+001
9.091794e+002,2.704095e+001
9.101437e+002,2.735068e+001
9.111079e+002,2.585205e+001
9.120721e+002,2.441052e+001
9.130364e+002,2.418448e+001
9.140006e+002,2.410556e+001
9.149648e+002,2.350420e+001
9.159291e+002,2.269823e+001
9.168933e+002,2.233615e+001
9.178575e+002,2.282268e+001
9.188218e+002,2.392686e+001
9.197860e+002,2.532669e+001
9.207502e+002,2.707599e+001
9.217145e+002,2.700609e+001
9.226787e+002,2.361922e+001
9.236429e+002,1.948741e+001
9.246072e+002,1.827122e+001
9.255714e+002,2.056551e+001
9.265356e+002,2.220305e+001
9.274999e+002,2.217216e+001
9.284641e+002,2.165894e+001
9.294283e+002,2.093605e+001
9.303926e+002,2.011830e+001
9.313568e+002,1.903799e+001
9.323210e+002,1.753523e+001
9.332853e+002,1.642845e+001
9.342495e+002,1.798784e+001
9.352137e+002,2.062921e+001
9.361780e+002,2.194958e+001
9.371422e+002,2.150562e+001
9.381064e+002,2.021780e+001
9.390707e+002,1.915056e+001
9.400349e+002,1.816939e+001
9.409991e+002,1.761365e+001
9.419634e+002,1.814261e+001
9.429276e+002,1.815395e+001
9.438918e+002,1.670604e+001
9.448561e+002,1.468317e+001
9.458203e+002,1.348462e+001
9.467845e+002,1.349582e+001
9.477488e+002,1.448282e+001
9.487130e+002,1.787685e+001
9.496772e+002,2.098428e+001
9.506415e+002,2.104620e+001
9.516057e+002,1.839174e+001
9.525699e+002,1.552141e+001
9.535342e+002,1.488011e+001
9.544984e+002,1.607390e+001
9.554626e+002,1.587463e+001
9.564269e+002,1.404865e+001
9.573911e+002,1.288617e+001
9.583553e+002,1.342529e+001
9.593196e+002,1.472934e+001
9.602838e+002,1.525484e+001
9.612480e+002,1.473346e+001
9.622123e+002,1.416689e+001
9.631765e+002,1.371571e+001
9.641407e+002,1.347540e+001
9.651050e+002,1.377168e+001
9.660692e+002,1.421793e+001
9.670334e+002,1.405719e+001
9.679977e+002,1.285664e+001
9.689619e+002,1.127882e+001
9.699261e+002,1.038727e+001
9.708904e+002,1.004663e+001
9.718546e+002,1.034158e+001
9.728188e+002,1.128165e+001
9.737831e+002,1.274789e+001
9.747473e+002,1.491721e+001
9.757115e+002,1.818501e+001
9.766758e+002,2.013145e+001
9.776400e+002,2.017796e+001
9.786042e+002,1.976300e+001
9.795685e+002,1.899530e+001
9.805327e+002,1.790071e+001
9.814969e+002,1.652699e+001
9.824612e+002,1.495457e+001
9.834254e+002,1.322278e+001
9.843896e+002,1.087271e+001
9.853539e+002,8.507431e+000
9.863181e+002,6.686737e+000
9.872823e+002,5.469299e+000
9.882466e+002,5.009094e+000
9.892108e+002,5.556885e+000
9.901750e+002,7.066879e+000
9.911393e+002,8.266571e+000
9.921035e+002,8.467499e+000
9.930677e+002,8.959412e+000
9.940320e+002,1.028708e+001
9.949962e+002,1.172243e+001
9.959604e+002,1.250597e+001
9.969247e+002,1.262827e+001
9.978889e+002,1.287392e+001
9.988531e+002,1.377914e+001
9.998174e+002,1.436610e+001
1.000782e+003,1.390210e+001
1.001746e+003,1.296988e+001
1.002710e+003,1.242050e+001
1.003674e+003,1.258498e+001
1.004639e+003,1.300688e+001
1.005603e+003,1.285071e+001
1.006567e+003,1.201620e+001
1.007531e+003,1.187939e+001
1.008495e+003,1.301067e+001
1.009460e+003,1.372667e+001
1.010424e+003,1.252634e+001
1.011388e+003,1.004823e+001
1.012352e+003,8.914963e+000
1.013317e+003,1.007079e+001
1.014281e+003,1.121394e+001
1.015245e+003,1.180977e+001
1.016209e+003,1.189618e+001
1.017174e+003,1.143262e+001
1.018138e+003,1.051645e+001
1.019102e+003,9.316895e+000
1.020066e+003,7.943375e+000
1.021031e+003,6.612366e+000
1.021995e+003,5.824127e+000
1.022959e+003,5.392654e+000
1.023923e+003,5.080200e+000
1.024887e+003,4.962448e+000
1.025852e+003,4.624100e+000
1.026816e+003,3.165344e+000
1.027780e+003,1.642914e-001
1.028744e+003,-1.591019e+000
1.029709e+003,-9.825745e-001
1.030673e+003,-2.310638e-001
1.031637e+003,-1.729431e-001
1.032601e+003,-3.354340e-001
1.033566e+003,2.872162e-001
1.034530e+003,2.031754e+000
1.035494e+003,3.622681e+000
1.036458e+003,3.521179e+000
1.037422e+003,2.298386e+000
1.038387e+003,6.909027e-001
1.039351e+003,-1.159225e+000
1.040315e+003,-2.582993e+000
1.041279e+003,-3.046677e+000
1.042244e+003,-2.627380e+000
1.043208e+003,-1.794540e+000
1.044172e+003,1.842499e-001
1.045136e+003,1.041061e+000
1.046101e+003,-4.126740e-001
1.047065e+003,-1.714615e+000
1.048029e+003,-9.587402e-001
1.048993e+003,1.377533e+000
1.049958e+003,3.198410e+000
1.050922e+003,3.537323e+000
1.051886e+003,3.223907e+000
1.052850e+003,2.752884e+000
1.053814e+003,2.351761e+000
1.054779e+003,2.490952e+000
1.055743e+003,3.168030e+000
1.056707e+003,3.773743e+000
1.057671e+003,3.565292e+000
1.058636e+003,2.517685e+000
1.059600e+003,1.634125e+000
1.060564e+003,9.108887e-001
1.061528e+003,5.616150e-001
1.062493e+003,8.494720e-001
1.063457e+003,1.210938e+000
1.064421e+003,8.042908e-001
1.065385e+003,-3.833466e-001
1.066349e+003,-7.096100e-001
1.067314e+003,1.480637e+000
1.068278e+003,3.834167e+000
1.069242e+003,4.957886e+000
1.070206e+003,5.074860e+000
1.071171e+003,4.188721e+000
1.072135e+003,2.475311e+000
1.073099e+003,9.540405e-001
1.074063e+003,1.530792e+000
1.075028e+003,4.556564e+000
1.075992e+003,5.474136e+000
1.076956e+003,3.016495e+000
1.077920e+003,8.361816e-001
1.078885e+003,5.105133e-001
1.079849e+003,1.357224e+000
1.080813e+003,2.334335e+000
1.081777e+003,3.521835e+000
1.082741e+003,3.734787e+000
1.083706e+003,5.681915e-001
1.084670e+003,-2.371078e+000
1.085634e+003,-2.677475e+000
1.086598e+003,-1.235199e+000
1.087563e+003,-1.193390e-001
1.088527e+003,-4.105835e-001
1.089491e+003,-1.060043e+000
1.090455e+003,5.628967e-002
1.091420e+003,3.119507e+000
1.092384e+003,4.035858e+000
1.093348e+003,1.798111e+000
1.094312e+003,-8.073273e-001
1.095276e+003,-2.298508e+000
1.096241e+003,-2.812073e+000
1.097205e+003,-2.828812e+000
1.098169e+003,-2.331268e+000
1.099133e+003,-1.731964e+000
1.100098e+003,-7.904358e-001
1.101062e+003,-8.103943e-002
1.102026e+003,-2.467194e-001
1.102990e+003,-9.219360e-001
1.103955e+003,-1.212555e+000
1.104919e+003,-5.996704e-001
1.105883e+003,4.456329e-001
1.106847e+003,1.084106e+000
1.107812e+003,1.242355e+000
1.108776e+003,3.855743e-001
1.109740e+003,-2.213486e+000
1.110704e+003,-4.369141e+000
1.111668e+003,-4.192612e+000
1.112633e+003,-2.121506e+000
1.113597e+003,-1.828156e-001
1.114561e+003,1.647079e+000
1.115525e+003,2.630356e+000
1.116490e+003,1.768112e+000
1.117454e+003,8.194885e-001
1.118418e+003,1.271851e+000
1.119382e+003,2.714813e+000
1.120347e+003,3.734192e+000
1.121311e+003,3.391724e+000
1.122275e+003,2.010132e+000
1.123239e+003,8.145142e-002
1.124203e+003,-2.088776e+000
1.125168e+003,-2.413651e+000
1.126132e+003,-1.152496e-001
1.127096e+003,2.493103e+000
1.128060e+003,3.713638e+000
1.129025e+003,3.717987e+000
1.129989e+003,3.275742e+000
1.130953e+003,1.755829e+000
1.131917e+003,1.314850e+000
1.132882e+003,3.537857e+000
1.133846e+003,5.930511e+000
1.134810e+003,6.796310e+000
1.135774e+003,6.572418e+000
1.136739e+003,6.721359e+000
1.137703e+003,8.051605e+000
1.138667e+003,9.774490e+000
1.139631e+003,1.046011e+001
1.140595e+003,1.022031e+001
1.141560e+003,1.048923e+001
1.142524e+003,1.155627e+001
1.143488e+003,1.257491e+001
1.144452e+003,1.222766e+001
1.145417e+003,1.130965e+001
1.146381e+003,1.309897e+001
1.147345e+003,1.894833e+001
1.148309e+003,2.399147e+001
1.149274e+003,2.635930e+001
1.150238e+003,2.846040e+001
1.151202e+003,3.179449e+001
1.152166e+003,3.580879e+001
1.153130e+003,3.937553e+001
1.154095e+003,4.184018e+001
1.155059e+003,4.298479e+001
1.156023e+003,4.238550e+001
1.156987e+003,4.033644e+001
1.157952e+003,3.908392e+001
1.158916e+003,3.900706e+001
1.159880e+003,3.851193e+001
1.160844e+003,3.650386e+001
1.161809e+003,3.330428e+001
1.162773e+003,2.971251e+001
1.163737e+003,2.555460e+001
1.164701e+003,2.187833e+001
1.165666e+003,1.910463e+001
1.166630e+003,1.684001e+001
1.167594e+003,1.506392e+001
1.168558e+003,1.364651e+001
1.169522e+003,1.231970e+001
1.170487e+003,1.109465e+001
1.171451e+003,1.059911e+001
1.172415e+003,1.171902e+001
1.173379e+003,1.389261e+001
1.174344e+003,1.409552e+001
1.175308e+003,1.230685e+001
1.176272e+003,1.062439e+001
1.177236e+003,9.834839e+000
1.178201e+003,9.444550e+000
1.179165e+003,8.765686e+000
1.180129e+003,7.732529e+000
1.181093e+003,6.702362e+000
1.182057e+003,5.648514e+000
1.183022e+003,4.863037e+000
1.183986e+003,4.420425e+000
1.184950e+003,4.286942e+000
1.185914e+003,4.617218e+000
1.186879e+003,5.285995e+000
1.187843e+003,5.811951e+000
1.188807e+003,5.768600e+000
1.189771e+003,5.417679e+000
1.190736e+003,5.802795e+000
1.191700e+003,7.077423e+000
1.192664e+003,7.197174e+000
1.193628e+003,5.004349e+000
1.194593e+003,3.010208e+000
1.195557e+003,3.595337e+000
1.196521e+003,5.831558e+000
1.197485e+003,6.258591e+000
1.198449e+003,3.754929e+000
1.199414e+003,1.427948e+000
1.200378e+003,8.423615e-001
1.201342e+003,7.592621e-001
1.202306e+003,5.388184e-001
1.203271e+003,1.417236e-001
1.204235e+003,-3.236694e-001
1.205199e+003,-7.596283e-001
1.206163e+003,-1.016556e+000
1.207128e+003,-8.396606e-001
1.208092e+003,-1.922760e-001
1.209056e+003,3.054047e-001
1.210020e+003,8.730011e-001
1.210984e+003,9.334106e-001
1.211949e+003,2.633514e-001
1.212913e+003,-1.001328e+000
1.213877e+003,-2.835403e+000
1.214841e+003,-5.178726e+000
1.215806e+003,-7.346115e+000
1.216770e+003,-9.294617e+000
1.217734e+003,-1.065498e+001
1.218698e+003,-1.101852e+001
1.219663e+003,-1.094337e+001
1.220627e+003,-1.113612e+001
1.221591e+003,-1.167828e+001
1.222555e+003,-1.214284e+001
1.223520e+003,-1.212128e+001
1.224484e+003,-1.163855e+001
1.225448e+003,-1.094630e+001
1.226412e+003,-9.626785e+000
1.227376e+003,-9.178604e+000
1.228341e+003,-1.078111e+001
1.229305e+003,-1.195970e+001
1.230269e+003,-1.072318e+001
1.231233e+003,-8.298431e+000
1.232198e+003,-7.346176e+000
1.233162e+003,-8.573761e+000
1.234126e+003,-9.994308e+000
1.235090e+003,-1.000923e+001
1.236055e+003,-9.830200e+000
1.237019e+003,-1.117694e+001
1.237983e+003,-1.339906e+001
1.238947e+003,-1.456880e+001
1.239911e+003,-1.385641e+001
1.240876e+003,-1.227986e+001
1.241840e+003,-1.136589e+001
1.242804e+003,-1.115195e+001
1.243768e+003,-1.082787e+001
1.244733e+003,-9.890228e+000
1.245697e+003,-9.550766e+000
1.246661e+003,-1.086906e+001
1.247625e+003,-1.208905e+001
1.248590e+003,-1.117688e+001
1.249554e+003,-8.909195e+000
1.250518e+003,-8.396423e+000
1.251482e+003,-1.127368e+001
1.252447e+003,-1.420615e+001
1.253411e+003,-1.218874e+001
1.254375e+003,-7.733124e+000
1.255339e+003,-6.579330e+000
1.256303e+003,-8.813354e+000
1.257268e+003,-1.097807e+001
1.258232e+003,-1.122925e+001
1.259196e+003,-1.028644e+001
1.260160e+003,-9.433151e+000
1.261125e+003,-8.650620e+000
1.262089e+003,-7.677231e+000
1.263053e+003,-6.133499e+000
1.264017e+003,-5.009293e+000
1.264982e+003,-4.936447e+000
1.265946e+003,-5.024826e+000
1.266910e+003,-4.217606e+000
1.267874e+003,-2.694794e+000
1.268839e+003,-1.512253e+000
1.269803e+003,-1.364166e+000
1.270767e+003,-1.984329e+000
1.271731e+003,-2.966461e+000
1.272695e+003,-4.271332e+000
1.273660e+003,-5.545364e+000
1.274624e+003,-7.029404e+000
1.275588e+003,-8.133774e+000
1.276552e+003,-8.391403e+000
1.277517e+003,-7.992752e+000
1.278481e+003,-7.112595e+000
1.279445e+003,-5.689865e+000
1.280409e+003,-5.152649e+000
1.281374e+003,-6.481964e+000
1.282338e+003,-8.119736e+000
1.283302e+003,-9.647751e+000
1.284266e+003,-1.079327e+001
1.285230e+003,-1.109999e+001
1.286195e+003,-1.067192e+001
1.287159e+003,-1.016641e+001
1.288123e+003,-1.009505e+001
1.289087e+003,-1.015501e+001
1.290052e+003,-9.507706e+000
1.291016e+003,-7.721893e+000
1.291980e+003,-7.079285e+000
1.292944e+003,-8.317612e+000
1.293909e+003,-9.754425e+000
1.294873e+003,-1.109563e+001
1.295837e+003,-1.195979e+001
1.296801e+003,-1.152406e+001
1.297766e+003,-9.832794e+000
1.298730e+003,-8.611084e+000
1.299694e+003,-9.017441e+000
1.300658e+003,-9.869934e+000
1.301622e+003,-9.756638e+000
1.302587e+003,-9.151367e+000
1.303551e+003,-8.822128e+000
1.304515e+003,-8.872482e+000
1.305479e+003,-8.980789e+000
1.306444e+003,-8.949478e+000
1.307408e+003,-8.809753e+000
1.308372e+003,-8.422272e+000
1.309336e+003,-7.353790e+000
1.310301e+003,-7.434494e+000
1.311265e+003,-1.024451e+001
1.312229e+003,-1.225447e+001
1.313193e+003,-1.218810e+001
1.314157e+003,-1.100255e+001
1.315122e+003,-9.243835e+000
1.316086e+003,-7.444565e+000
1.317050e+003,-6.659866e+000
1.318014e+003,-7.617706e+000
1.318979e+003,-9.348282e+000
1.319943e+003,-1.032414e+001
1.320907e+003,-1.050043e+001
1.321871e+003,-9.985428e+000
1.322836e+003,-8.608414e+000
1.323800e+003,-7.506073e+000
1.324764e+003,-7.555069e+000
1.325728e+003,-8.082779e+000
1.326693e+003,-7.886795e+000
1.327657e+003,-6.959930e+000
1.328621e+003,-6.295685e+000
1.329585e+003,-5.993408e+000
1.330549e+003,-5.859222e+000
1.331514e+003,-5.778625e+000
1.332478e+003,-6.080658e+000
1.333442e+003,-7.518738e+000
1.334406e+003,-9.575043e+000
1.335371e+003,-1.056870e+001
1.336335e+003,-9.532547e+000
1.337299e+003,-7.637802e+000
1.338263e+003,-7.182617e+000
1.339228e+003,-8.404327e+000
1.340192e+003,-8.789139e+000
1.341156e+003,-7.724503e+000
1.342120e+003,-6.796326e+000
1.343084e+003,-6.010422e+000
1.344049e+003,-5.759827e+000
1.345013e+003,-6.882004e+000
1.345977e+003,-8.696198e+000
1.346941e+003,-9.168732e+000
1.347906e+003,-7.507919e+000
1.348870e+003,-5.558456e+000
1.349834e+003,-5.077606e+000
1.350798e+003,-5.441895e+000
1.351763e+003,-5.107864e+000
1.352727e+003,-4.258682e+000
1.353691e+003,-4.238800e+000
1.354655e+003,-5.728058e+000
1.355620e+003,-7.482849e+000
1.356584e+003,-7.865173e+000
1.357548e+003,-7.049286e+000
1.358512e+003,-6.851654e+000
1.359476e+003,-7.610397e+000
1.360441e+003,-8.509399e+000
1.361405e+003,-9.794418e+000
1.362369e+003,-1.060718e+001
1.363333e+003,-1.022177e+001
1.364298e+003,-9.233093e+000
1.365262e+003,-8.488815e+000
1.366226e+003,-8.182327e+000
1.367190e+003,-7.829117e+000
1.368155e+003,-6.981934e+000
1.369119e+003,-5.965347e+000
1.370083e+003,-5.821182e+000
1.371047e+003,-6.770615e+000
1.372011e+003,-7.584518e+000
1.372976e+003,-8.773788e+000
1.373940e+003,-9.331711e+000
1.374904e+003,-8.296646e+000
1.375868e+003,-6.748169e+000
1.376833e+003,-6.081451e+000
1.377797e+003,-6.371033e+000
1.378761e+003,-6.923584e+000
1.379725e+003,-7.583176e+000
1.380690e+003,-7.916138e+000
1.381654e+003,-6.889145e+000
1.382618e+003,-5.517029e+000
1.383582e+003,-5.506638e+000
1.384547e+003,-6.728180e+000
1.385511e+003,-7.501953e+000
1.386475e+003,-6.934326e+000
1.387439e+003,-5.833313e+000
1.388403e+003,-5.466965e+000
1.389368e+003,-5.839828e+000
1.390332e+003,-5.798584e+000
1.391296e+003,-4.954575e+000
1.392260e+003,-4.320221e+000
1.393225e+003,-3.948288e+000
1.394189e+003,-4.026749e+000
1.395153e+003,-5.230591e+000
1.396117e+003,-6.708466e+000
1.397082e+003,-7.121964e+000
1.398046e+003,-6.189178e+000
1.399010e+003,-4.727295e+000
1.399974e+003,-3.507767e+000
1.400938e+003,-2.649704e+000
1.401903e+003,-2.313843e+000
1.402867e+003,-2.419586e+000
1.403831e+003,-2.582428e+000
1.404795e+003,-3.502792e+000
1.405760e+003,-3.740829e+000
1.406724e+003,-1.937027e+000
1.407688e+003,-4.402161e-002
1.408652e+003,-4.241486e-001
1.409617e+003,-2.829681e+000
1.410581e+003,-5.409988e+000
1.411545e+003,-7.601013e+000
1.412509e+003,-8.944031e+000
1.413474e+003,-8.577515e+000
1.414438e+003,-7.396774e+000
1.415402e+003,-6.690964e+000
1.416366e+003,-6.393127e+000
1.417330e+003,-6.229050e+000
1.418295e+003,-6.133957e+000
1.419259e+003,-5.979813e+000
1.420223e+003,-5.563354e+000
1.421187e+003,-5.005264e+000
1.422152e+003,-4.896561e+000
1.423116e+003,-5.479538e+000
1.424080e+003,-5.460526e+000
1.425044e+003,-3.694244e+000
1.426009e+003,-2.265808e+000
1.426973e+003,-2.349472e+000
1.427937e+003,-3.074753e+000
1.428901e+003,-3.261230e+000
1.429865e+003,-2.861588e+000
1.430830e+003,-2.846634e+000
1.431794e+003,-3.870255e+000
1.432758e+003,-5.152069e+000
1.433722e+003,-4.994919e+000
1.434687e+003,-3.136581e+000
1.435651e+003,-1.845139e+000
1.436615e+003,-1.935715e+000
1.437579e+003,-1.874054e+000
1.438544e+003,-8.969727e-001
1.439508e+003,-3.110199e-001
1.440472e+003,-1.445053e+000
1.441436e+003,-3.355682e+000
1.442401e+003,-4.263229e+000
1.443365e+003,-3.787415e+000
1.444329e+003,-2.768600e+000
1.445293e+003,-1.667847e+000
1.446257e+003,-7.180176e-001
1.447222e+003,-4.853363e-001
1.448186e+003,-8.802948e-001
1.449150e+003,-1.425278e+000
1.450114e+003,-2.134689e+000
1.451079e+003,-2.878662e+000
1.452043e+003,-3.838379e+000
1.453007e+003,-4.523575e+000
1.453971e+003,-4.031937e+000
1.454936e+003,-2.587387e+000
1.455900e+003,-1.701294e+000
1.456864e+003,-1.739197e+000
1.457828e+003,-2.035339e+000
1.458792e+003,-2.758133e+000
1.459757e+003,-3.167892e+000
1.460721e+003,-2.271469e+000
1.461685e+003,-6.973419e-001
1.462649e+003,2.834930e-001
1.463614e+003,3.781586e-001
1.464578e+003,2.180328e-001
1.465542e+003,3.724060e-001
1.466506e+003,5.463104e-001
1.467471e+003,-2.820740e-001
1.468435e+003,-2.492050e+000
1.469399e+003,-3.344376e+000
1.470363e+003,-1.551193e+000
1.471328e+003,-1.805725e-001
1.472292e+003,-2.913971e-001
1.473256e+003,-8.175049e-001
1.474220e+003,-7.025604e-001
1.475184e+003,-3.000031e-001
1.476149e+003,-8.567657e-001
1.477113e+003,-2.582779e+000
1.478077e+003,-3.950424e+000
1.479041e+003,-3.392029e+000
1.480006e+003,-1.436096e+000
1.480970e+003,5.590820e-002
1.481934e+003,1.075989e+000
1.482898e+003,1.194046e+000
1.483863e+003,-8.652649e-001
1.484827e+003,-1.969498e+000
1.485791e+003,-1.202087e-001
1.486755e+003,2.132950e+000
1.487719e+003,2.268753e+000
1.488684e+003,7.272797e-001
1.489648e+003,-7.642822e-001
1.490612e+003,-1.595139e+000
1.491576e+003,-2.047058e+000
1.492541e+003,-2.576233e+000
1.493505e+003,-2.601532e+000
1.494469e+003,-1.225586e-001
1.495433e+003,4.240402e+000
1.496398e+003,7.004776e+000
1.497362e+003,7.565186e+000
1.498326e+003,7.569214e+000
1.499290e+003,7.363678e+000
1.500255e+003,7.404312e+000
1.501219e+003,8.611099e+000
1.502183e+003,1.069400e+001
1.503147e+003,1.179596e+001
1.504111e+003,1.116692e+001
1.505076e+003,1.140970e+001
1.506040e+003,1.509445e+001
1.507004e+003,1.921338e+001
1.507968e+003,1.992511e+001
1.508933e+003,1.905200e+001
1.509897e+003,2.055058e+001
1.510861e+003,2.519691e+001
1.511825e+003,3.076474e+001
1.512790e+003,3.594666e+001
1.513754e+003,4.042259e+001
1.514718e+003,4.330370e+001
1.515682e+003,4.454504e+001
1.516646e+003,4.681931e+001
1.517611e+003,5.069379e+001
1.518575e+003,5.495924e+001
1.519539e+003,6.105209e+001
1.520503e+003,6.567694e+001
1.521468e+003,6.629295e+001
1.522432e+003,6.467944e+001
1.523396e+003,6.309627e+001
1.524360e+003,6.208690e+001
1.525325e+003,6.136650e+001
1.526289e+003,6.077214e+001
1.527253e+003,5.982693e+001
1.528217e+003,5.764716e+001
1.529182e+003,5.428378e+001
1.530146e+003,5.004361e+001
1.531110e+003,4.404799e+001
1.532074e+003,3.868341e+001
1.533039e+003,3.402806e+001
1.534003e+003,2.976727e+001
1.534967e+003,2.621640e+001
1.535931e+003,2.295172e+001
1.536896e+003,1.919057e+001
1.537860e+003,1.521785e+001
1.538824e+003,1.215901e+001
1.539788e+003,1.053096e+001
1.540752e+003,9.675323e+000
1.541717e+003,8.833145e+000
1.542681e+003,8.018082e+000
1.543645e+003,7.073868e+000
1.544609e+003,5.891983e+000
1.545573e+003,5.097992e+000
1.546538e+003,4.427414e+000
1.547502e+003,4.252823e+000
1.548466e+003,5.212830e+000
1.549430e+003,6.518951e+000
1.550395e+003,7.492096e+000
1.551359e+003,7.970062e+000
1.552323e+003,7.696777e+000
1.553287e+003,6.677017e+000
1.554252e+003,5.941330e+000
1.555216e+003,6.463928e+000
1.556180e+003,7.659576e+000
1.557144e+003,8.343735e+000
1.558109e+003,8.509827e+000
1.559073e+003,7.562317e+000
1.560037e+003,4.598663e+000
1.561001e+003,2.168854e+000
1.561966e+003,1.421463e+000
1.562930e+003,1.455276e+000
1.563894e+003,1.468842e+000
1.564858e+003,1.485489e+000
1.565823e+003,1.691574e+000
1.566787e+003,2.125671e+000
1.567751e+003,3.031586e+000
1.568715e+003,4.828918e+000
1.569679e+003,6.397003e+000
1.570644e+003,6.070099e+000
1.571608e+003,4.358719e+000
1.572572e+003,2.830627e+000
1.573536e+003,1.573380e+000
1.574500e+003,7.852020e-001
1.575465e+003,4.822235e-001
1.576429e+003,6.891785e-001
1.577393e+003,1.926437e+000
1.578357e+003,3.430450e+000
1.579322e+003,3.152695e+000
1.580286e+003,1.263016e+000
1.581250e+003,1.721252e+000
1.582214e+003,6.650574e+000
1.583179e+003,1.059373e+001
1.584143e+003,8.200836e+000
1.585107e+003,3.748459e+000
1.586071e+003,3.539413e+000
1.587036e+003,6.295914e+000
1.588000e+003,7.617142e+000
1.588964e+003,6.436386e+000
1.589928e+003,5.015442e+000
1.590893e+003,4.652802e+000
1.591857e+003,5.098938e+000
1.592821e+003,6.403229e+000
1.593785e+003,8.308289e+000
1.594750e+003,9.072342e+000
1.595714e+003,8.246826e+000
1.596678e+003,7.627350e+000
1.597642e+003,8.243942e+000
1.598606e+003,8.830338e+000
1.599571e+003,8.098267e+000
1.600535e+003,6.950150e+000
1.601499e+003,6.452744e+000
1.602463e+003,6.646530e+000
1.603427e+003,7.311783e+000
1.604392e+003,8.433456e+000
1.605356e+003,9.461151e+000
1.606320e+003,9.738663e+000
1.607284e+003,9.534317e+000
1.608249e+003,9.743500e+000
1.609213e+003,1.039883e+001
1.610177e+003,1.030125e+001
1.611141e+003,8.886505e+000
1.612106e+003,7.629852e+000
1.613070e+003,6.941071e+000
1.614034e+003,6.968353e+000
1.614998e+003,8.472031e+000
1.615963e+003,1.052428e+001
1.616927e+003,1.155219e+001
1.617891e+003,1.133536e+001
1.618855e+003,1.057025e+001
1.619820e+003,9.548218e+000
1.620784e+003,8.545822e+000
1.621748e+003,8.104721e+000
1.622712e+003,8.262268e+000
1.623677e+003,8.728271e+000
1.624641e+003,9.641251e+000
1.625605e+003,1.001613e+001
1.626569e+003,8.843048e+000
1.627533e+003,8.065918e+000
1.628498e+003,9.515564e+000
1.629462e+003,1.113802e+001
1.630426e+003,1.082979e+001
1.631390e+003,9.345047e+000
1.632354e+003,8.591278e+000
1.633319e+003,9.006577e+000
1.634283e+003,9.675003e+000
1.635247e+003,9.935883e+000
1.636211e+003,9.962082e+000
1.637176e+003,1.007582e+001
1.638140e+003,1.030873e+001
1.639104e+003,1.069757e+001
1.640068e+003,1.133629e+001
1.641033e+003,1.161522e+001
1.641997e+003,1.109935e+001
1.642961e+003,1.067798e+001
1.643925e+003,1.141063e+001
1.644890e+003,1.194548e+001
1.645854e+003,1.013524e+001
1.646818e+003,7.074036e+000
1.647782e+003,5.988998e+000
1.648747e+003,7.756226e+000
1.649711e+003,9.973328e+000
1.650675e+003,1.078897e+001
1.651639e+003,1.065205e+001
1.652604e+003,1.007831e+001
1.653568e+003,9.073654e+000
1.654532e+003,9.196609e+000
1.655496e+003,1.094647e+001
1.656460e+003,1.233131e+001
1.657425e+003,1.284308e+001
1.658389e+003,1.283020e+001
1.659353e+003,1.232620e+001
1.660317e+003,1.155856e+001
1.661281e+003,1.085182e+001
1.662246e+003,1.006718e+001
1.663210e+003,8.631943e+000
1.664174e+003,6.420609e+000
1.665138e+003,4.381760e+000
1.666103e+003,3.076889e+000
1.667067e+003,2.722900e+000
1.668031e+003,4.551727e+000
1.668995e+003,8.286026e+000
1.669960e+003,9.219696e+000
1.670924e+003,6.117569e+000
1.671888e+003,4.197220e+000
1.672852e+003,5.899460e+000
1.673817e+003,7.863037e+000
1.674781e+003,7.926559e+000
1.675745e+003,7.138321e+000
1.676709e+003,6.345032e+000
1.677674e+003,5.742996e+000
1.678638e+003,5.714447e+000
1.679602e+003,6.369781e+000
1.680566e+003,6.774811e+000
1.681531e+003,6.182480e+000
1.682495e+003,5.043091e+000
1.683459e+003,3.591110e+000
1.684423e+003,2.050949e+000
1.685387e+003,2.542786e+000
1.686352e+003,5.637222e+000
1.687316e+003,7.771545e+000
1.688280e+003,7.493607e+000
1.689244e+003,6.607681e+000
1.690208e+003,6.580902e+000
1.691173e+003,6.494904e+000
1.692137e+003,4.869843e+000
1.693101e+003,2.384476e+000
1.694065e+003,1.279739e+000
1.695030e+003,2.084335e+000
1.695994e+003,2.995804e+000
1.696958e+003,2.934738e+000
1.697922e+003,2.455933e+000
1.698887e+003,2.136963e+000
1.699851e+003,2.003815e+000
1.700815e+003,2.098816e+000
1.701779e+003,2.389191e+000
1.702744e+003,2.815704e+000
1.703708e+003,3.546127e+000
1.704672e+003,3.963669e+000
1.705636e+003,3.231262e+000
1.706601e+003,2.132462e+000
1.707565e+003,2.144135e+000
1.708529e+003,2.909439e+000
1.709493e+003,3.150177e+000
1.710458e+003,2.689087e+000
1.711422e+003,1.899323e+000
1.712386e+003,4.493561e-001
1.713350e+003,-5.870056e-001
1.714314e+003,-4.194641e-002
1.715279e+003,1.168411e+000
1.716243e+003,1.554611e+000
1.717207e+003,1.164215e+000
1.718171e+003,7.954865e-001
1.719135e+003,6.846161e-001
1.720100e+003,7.910614e-001
1.721064e+003,1.124786e+000
1.722028e+003,1.458542e+000
1.722992e+003,1.539948e+000
1.723957e+003,1.453018e+000
1.724921e+003,1.247772e+000
1.725885e+003,7.697144e-001
1.726849e+003,3.901215e-001
1.727814e+003,3.474731e-001
1.728778e+003,4.219666e-001
1.729742e+003,4.735107e-001
1.730706e+003,5.914612e-001
1.731671e+003,6.834106e-001
1.732635e+003,8.476257e-001
1.733599e+003,1.690369e+000
1.734563e+003,3.144501e+000
1.735528e+003,4.087585e+000
1.736492e+003,3.896652e+000
1.737456e+003,2.586197e+000
1.738420e+003,-1.151123e-001
1.739385e+003,-3.289505e+000
1.740349e+003,-3.103165e+000
1.741313e+003,1.675781e+000
1.742277e+003,3.785080e+000
1.743241e+003,1.452881e+000
1.744206e+003,-4.531097e-001
1.745170e+003,-1.431259e+000
1.746134e+003,-1.807770e+000
1.747098e+003,-1.285446e+000
1.748063e+003,-6.348724e-001
1.749027e+003,-9.630432e-001
1.749991e+003,-1.875397e+000
1.750955e+003,-1.897079e+000
1.751919e+003,-7.183228e-001
1.752884e+003,1.677094e-001
1.753848e+003,-4.884033e-001
1.754812e+003,-1.911880e+000
1.755776e+003,-2.524704e+000
1.756741e+003,-2.285873e+000
1.757705e+003,-1.719238e+000
1.758669e+003,-7.527161e-001
1.759633e+003,1.761017e-001
1.760598e+003,1.324127e+000
1.761562e+003,1.862152e+000
1.762526e+003,1.545349e+000
1.763490e+003,6.992340e-001
1.764455e+003,-1.171585e+000
1.765419e+003,-3.033218e+000
1.766383e+003,-3.167908e+000
1.767347e+003,-1.701813e+000
1.768312e+003,-1.553955e-001
1.769276e+003,7.571869e-001
1.770240e+003,7.416382e-001
1.771204e+003,-8.995056e-001
1.772168e+003,-3.099564e+000
1.773133e+003,-3.207672e+000
1.774097e+003,-1.509277e+000
1.775061e+003,-1.109283e+000
1.776025e+003,-2.644424e+000
1.776990e+003,-3.355789e+000
1.777954e+003,-1.887131e+000
1.778918e+003,-1.465302e-001
1.779882e+003,5.896301e-001
1.780846e+003,6.181793e-001
1.781811e+003,6.416321e-002
1.782775e+003,-7.274628e-001
1.783739e+003,-4.309387e-001
1.784703e+003,1.313110e+000
1.785668e+003,2.356415e+000
1.786632e+003,1.579025e+000
1.787596e+003,-1.457214e-002
1.788560e+003,-2.198105e+000
1.789525e+003,-4.218628e+000
1.790489e+003,-5.341217e+000
1.791453e+003,-5.440262e+000
1.792417e+003,-3.735016e+000
1.793382e+003,-3.762817e-001
1.794346e+003,1.783981e+000
1.795310e+003,1.140503e+000
1.796274e+003,5.157471e-003
1.797239e+003,1.276764e+000
1.798203e+003,3.842300e+000
1.799167e+003,3.672165e+000
1.800131e+003,-5.458069e-002
1.801095e+003,-1.956863e+000
1.802060e+003,-7.134094e-001
1.803024e+003,3.249359e-001
1.803988e+003,6.297760e-001
1.804952e+003,8.315887e-001
1.805917e+003,1.384354e+000
1.806881e+003,1.842010e+000
1.807845e+003,1.647812e+000
1.808809e+003,1.069092e+000
1.809773e+003,6.616669e-001
1.810738e+003,5.687866e-001
1.811702e+003,7.118835e-001
1.812666e+003,1.016510e+000
1.813630e+003,9.873505e-001
1.814595e+003,-2.521210e-001
1.815559e+003,-2.125687e+000
1.816523e+003,-1.755249e+000
1.817487e+003,1.233566e+000
1.818452e+003,2.224365e+000
1.819416e+003,2.089539e-001
1.820380e+003,-1.265884e+000
1.821344e+003,-5.355530e-001
1.822309e+003,-2.006836e-001
1.823273e+003,-3.121307e+000
1.824237e+003,-6.034851e+000
1.825201e+003,-4.869049e+000
1.826166e+003,-1.096420e+000
1.827130e+003,1.066742e+000
1.828094e+003,8.836975e-001
1.829058e+003,4.655609e-001
1.830022e+003,9.023438e-001
1.830987e+003,1.290253e+000
1.831951e+003,7.282104e-001
1.832915e+003,-2.221985e-001
1.833879e+003,-7.614288e-001
1.834844e+003,-9.801483e-001
1.835808e+003,-1.394592e+000
1.836772e+003,-2.005005e+000
1.837736e+003,-2.059570e+000
1.838700e+003,-1.242950e+000
1.839665e+003,-3.210144e-001
1.840629e+003,1.629639e-002
1.841593e+003,1.111603e-001
1.842557e+003,7.028961e-001
1.843522e+003,1.773712e+000
1.844486e+003,2.238312e+000
1.845450e+003,1.700745e+000
1.846414e+003,1.481506e+000
1.847379e+003,1.598175e+000
1.848343e+003,1.785950e+000
1.849307e+003,2.406464e+000
1.850271e+003,2.694214e+000
1.851236e+003,1.674652e+000
1.852200e+003,3.187256e-001
1.853164e+003,6.530762e-002
1.854128e+003,6.908417e-001
1.855093e+003,9.250183e-001
1.856057e+003,3.768616e-001
1.857021e+003,-2.738647e-001
1.857985e+003,-5.949707e-001
1.858949e+003,-2.781219e-001
1.859914e+003,1.931198e+000
1.860878e+003,5.404510e+000
1.861842e+003,6.078262e+000
1.862806e+003,3.829254e+000
1.863771e+003,2.469040e+000
1.864735e+003,2.811264e+000
1.865699e+003,3.023590e+000
1.866663e+003,2.376251e+000
1.867627e+003,1.322601e+000
1.868592e+003,-3.580017e-001
1.869556e+003,-1.911026e+000
1.870520e+003,-1.287155e+000
1.871484e+003,1.038803e+000
1.872449e+003,1.721024e+000
1.873413e+003,1.641846e-002
1.874377e+003,-9.302216e-001
1.875341e+003,-5.679321e-002
1.876306e+003,1.236847e+000
1.877270e+003,2.750946e+000
1.878234e+003,3.798798e+000
1.879198e+003,3.238800e+000
1.880163e+003,1.975311e+000
1.881127e+003,1.945709e+000
1.882091e+003,3.029770e+000
1.883055e+003,3.268173e+000
1.884020e+003,1.940048e+000
1.884984e+003,5.597076e-001
1.885948e+003,5.010376e-001
1.886912e+003,1.387466e+000
1.887876e+003,2.645523e+000
1.888841e+003,4.177216e+000
1.889805e+003,4.471207e+000
1.890769e+003,3.213867e+000
1.891733e+003,2.471085e+000
1.892698e+003,2.748932e+000
1.893662e+003,2.618378e+000
1.894626e+003,1.067413e+000
1.895590e+003,-2.732697e-001
1.896554e+003,-2.844238e-002
1.897519e+003,9.203644e-001
1.898483e+003,1.448303e+000
1.899447e+003,1.659897e+000
1.900411e+003,2.527924e+000
1.901376e+003,4.328217e+000
1.902340e+003,4.989685e+000
1.903304e+003,2.871185e+000
1.904268e+003,7.682800e-001
1.905233e+003,4.460297e-001
1.906197e+003,9.455566e-001
1.907161e+003,1.606155e+000
1.908125e+003,2.215805e+000
1.909090e+003,2.414154e+000
1.910054e+003,2.223206e+000
1.911018e+003,1.993729e+000
1.911982e+003,1.883850e+000
1.912947e+003,1.754272e+000
1.913911e+003,1.481064e+000
1.914875e+003,1.440445e+000
1.915839e+003,2.261490e+000
1.916803e+003,3.661362e+000
1.917768e+003,4.435928e+000
1.918732e+003,4.541656e+000
1.919696e+003,4.696579e+000
1.920660e+003,5.266342e+000
1.921625e+003,4.868179e+000
1.922589e+003,1.856583e+000
1.923553e+003,-7.597351e-002
1.924517e+003,2.365097e+000
1.925481e+003,5.553955e+000
1.926446e+003,6.252472e+000
1.927410e+003,5.421814e+000
1.928374e+003,4.941544e+000
1.929338e+003,4.917557e+000
1.930303e+003,4.891861e+000
1.931267e+003,4.858185e+000
1.932231e+003,4.804611e+000
1.933195e+003,4.674026e+000
1.934160e+003,4.435776e+000
1.935124e+003,3.925278e+000
1.936088e+003,3.371735e+000
1.937052e+003,2.934174e+000
1.938017e+003,2.835815e+000
1.938981e+003,3.792816e+000
1.939945e+003,5.488968e+000
1.940909e+003,6.134842e+000
1.941874e+003,5.014191e+000
1.942838e+003,3.752914e+000
1.943802e+003,3.940002e+000
1.944766e+003,4.820541e+000
1.945730e+003,4.648071e+000
1.946695e+003,3.580414e+000
1.947659e+003,3.441666e+000
1.948623e+003,4.345520e+000
1.949587e+003,4.580170e+000
1.950552e+003,3.753708e+000
1.951516e+003,3.306229e+000
1.952480e+003,3.862625e+000
1.953444e+003,4.579163e+000
1.954408e+003,4.888290e+000
1.955373e+003,4.937134e+000
1.956337e+003,4.992676e+000
1.957301e+003,5.093826e+000
1.958265e+003,5.070511e+000
1.959230e+003,4.873184e+000
1.960194e+003,5.039398e+000
1.961158e+003,6.112381e+000
1.962122e+003,6.613358e+000
1.963087e+003,5.724030e+000
1.964051e+003,4.736542e+000
1.965015e+003,4.435776e+000
1.965979e+003,4.476791e+000
1.966944e+003,4.359619e+000
1.967908e+003,4.207169e+000
1.968872e+003,4.523560e+000
1.969836e+003,5.230606e+000
1.970801e+003,5.685791e+000
1.971765e+003,5.619675e+000
1.972729e+003,5.191299e+000
1.973693e+003,4.344727e+000
1.974657e+003,3.751877e+000
1.975622e+003,4.964340e+000
1.976586e+003,6.986359e+000
1.977550e+003,6.703033e+000
1.978514e+003,4.656830e+000
1.979479e+003,4.405060e+000
1.980443e+003,6.325653e+000
1.981407e+003,7.476044e+000
1.982371e+003,6.749130e+000
1.983335e+003,5.977890e+000
1.984300e+003,6.551285e+000
1.985264e+003,7.475784e+000
1.986228e+003,7.161560e+000
1.987192e+003,6.023148e+000
1.988157e+003,6.327362e+000
1.989121e+003,8.602509e+000
1.990085e+003,9.726379e+000
1.991049e+003,9.519669e+000
1.992014e+003,8.592239e+000
1.992978e+003,5.754593e+000
1.993942e+003,3.858475e+000
1.994906e+003,4.787720e+000
1.995871e+003,6.057373e+000
1.996835e+003,5.524384e+000
1.997799e+003,4.415161e+000
1.998763e+003,4.750687e+000
1.999728e+003,6.257019e+000
