5.003444e+002,2.342279e+001
5.013087e+002,2.429034e+001
5.022729e+002,2.464563e+001
5.032371e+002,2.482025e+001
5.042014e+002,2.493036e+001
5.051656e+002,2.502460e+001
5.061298e+002,2.478448e+001
5.070941e+002,2.373285e+001
5.080583e+002,2.132806e+001
5.090225e+002,2.028265e+001
5.099868e+002,2.124707e+001
5.109510e+002,2.238177e+001
5.119152e+002,2.292505e+001
5.128795e+002,2.285919e+001
5.138437e+002,2.228040e+001
5.148079e+002,2.068890e+001
5.157722e+002,1.925165e+001
5.167364e+002,1.827008e+001
5.177006e+002,1.773883e+001
5.186649e+002,1.750562e+001
5.196291e+002,1.821228e+001
5.205933e+002,1.924084e+001
5.215576e+002,1.914899e+001
5.225218e+002,1.768060e+001
5.234860e+002,1.551691e+001
5.244503e+002,1.422296e+001
5.254145e+002,1.455188e+001
5.263787e+002,1.494940e+001
5.273430e+002,1.542419e+001
5.283072e+002,1.596637e+001
5.292714e+002,1.652051e+001
5.302357e+002,1.694562e+001
5.311999e+002,1.648438e+001
5.321641e+002,1.514380e+001
5.331284e+002,1.376788e+001
5.340926e+002,1.282983e+001
5.350568e+002,1.234436e+001
5.360211e+002,1.178772e+001
5.369853e+002,1.071289e+001
5.379495e+002,9.967224e+000
5.389138e+002,1.067877e+001
5.398780e+002,1.296167e+001
5.408422e+002,1.553009e+001
5.418065e+002,1.448029e+001
5.427707e+002,1.035315e+001
5.437349e+002,6.494751e+000
5.446992e+002,3.405762e+000
5.456634e+002,1.286926e+000
5.466276e+002,9.969482e-001
5.475919e+002,5.279907e+000
5.485561e+002,8.372925e+000
5.495203e+002,9.163757e+000
5.504846e+002,8.680237e+000
5.514488e+002,8.736572e+000
5.524130e+002,1.081110e+001
5.533773e+002,1.187634e+001
5.543415e+002,9.893311e+000
5.553057e+002,6.650452e+000
5.562700e+002,3.577271e+000
5.572342e+002,1.525391e+000
5.581984e+002,6.033325e-001
5.591627e+002,2.251099e+000
5.601269e+002,5.497253e+000
5.610911e+002,7.761536e+000
5.620554e+002,7.550842e+000
5.630196e+002,5.073669e+000
5.639838e+002,3.363281e+000
5.649481e+002,2.213257e+000
5.659123e+002,2.120544e+000
5.668765e+002,4.490234e+000
5.678408e+002,8.503235e+000
5.688050e+002,1.130658e+001
5.697692e+002,1.134296e+001
5.707335e+002,1.000037e+001
5.716977e+002,7.271667e+000
5.726619e+002,3.960144e+000
5.736262e+002,8.428955e-001
5.745904e+002,-1.617981e+000
5.755546e+002,-3.023376e+000
5.765189e+002,-3.145813e+000
5.774831e+002,-2.547241e+000
5.784473e+002,-1.603210e+000
5.794116e+002,-4.410400e-001
5.803758e+002,1.094849e+000
5.813400e+002,2.076599e+000
5.823043e+002,2.016724e+000
5.832685e+002,1.617126e+000
5.842327e+002,1.400635e+000
5.851970e+002,1.519043e+000
5.861612e+002,1.561157e+000
5.871254e+002,3.036499e-001
5.880897e+002,-1.403809e-001
5.890539e+002,1.469177e+000
5.900181e+002,3.819458e+000
5.909824e+002,4.570068e+000
5.919466e+002,1.603699e+000
5.929108e+002,-1.521912e+000
5.938751e+002,-6.350098e-001
5.948393e+002,2.475769e+000
5.958035e+002,5.214844e+000
5.967678e+002,5.731750e+000
5.977320e+002,4.451904e+000
5.986962e+002,3.360413e+000
5.996605e+002,1.984253e+000
6.006247e+002,1.016907e+000
6.015889e+002,9.446411e-001
6.025532e+002,1.748474e+000
6.035174e+002,2.524414e+000
6.044816e+002,3.398926e+000
6.054459e+002,4.221069e+000
6.064101e+002,4.863037e+000
6.073743e+002,5.418518e+000
6.083386e+002,6.176941e+000
6.093028e+002,7.609131e+000
6.102670e+002,8.773560e+000
6.112313e+002,8.770264e+000
6.121955e+002,8.100037e+000
6.131597e+002,7.424927e+000
6.141240e+002,7.183167e+000
6.150882e+002,7.156860e+000
6.160524e+002,6.586975e+000
6.170167e+002,5.733582e+000
6.179809e+002,4.788879e+000
6.189451e+002,3.547729e+000
6.199094e+002,1.954285e+000
6.208736e+002,7.910767e-001
6.218378e+002,8.969116e-001
6.228021e+002,1.211243e+000
6.237663e+002,2.158203e+000
6.247305e+002,3.240295e+000
6.256948e+002,3.443848e+000
6.266590e+002,1.725098e+000
6.276232e+002,-2.627563e-001
6.285875e+002,-1.418091e+000
6.295517e+002,-1.823059e+000
6.305159e+002,-1.553772e+000
6.314802e+002,-7.767944e-001
6.324444e+002,1.516113e-001
6.334086e+002,7.927856e-001
6.343729e+002,1.420410e+000
6.353371e+002,2.060242e+000
6.363013e+002,2.751099e+000
6.372656e+002,3.135437e+000
6.382298e+002,2.150696e+000
6.391940e+002,-2.807861e+000
6.401583e+002,-5.862122e+000
6.411225e+002,-5.685974e+000
6.420867e+002,-3.590454e+000
6.430510e+002,-1.279419e+000
6.440152e+002,5.515137e-001
6.449794e+002,2.408936e+000
6.459437e+002,6.167114e+000
6.469079e+002,9.085815e+000
6.478721e+002,7.889832e+000
6.488364e+002,2.167053e+000
6.498006e+002,-4.036438e+000
6.507648e+002,-2.261353e+000
6.517291e+002,4.190857e+000
6.526933e+002,7.357178e+000
6.536575e+002,5.621155e+000
6.546218e+002,1.131653e+000
6.555860e+002,-2.020813e+000
6.565502e+002,-3.297058e+000
6.575145e+002,-4.194153e+000
6.584787e+002,-5.540100e+000
6.594429e+002,-5.902527e+000
6.604072e+002,-3.199951e+000
6.613714e+002,3.362915e+000
6.623356e+002,7.930054e+000
6.632999e+002,5.903259e+000
6.642641e+002,2.369995e+000
6.652283e+002,-4.470215e-001
6.661926e+002,-1.863403e+000
6.671568e+002,-2.223022e+000
6.681210e+002,-1.870850e+000
6.690853e+002,-1.122681e+000
6.700495e+002,-3.649902e-001
6.710137e+002,3.740234e-001
6.719780e+002,7.924194e-001
6.729422e+002,4.803467e-001
6.739064e+002,-8.602295e-001
6.748707e+002,-1.877258e+000
6.758349e+002,-2.977478e+000
6.767991e+002,-3.563538e+000
6.777634e+002,-2.894531e+000
6.787276e+002,-9.288940e-001
6.796918e+002,1.247681e+000
6.806561e+002,3.450195e+000
6.816203e+002,4.868408e+000
6.825845e+002,5.236145e+000
6.835488e+002,4.641602e+000
6.845130e+002,2.985474e+000
6.854772e+002,6.970215e-002
6.864415e+002,-2.759827e+000
6.874057e+002,-2.643616e+000
6.883699e+002,-8.370361e-001
6.893342e+002,2.182617e-001
6.902984e+002,-8.410645e-001
6.912626e+002,-3.434875e+000
6.922269e+002,-4.199341e+000
6.931911e+002,-1.210754e+000
6.941553e+002,1.983826e+000
6.951196e+002,5.795105e+000
6.960838e+002,8.917175e+000
6.970480e+002,9.146057e+000
6.980123e+002,4.883728e+000
6.989765e+002,1.021973e+000
6.999407e+002,-6.693726e-001
7.009050e+002,-1.196167e+000
7.018692e+002,-7.927856e-001
7.028334e+002,1.343994e-001
7.037977e+002,4.762573e-001
7.047619e+002,-2.192566e+000
7.057261e+002,-6.106628e+000
7.066904e+002,-8.213745e+000
7.076546e+002,-8.031982e+000
7.086188e+002,-6.120117e+000
7.095831e+002,-3.210144e+000
7.105473e+002,1.225586e+000
7.115115e+002,4.314148e+000
7.124758e+002,5.565735e+000
7.134400e+002,6.082703e+000
7.144042e+002,6.998047e+000
7.153685e+002,8.402344e+000
7.163327e+002,8.364807e+000
7.172969e+002,3.274719e+000
7.182612e+002,-8.484497e-001
7.192254e+002,-6.744995e-001
7.201896e+002,2.268921e+000
7.211539e+002,4.579285e+000
7.221181e+002,3.403931e+000
7.230823e+002,7.061768e-002
7.240466e+002,-1.925903e+000
7.250108e+002,-2.526489e+000
7.259750e+002,-2.010315e+000
7.269393e+002,-6.484985e-001
7.279035e+002,1.050293e+000
7.288677e+002,1.576599e+000
7.298320e+002,2.679443e-001
7.307962e+002,-9.753418e-002
7.317604e+002,1.165039e+000
7.327247e+002,3.353027e+000
7.336889e+002,5.205872e+000
7.346531e+002,5.800232e+000
7.356174e+002,6.095093e+000
7.365816e+002,8.399353e+000
7.375458e+002,1.057288e+001
7.385101e+002,1.010492e+001
7.394743e+002,6.883362e+000
7.404385e+002,3.650940e+000
7.414028e+002,4.969788e+000
7.423670e+002,9.044922e+000
7.433312e+002,1.012207e+001
7.442955e+002,8.125488e+000
7.452597e+002,5.410095e+000
7.462239e+002,4.296265e+000
7.471882e+002,4.909546e+000
7.481524e+002,6.096680e+000
7.491166e+002,7.171143e+000
7.500809e+002,8.529968e+000
7.510451e+002,1.111670e+001
7.520093e+002,1.427863e+001
7.529736e+002,1.581335e+001
7.539378e+002,1.422650e+001
7.549020e+002,1.222571e+001
7.558663e+002,1.124921e+001
7.568306e+002,1.102374e+001
7.577948e+002,1.094934e+001
7.587590e+002,1.058752e+001
7.597233e+002,1.011334e+001
7.606875e+002,1.129657e+001
7.616517e+002,1.407794e+001
7.626160e+002,1.519739e+001
7.635802e+002,1.313519e+001
7.645444e+002,9.816162e+000
7.655087e+002,9.355408e+000
7.664729e+002,1.342352e+001
7.674371e+002,1.660699e+001
7.684014e+002,1.985565e+001
7.693656e+002,2.116650e+001
7.703298e+002,1.782813e+001
7.712941e+002,1.030359e+001
7.722583e+002,4.255859e+000
7.732225e+002,4.666321e+000
7.741868e+002,7.618225e+000
7.751510e+002,1.115271e+001
7.761152e+002,1.452667e+001
7.770795e+002,1.677142e+001
7.780437e+002,1.696954e+001
7.790079e+002,1.528546e+001
7.799722e+002,1.381042e+001
7.809364e+002,1.262085e+001
7.819006e+002,1.111139e+001
7.828649e+002,8.893616e+000
7.838291e+002,6.501953e+000
7.847933e+002,5.274902e+000
7.857576e+002,5.737061e+000
7.867218e+002,5.599060e+000
7.876860e+002,3.898804e+000
7.886503e+002,2.506165e+000
7.896145e+002,3.296936e+000
7.905787e+002,6.612488e+000
7.915430e+002,1.037640e+001
7.925072e+002,1.196655e+001
7.934714e+002,1.242780e+001
7.944357e+002,1.352155e+001
7.953999e+002,1.537274e+001
7.963641e+002,1.694086e+001
7.973284e+002,1.692554e+001
7.982926e+002,1.526605e+001
7.992568e+002,1.285480e+001
8.002211e+002,7.813293e+000
8.011853e+002,3.818054e+000
8.021495e+002,3.152466e+000
8.031138e+002,5.544250e+000
8.040780e+002,8.593689e+000
8.050422e+002,1.185529e+001
8.060065e+002,1.483966e+001
8.069707e+002,1.778473e+001
8.079349e+002,1.983441e+001
8.088992e+002,1.997461e+001
8.098634e+002,1.814362e+001
8.108276e+002,1.580603e+001
8.117919e+002,1.470477e+001
8.127561e+002,1.393195e+001
8.137203e+002,1.268164e+001
8.146846e+002,1.121600e+001
8.156488e+002,1.015918e+001
8.166130e+002,1.014044e+001
8.175773e+002,1.138196e+001
8.185415e+002,1.171503e+001
8.195057e+002,9.369934e+000
8.204700e+002,7.821899e+000
8.214342e+002,8.296509e+000
8.223984e+002,1.048206e+001
8.233627e+002,1.387109e+001
8.243269e+002,2.000397e+001
8.252911e+002,2.395428e+001
8.262554e+002,2.137665e+001
8.272196e+002,1.660608e+001
8.281838e+002,1.408759e+001
8.291481e+002,1.537622e+001
8.301123e+002,1.859790e+001
8.310765e+002,2.083240e+001
8.320408e+002,2.180536e+001
8.330050e+002,2.103278e+001
8.339692e+002,1.809607e+001
8.349335e+002,1.488153e+001
8.358977e+002,1.358795e+001
8.368619e+002,1.472504e+001
8.378262e+002,1.536707e+001
8.387904e+002,1.398529e+001
8.397546e+002,1.323810e+001
8.407189e+002,1.442004e+001
8.416831e+002,1.659564e+001
8.426473e+002,1.790424e+001
8.436116e+002,1.731464e+001
8.445758e+002,1.685077e+001
8.455400e+002,1.850964e+001
8.465043e+002,2.087073e+001
8.474685e+002,2.343665e+001
8.484327e+002,2.597131e+001
8.493970e+002,2.737909e+001
8.503612e+002,2.518793e+001
8.513254e+002,1.819916e+001
8.522897e+002,1.594598e+001
8.532539e+002,2.135376e+001
8.542181e+002,2.664142e+001
8.551824e+002,2.698846e+001
8.561466e+002,2.337299e+001
8.571108e+002,2.138135e+001
8.580751e+002,2.221259e+001
8.590393e+002,2.317743e+001
8.600035e+002,2.412262e+001
8.609678e+002,2.494531e+001
8.619320e+002,2.536261e+001
8.628962e+002,2.527136e+001
8.638605e+002,2.516180e+001
8.648247e+002,2.605560e+001
8.657889e+002,2.739111e+001
8.667532e+002,2.803467e+001
8.677174e+002,2.783813e+001
8.686816e+002,2.744287e+001
8.696459e+002,2.769006e+001
8.706101e+002,2.887592e+001
8.715743e+002,2.978241e+001
8.725386e+002,3.026044e+001
8.735028e+002,3.075427e+001
8.744670e+002,3.127820e+001
8.754313e+002,3.144696e+001
8.763955e+002,3.042004e+001
8.773597e+002,2.738440e+001
8.783240e+002,2.575854e+001
8.792882e+002,2.915112e+001
8.802524e+002,3.385248e+001
8.812167e+002,3.681805e+001
8.821809e+002,3.742029e+001
8.831451e+002,3.695520e+001
8.841094e+002,3.716968e+001
8.850736e+002,3.819196e+001
8.860378e+002,3.804987e+001
8.870021e+002,3.627930e+001
8.879663e+002,3.449152e+001
8.889305e+002,3.312256e+001
8.898948e+002,3.218951e+001
8.908590e+002,3.234216e+001
8.918232e+002,3.416589e+001
8.927875e+002,3.694177e+001
8.937517e+002,4.133002e+001
8.947159e+002,4.590540e+001
8.956802e+002,4.928448e+001
8.966444e+002,5.103705e+001
8.976086e+002,5.197327e+001
8.985729e+002,5.355054e+001
8.995371e+002,5.473145e+001
9.005013e+002,5.305365e+001
9.014656e+002,4.915143e+001
9.024298e+002,4.532483e+001
9.033940e+002,4.299603e+001
9.043583e+002,4.199188e+001
9.053225e+002,4.288361e+001
9.062867e+002,4.747260e+001
9.072510e+002,5.127374e+001
9.082152e+002,5.581537e+001
9.091794e+002,5.914008e+001
9.101437e+002,5.835834e+001
9.111079e+002,5.292511e+001
9.120721e+002,4.787054e+001
9.130364e+002,4.573291e+001
9.140006e+002,4.473566e+001
9.149648e+002,4.469153e+001
9.159291e+002,4.536414e+001
9.168933e+002,4.621527e+001
9.178575e+002,4.672369e+001
9.188218e+002,4.690601e+001
9.197860e+002,4.736908e+001
9.207502e+002,4.798376e+001
9.217145e+002,4.834058e+001
9.226787e+002,4.887268e+001
9.236429e+002,4.939203e+001
9.246072e+002,4.889655e+001
9.255714e+002,4.659229e+001
9.265356e+002,4.625848e+001
9.274999e+002,5.179333e+001
9.284641e+002,5.552643e+001
9.294283e+002,5.372192e+001
9.303926e+002,4.868884e+001
9.313568e+002,4.474976e+001
9.323210e+002,4.413165e+001
9.332853e+002,4.482153e+001
9.342495e+002,4.374725e+001
9.352137e+002,4.167877e+001
9.361780e+002,4.002289e+001
9.371422e+002,3.931335e+001
9.381064e+002,3.900397e+001
9.390707e+002,3.788550e+001
9.400349e+002,3.517902e+001
9.409991e+002,3.476154e+001
9.419634e+002,3.880304e+001
9.429276e+002,4.186823e+001
9.438918e+002,4.252496e+001
9.448561e+002,4.145502e+001
9.458203e+002,3.916962e+001
9.467845e+002,3.521265e+001
9.477488e+002,3.357550e+001
9.487130e+002,4.023395e+001
9.496772e+002,4.816913e+001
9.506415e+002,5.167798e+001
9.516057e+002,5.066229e+001
9.525699e+002,4.831586e+001
9.535342e+002,4.771832e+001
9.544984e+002,4.850946e+001
9.554626e+002,4.863971e+001
9.564269e+002,4.832404e+001
9.573911e+002,4.866125e+001
9.583553e+002,5.065027e+001
9.593196e+002,5.294849e+001
9.602838e+002,5.307465e+001
9.612480e+002,5.017133e+001
9.622123e+002,4.785352e+001
9.631765e+002,4.835858e+001
9.641407e+002,4.870355e+001
9.651050e+002,4.662622e+001
9.660692e+002,4.314624e+001
9.670334e+002,4.105872e+001
9.679977e+002,4.231793e+001
9.689619e+002,4.530090e+001
9.699261e+002,4.569397e+001
9.708904e+002,4.414642e+001
9.718546e+002,4.306201e+001
9.728188e+002,4.280322e+001
9.737831e+002,4.318359e+001
9.747473e+002,4.404022e+001
9.757115e+002,4.541992e+001
9.766758e+002,4.768549e+001
9.776400e+002,5.290186e+001
9.786042e+002,5.701074e+001
9.795685e+002,5.946027e+001
9.805327e+002,5.960217e+001
9.814969e+002,5.581616e+001
9.824612e+002,4.772119e+001
9.834254e+002,4.061987e+001
9.843896e+002,4.046655e+001
9.853539e+002,4.324286e+001
9.863181e+002,4.552625e+001
9.872823e+002,4.658105e+001
9.882466e+002,4.592871e+001
9.892108e+002,4.332849e+001
9.901750e+002,3.989508e+001
9.911393e+002,4.074518e+001
9.921035e+002,4.872687e+001
9.930677e+002,5.474011e+001
9.940320e+002,5.784784e+001
9.949962e+002,5.997736e+001
9.959604e+002,6.271191e+001
9.969247e+002,6.623950e+001
9.978889e+002,6.988086e+001
9.988531e+002,7.262372e+001
9.998174e+002,7.527570e+001
1.000782e+003,7.914136e+001
1.001746e+003,8.350946e+001
1.002710e+003,8.749945e+001
1.003674e+003,9.051135e+001
1.004639e+003,9.192798e+001
1.005603e+003,9.036334e+001
1.006567e+003,8.534528e+001
1.007531e+003,8.343347e+001
1.008495e+003,8.584589e+001
1.009460e+003,8.882306e+001
1.010424e+003,9.033929e+001
1.011388e+003,9.076050e+001
1.012352e+003,9.141888e+001
1.013317e+003,9.327655e+001
1.014281e+003,9.309509e+001
1.015245e+003,8.853668e+001
1.016209e+003,8.294440e+001
1.017174e+003,7.881628e+001
1.018138e+003,7.632269e+001
1.019102e+003,7.412012e+001
1.020066e+003,7.126428e+001
1.021031e+003,6.793542e+001
1.021995e+003,6.370227e+001
1.022959e+003,5.846613e+001
1.023923e+003,5.350293e+001
1.024887e+003,4.920892e+001
1.025852e+003,4.525751e+001
1.026816e+003,4.089014e+001
1.027780e+003,3.577185e+001
1.028744e+003,3.312665e+001
1.029709e+003,3.587164e+001
1.030673e+003,3.780695e+001
1.031637e+003,3.626910e+001
1.032601e+003,3.296088e+001
1.033566e+003,3.060413e+001
1.034530e+003,3.022888e+001
1.035494e+003,3.037360e+001
1.036458e+003,2.900336e+001
1.037422e+003,2.714014e+001
1.038387e+003,2.700488e+001
1.039351e+003,2.834882e+001
1.040315e+003,2.884167e+001
1.041279e+003,2.645441e+001
1.042244e+003,2.254370e+001
1.043208e+003,2.360510e+001
1.044172e+003,3.537946e+001
1.045136e+003,4.142444e+001
1.046101e+003,3.766693e+001
1.047065e+003,3.253375e+001
1.048029e+003,3.119196e+001
1.048993e+003,3.317865e+001
1.049958e+003,3.525647e+001
1.050922e+003,3.634326e+001
1.051886e+003,3.657178e+001
1.052850e+003,3.563123e+001
1.053814e+003,3.412695e+001
1.054779e+003,3.254211e+001
1.055743e+003,3.107477e+001
1.056707e+003,3.011761e+001
1.057671e+003,3.014240e+001
1.058636e+003,3.109052e+001
1.059600e+003,3.306543e+001
1.060564e+003,3.852899e+001
1.061528e+003,4.224847e+001
1.062493e+003,4.235675e+001
1.063457e+003,4.052490e+001
1.064421e+003,3.889081e+001
1.065385e+003,3.780634e+001
1.066349e+003,3.554999e+001
1.067314e+003,2.937830e+001
1.068278e+003,2.411072e+001
1.069242e+003,2.354620e+001
1.070206e+003,2.608051e+001
1.071171e+003,2.936401e+001
1.072135e+003,3.204840e+001
1.073099e+003,3.381128e+001
1.074063e+003,3.435052e+001
1.075028e+003,3.371704e+001
1.075992e+003,3.209735e+001
1.076956e+003,2.792810e+001
1.077920e+003,2.494684e+001
1.078885e+003,2.606848e+001
1.079849e+003,2.915015e+001
1.080813e+003,2.941284e+001
1.081777e+003,2.545538e+001
1.082741e+003,2.326434e+001
1.083706e+003,2.847003e+001
1.084670e+003,3.337811e+001
1.085634e+003,3.316766e+001
1.086598e+003,2.941162e+001
1.087563e+003,2.579230e+001
1.088527e+003,2.455499e+001
1.089491e+003,2.501117e+001
1.090455e+003,2.537030e+001
1.091420e+003,2.536127e+001
1.092384e+003,2.608423e+001
1.093348e+003,2.793353e+001
1.094312e+003,2.932660e+001
1.095276e+003,2.921875e+001
1.096241e+003,2.833209e+001
1.097205e+003,2.831317e+001
1.098169e+003,2.928339e+001
1.099133e+003,3.060181e+001
1.100098e+003,3.368872e+001
1.101062e+003,3.581940e+001
1.102026e+003,3.413672e+001
1.102990e+003,3.015259e+001
1.103955e+003,2.738733e+001
1.104919e+003,2.791821e+001
1.105883e+003,3.059485e+001
1.106847e+003,3.354364e+001
1.107812e+003,3.663336e+001
1.108776e+003,3.784711e+001
1.109740e+003,3.646283e+001
1.110704e+003,3.454193e+001
1.111668e+003,3.335175e+001
1.112633e+003,3.316113e+001
1.113597e+003,3.453015e+001
1.114561e+003,3.814307e+001
1.115525e+003,4.120154e+001
1.116490e+003,4.324188e+001
1.117454e+003,4.410986e+001
1.118418e+003,4.286713e+001
1.119382e+003,4.077722e+001
1.120347e+003,4.038159e+001
1.121311e+003,4.297778e+001
1.122275e+003,4.659845e+001
1.123239e+003,4.798401e+001
1.124203e+003,4.772644e+001
1.125168e+003,4.847333e+001
1.126132e+003,5.070856e+001
1.127096e+003,5.345245e+001
1.128060e+003,5.588403e+001
1.129025e+003,5.796002e+001
1.129989e+003,6.002362e+001
1.130953e+003,6.212421e+001
1.131917e+003,6.377948e+001
1.132882e+003,6.393048e+001
1.133846e+003,6.480701e+001
1.134810e+003,6.876648e+001
1.135774e+003,7.454846e+001
1.136739e+003,7.849731e+001
1.137703e+003,7.860840e+001
1.138667e+003,7.816827e+001
1.139631e+003,8.368054e+001
1.140595e+003,9.431934e+001
1.141560e+003,1.021105e+002
1.142524e+003,1.058320e+002
1.143488e+003,1.107994e+002
1.144452e+003,1.203687e+002
1.145417e+003,1.339285e+002
1.146381e+003,1.496574e+002
1.147345e+003,1.685853e+002
1.148309e+003,1.864479e+002
1.149274e+003,2.006490e+002
1.150238e+003,2.155422e+002
1.151202e+003,2.351474e+002
1.152166e+003,2.570731e+002
1.153130e+003,2.769910e+002
1.154095e+003,2.924265e+002
1.155059e+003,3.030775e+002
1.156023e+003,3.087392e+002
1.156987e+003,3.096631e+002
1.157952e+003,3.089506e+002
1.158916e+003,3.075027e+002
1.159880e+003,3.034746e+002
1.160844e+003,2.957838e+002
1.161809e+003,2.836693e+002
1.162773e+003,2.653358e+002
1.163737e+003,2.390150e+002
1.164701e+003,2.146843e+002
1.165666e+003,1.947397e+002
1.166630e+003,1.780272e+002
1.167594e+003,1.642430e+002
1.168558e+003,1.533602e+002
1.169522e+003,1.456029e+002
1.170487e+003,1.409507e+002
1.171451e+003,1.394547e+002
1.172415e+003,1.416217e+002
1.173379e+003,1.462372e+002
1.174344e+003,1.472834e+002
1.175308e+003,1.449066e+002
1.176272e+003,1.417756e+002
1.177236e+003,1.391370e+002
1.178201e+003,1.360881e+002
1.179165e+003,1.305284e+002
1.180129e+003,1.221447e+002
1.181093e+003,1.156329e+002
1.182057e+003,1.137585e+002
1.183022e+003,1.115483e+002
1.183986e+003,1.056072e+002
1.184950e+003,9.958582e+001
1.185914e+003,9.732050e+001
1.186879e+003,9.893982e+001
1.187843e+003,1.018688e+002
1.188807e+003,1.039291e+002
1.189771e+003,1.054113e+002
1.190736e+003,1.078542e+002
1.191700e+003,1.114775e+002
1.192664e+003,1.130262e+002
1.193628e+003,1.116309e+002
1.194593e+003,1.093022e+002
1.195557e+003,1.075351e+002
1.196521e+003,1.058826e+002
1.197485e+003,1.026246e+002
1.198449e+003,9.684497e+001
1.199414e+003,9.178937e+001
1.200378e+003,8.979285e+001
1.201342e+003,8.826282e+001
1.202306e+003,8.521948e+001
1.203271e+003,8.120819e+001
1.204235e+003,7.798444e+001
1.205199e+003,7.639563e+001
1.206163e+003,7.543372e+001
1.207128e+003,7.337866e+001
1.208092e+003,7.022668e+001
1.209056e+003,6.592432e+001
1.210020e+003,5.950299e+001
1.210984e+003,5.409296e+001
1.211949e+003,5.141687e+001
1.212913e+003,4.955811e+001
1.213877e+003,4.583276e+001
1.214841e+003,4.022626e+001
1.215806e+003,3.571515e+001
1.216770e+003,3.398383e+001
1.217734e+003,3.263495e+001
1.218698e+003,2.938568e+001
1.219663e+003,2.557611e+001
1.220627e+003,2.280811e+001
1.221591e+003,2.143658e+001
1.222555e+003,2.115973e+001
1.223520e+003,2.181958e+001
1.224484e+003,2.307458e+001
1.225448e+003,2.268799e+001
1.226412e+003,1.949915e+001
1.227376e+003,1.703107e+001
1.228341e+003,1.533173e+001
1.229305e+003,1.405890e+001
1.230269e+003,1.322833e+001
1.231233e+003,1.261060e+001
1.232198e+003,1.160291e+001
1.233162e+003,1.010205e+001
1.234126e+003,9.867126e+000
1.235090e+003,1.322217e+001
1.236055e+003,1.705518e+001
1.237019e+003,1.766779e+001
1.237983e+003,1.597095e+001
1.238947e+003,1.505566e+001
1.239911e+003,1.633490e+001
1.240876e+003,1.792963e+001
1.241840e+003,1.666760e+001
1.242804e+003,1.232257e+001
1.243768e+003,9.654846e+000
1.244733e+003,8.993286e+000
1.245697e+003,9.885925e+000
1.246661e+003,1.327344e+001
1.247625e+003,1.680127e+001
1.248590e+003,1.894324e+001
1.249554e+003,2.001880e+001
1.250518e+003,2.110303e+001
1.251482e+003,2.254358e+001
1.252447e+003,2.371161e+001
1.253411e+003,2.366040e+001
1.254375e+003,2.335559e+001
1.255339e+003,2.483148e+001
1.256303e+003,2.821252e+001
1.257268e+003,3.155438e+001
1.258232e+003,3.351373e+001
1.259196e+003,3.441412e+001
1.260160e+003,3.523468e+001
1.261125e+003,3.613336e+001
1.262089e+003,3.762714e+001
1.263053e+003,4.014758e+001
1.264017e+003,4.221124e+001
1.264982e+003,4.352637e+001
1.265946e+003,4.442584e+001
1.266910e+003,4.563647e+001
1.267874e+003,4.680487e+001
1.268839e+003,4.640924e+001
1.269803e+003,4.342865e+001
1.270767e+003,3.935638e+001
1.271731e+003,3.714325e+001
1.272695e+003,3.690167e+001
1.273660e+003,3.652588e+001
1.274624e+003,3.592230e+001
1.275588e+003,3.404303e+001
1.276552e+003,2.927454e+001
1.277517e+003,2.380035e+001
1.278481e+003,2.183398e+001
1.279445e+003,2.378448e+001
1.280409e+003,2.517749e+001
1.281374e+003,2.467590e+001
1.282338e+003,2.322131e+001
1.283302e+003,2.016113e+001
1.284266e+003,1.713629e+001
1.285230e+003,1.683905e+001
1.286195e+003,1.881848e+001
1.287159e+003,1.928668e+001
1.288123e+003,1.522443e+001
1.289087e+003,9.062805e+000
1.290052e+003,7.880493e+000
1.291016e+003,1.365997e+001
1.291980e+003,1.657263e+001
1.292944e+003,1.502411e+001
1.293909e+003,1.249207e+001
1.294873e+003,9.550293e+000
1.295837e+003,7.238281e+000
1.296801e+003,7.398865e+000
1.297766e+003,1.001599e+001
1.298730e+003,1.188782e+001
1.299694e+003,1.072284e+001
1.300658e+003,8.915344e+000
1.301622e+003,9.675781e+000
1.302587e+003,1.165155e+001
1.303551e+003,1.247540e+001
1.304515e+003,1.189844e+001
1.305479e+003,1.130878e+001
1.306444e+003,1.159833e+001
1.307408e+003,1.259821e+001
1.308372e+003,1.431165e+001
1.309336e+003,1.724384e+001
1.310301e+003,1.922900e+001
1.311265e+003,2.062042e+001
1.312229e+003,2.083093e+001
1.313193e+003,1.901495e+001
1.314157e+003,1.622333e+001
1.315122e+003,1.273615e+001
1.316086e+003,9.211853e+000
1.317050e+003,7.508545e+000
1.318014e+003,9.075745e+000
1.318979e+003,1.234027e+001
1.319943e+003,1.438416e+001
1.320907e+003,1.547601e+001
1.321871e+003,1.722528e+001
1.322836e+003,1.974335e+001
1.323800e+003,2.142432e+001
1.324764e+003,2.107593e+001
1.325728e+003,1.964929e+001
1.326693e+003,1.852094e+001
1.327657e+003,1.758221e+001
1.328621e+003,1.685315e+001
1.329585e+003,1.735327e+001
1.330549e+003,1.791620e+001
1.331514e+003,1.705139e+001
1.332478e+003,1.548584e+001
1.333442e+003,1.400824e+001
1.334406e+003,1.289233e+001
1.335371e+003,1.219257e+001
1.336335e+003,1.190845e+001
1.337299e+003,1.173431e+001
1.338263e+003,1.090942e+001
1.339228e+003,9.221863e+000
1.340192e+003,9.032837e+000
1.341156e+003,1.133575e+001
1.342120e+003,1.353351e+001
1.343084e+003,1.536169e+001
1.344049e+003,1.637817e+001
1.345013e+003,1.626379e+001
1.345977e+003,1.540125e+001
1.346941e+003,1.442914e+001
1.347906e+003,1.352661e+001
1.348870e+003,1.282007e+001
1.349834e+003,1.225629e+001
1.350798e+003,1.189343e+001
1.351763e+003,1.223206e+001
1.352727e+003,1.319000e+001
1.353691e+003,1.387506e+001
1.354655e+003,1.401056e+001
1.355620e+003,1.375055e+001
1.356584e+003,1.309265e+001
1.357548e+003,1.222308e+001
1.358512e+003,1.212695e+001
1.359476e+003,1.295679e+001
1.360441e+003,1.328064e+001
1.361405e+003,1.285205e+001
1.362369e+003,1.203046e+001
1.363333e+003,1.037622e+001
1.364298e+003,8.749634e+000
1.365262e+003,8.568787e+000
1.366226e+003,9.916077e+000
1.367190e+003,1.133905e+001
1.368155e+003,1.154016e+001
1.369119e+003,1.088690e+001
1.370083e+003,1.060486e+001
1.371047e+003,1.103033e+001
1.372011e+003,1.094470e+001
1.372976e+003,8.801880e+000
1.373940e+003,7.599609e+000
1.374904e+003,9.298218e+000
1.375868e+003,1.221613e+001
1.376833e+003,1.434192e+001
1.377797e+003,1.538049e+001
1.378761e+003,1.562732e+001
1.379725e+003,1.508466e+001
1.380690e+003,1.442786e+001
1.381654e+003,1.428418e+001
1.382618e+003,1.462341e+001
1.383582e+003,1.535815e+001
1.384547e+003,1.648975e+001
1.385511e+003,1.824921e+001
1.386475e+003,2.089099e+001
1.387439e+003,2.325653e+001
1.388403e+003,2.324780e+001
1.389368e+003,2.084607e+001
1.390332e+003,1.960364e+001
1.391296e+003,2.054279e+001
1.392260e+003,2.114880e+001
1.393225e+003,2.050128e+001
1.394189e+003,1.965289e+001
1.395153e+003,1.907550e+001
1.396117e+003,1.876776e+001
1.397082e+003,1.875061e+001
1.398046e+003,1.900726e+001
1.399010e+003,1.927783e+001
1.399974e+003,1.915497e+001
1.400938e+003,1.849542e+001
1.401903e+003,1.772375e+001
1.402867e+003,1.749097e+001
1.403831e+003,1.775415e+001
1.404795e+003,1.825031e+001
1.405760e+003,1.886432e+001
1.406724e+003,1.903455e+001
1.407688e+003,1.874127e+001
1.408652e+003,1.872791e+001
1.409617e+003,1.911517e+001
1.410581e+003,1.874268e+001
1.411545e+003,1.696991e+001
1.412509e+003,1.522040e+001
1.413474e+003,1.431146e+001
1.414438e+003,1.427185e+001
1.415402e+003,1.649603e+001
1.416366e+003,2.061395e+001
1.417330e+003,2.301172e+001
1.418295e+003,2.208105e+001
1.419259e+003,1.978381e+001
1.420223e+003,1.777618e+001
1.421187e+003,1.599908e+001
1.422152e+003,1.517792e+001
1.423116e+003,1.566431e+001
1.424080e+003,1.704346e+001
1.425044e+003,1.997620e+001
1.426009e+003,2.239929e+001
1.426973e+003,2.376263e+001
1.427937e+003,2.391656e+001
1.428901e+003,2.209302e+001
1.429865e+003,1.903979e+001
1.430830e+003,1.702209e+001
1.431794e+003,1.739502e+001
1.432758e+003,1.912372e+001
1.433722e+003,2.054053e+001
1.434687e+003,2.202081e+001
1.435651e+003,2.379047e+001
1.436615e+003,2.532440e+001
1.437579e+003,2.603351e+001
1.438544e+003,2.490967e+001
1.439508e+003,2.416577e+001
1.440472e+003,2.632678e+001
1.441436e+003,2.993524e+001
1.442401e+003,3.193628e+001
1.443365e+003,3.150775e+001
1.444329e+003,2.966437e+001
1.445293e+003,2.687952e+001
1.446257e+003,2.422937e+001
1.447222e+003,2.391949e+001
1.448186e+003,2.548273e+001
1.449150e+003,2.682806e+001
1.450114e+003,2.790015e+001
1.451079e+003,2.789398e+001
1.452043e+003,2.587170e+001
1.453007e+003,2.328534e+001
1.453971e+003,2.165656e+001
1.454936e+003,2.093414e+001
1.455900e+003,2.156561e+001
1.456864e+003,2.424976e+001
1.457828e+003,2.670270e+001
1.458792e+003,2.716907e+001
1.459757e+003,2.687378e+001
1.460721e+003,2.694482e+001
1.461685e+003,2.700421e+001
1.462649e+003,2.595001e+001
1.463614e+003,2.376691e+001
1.464578e+003,2.224237e+001
1.465542e+003,2.306293e+001
1.466506e+003,2.509509e+001
1.467471e+003,2.514374e+001
1.468435e+003,2.297247e+001
1.469399e+003,2.163477e+001
1.470363e+003,2.060828e+001
1.471328e+003,2.081073e+001
1.472292e+003,2.294769e+001
1.473256e+003,2.529962e+001
1.474220e+003,2.779633e+001
1.475184e+003,2.980573e+001
1.476149e+003,2.941931e+001
1.477113e+003,2.641522e+001
1.478077e+003,2.389594e+001
1.479041e+003,2.514685e+001
1.480006e+003,2.914288e+001
1.480970e+003,3.194025e+001
1.481934e+003,3.312543e+001
1.482898e+003,3.339691e+001
1.483863e+003,3.140277e+001
1.484827e+003,3.036438e+001
1.485791e+003,3.188025e+001
1.486755e+003,3.452118e+001
1.487719e+003,3.730713e+001
1.488684e+003,3.971075e+001
1.489648e+003,4.061853e+001
1.490612e+003,3.993115e+001
1.491576e+003,4.077368e+001
1.492541e+003,4.628992e+001
1.493505e+003,5.359027e+001
1.494469e+003,5.531683e+001
1.495433e+003,5.239795e+001
1.496398e+003,5.294244e+001
1.497362e+003,5.930109e+001
1.498326e+003,6.613898e+001
1.499290e+003,6.986743e+001
1.500255e+003,7.300507e+001
1.501219e+003,7.947028e+001
1.502183e+003,8.851886e+001
1.503147e+003,9.518451e+001
1.504111e+003,9.748651e+001
1.505076e+003,1.020756e+002
1.506040e+003,1.140995e+002
1.507004e+003,1.290263e+002
1.507968e+003,1.416477e+002
1.508933e+003,1.536663e+002
1.509897e+003,1.688807e+002
1.510861e+003,1.883859e+002
1.511825e+003,2.099015e+002
1.512790e+003,2.315787e+002
1.513754e+003,2.538289e+002
1.514718e+003,2.776194e+002
1.515682e+003,3.026333e+002
1.516646e+003,3.307799e+002
1.517611e+003,3.657496e+002
1.518575e+003,3.961033e+002
1.519539e+003,4.181002e+002
1.520503e+003,4.353979e+002
1.521468e+003,4.494216e+002
1.522432e+003,4.598138e+002
1.523396e+003,4.664933e+002
1.524360e+003,4.689265e+002
1.525325e+003,4.655768e+002
1.526289e+003,4.555143e+002
1.527253e+003,4.409756e+002
1.528217e+003,4.260449e+002
1.529182e+003,4.110645e+002
1.530146e+003,3.896642e+002
1.531110e+003,3.580797e+002
1.532074e+003,3.261995e+002
1.533039e+003,2.949170e+002
1.534003e+003,2.620646e+002
1.534967e+003,2.246635e+002
1.535931e+003,1.878669e+002
1.536896e+003,1.565349e+002
1.537860e+003,1.315745e+002
1.538824e+003,1.121182e+002
1.539788e+003,9.740253e+001
1.540752e+003,8.622729e+001
1.541717e+003,7.735797e+001
1.542681e+003,7.065167e+001
1.543645e+003,6.395575e+001
1.544609e+003,5.691010e+001
1.545573e+003,5.182104e+001
1.546538e+003,4.906403e+001
1.547502e+003,4.685492e+001
1.548466e+003,4.548279e+001
1.549430e+003,4.433594e+001
1.550395e+003,4.209955e+001
1.551359e+003,3.923315e+001
1.552323e+003,3.791980e+001
1.553287e+003,3.881561e+001
1.554252e+003,3.934564e+001
1.555216e+003,3.707391e+001
1.556180e+003,3.327844e+001
1.557144e+003,3.096869e+001
1.558109e+003,3.032733e+001
1.559073e+003,2.964758e+001
1.560037e+003,2.859351e+001
1.561001e+003,2.721332e+001
1.561966e+003,2.534552e+001
1.562930e+003,2.409229e+001
1.563894e+003,2.484253e+001
1.564858e+003,2.656567e+001
1.565823e+003,2.652295e+001
1.566787e+003,2.430371e+001
1.567751e+003,2.297015e+001
1.568715e+003,2.455127e+001
1.569679e+003,2.714484e+001
1.570644e+003,2.832520e+001
1.571608e+003,2.831757e+001
1.572572e+003,2.845880e+001
1.573536e+003,2.897333e+001
1.574500e+003,2.923828e+001
1.575465e+003,2.905548e+001
1.576429e+003,2.832861e+001
1.577393e+003,2.596448e+001
1.578357e+003,2.325604e+001
1.579322e+003,2.362476e+001
1.580286e+003,2.704529e+001
1.581250e+003,2.890106e+001
1.582214e+003,2.729474e+001
1.583179e+003,2.573615e+001
1.584143e+003,2.712714e+001
1.585107e+003,2.937939e+001
1.586071e+003,2.984088e+001
1.587036e+003,2.935547e+001
1.588000e+003,2.978284e+001
1.588964e+003,3.139270e+001
1.589928e+003,3.258344e+001
1.590893e+003,3.218475e+001
1.591857e+003,3.098932e+001
1.592821e+003,2.954346e+001
1.593785e+003,2.826660e+001
1.594750e+003,2.997485e+001
1.595714e+003,3.561993e+001
1.596678e+003,3.929230e+001
1.597642e+003,3.750598e+001
1.598606e+003,3.475641e+001
1.599571e+003,3.425977e+001
1.600535e+003,3.537970e+001
1.601499e+003,3.786975e+001
1.602463e+003,4.118665e+001
1.603427e+003,4.366681e+001
1.604392e+003,4.469666e+001
1.605356e+003,4.451434e+001
1.606320e+003,4.274695e+001
1.607284e+003,4.018719e+001
1.608249e+003,3.955646e+001
1.609213e+003,4.098108e+001
1.610177e+003,4.010138e+001
1.611141e+003,3.501923e+001
1.612106e+003,3.057428e+001
1.613070e+003,2.903662e+001
1.614034e+003,2.906256e+001
1.614998e+003,3.079028e+001
1.615963e+003,3.302112e+001
1.616927e+003,3.367328e+001
1.617891e+003,3.248431e+001
1.618855e+003,3.072180e+001
1.619820e+003,2.897986e+001
1.620784e+003,2.698224e+001
1.621748e+003,2.404608e+001
1.622712e+003,2.108960e+001
1.623677e+003,2.239246e+001
1.624641e+003,2.907458e+001
1.625605e+003,3.371588e+001
1.626569e+003,3.338983e+001
1.627533e+003,3.163940e+001
1.628498e+003,2.954810e+001
1.629462e+003,2.803229e+001
1.630426e+003,2.814014e+001
1.631390e+003,2.923883e+001
1.632354e+003,2.995020e+001
1.633319e+003,2.993329e+001
1.634283e+003,2.992841e+001
1.635247e+003,3.053076e+001
1.636211e+003,3.113812e+001
1.637176e+003,3.079901e+001
1.638140e+003,2.967358e+001
1.639104e+003,2.810834e+001
1.640068e+003,2.552722e+001
1.641033e+003,2.426978e+001
1.641997e+003,2.563568e+001
1.642961e+003,2.772308e+001
1.643925e+003,3.071075e+001
1.644890e+003,3.296521e+001
1.645854e+003,3.193707e+001
1.646818e+003,2.885242e+001
1.647782e+003,2.719910e+001
1.648747e+003,2.798865e+001
1.649711e+003,2.943585e+001
1.650675e+003,3.035388e+001
1.651639e+003,3.088281e+001
1.652604e+003,3.095013e+001
1.653568e+003,3.041571e+001
1.654532e+003,2.937750e+001
1.655496e+003,2.776654e+001
1.656460e+003,2.588000e+001
1.657425e+003,2.280682e+001
1.658389e+003,2.109375e+001
1.659353e+003,2.340186e+001
1.660317e+003,2.662817e+001
1.661281e+003,2.721643e+001
1.662246e+003,2.563928e+001
1.663210e+003,2.449402e+001
1.664174e+003,2.471399e+001
1.665138e+003,2.501776e+001
1.666103e+003,2.419183e+001
1.667067e+003,2.260303e+001
1.668031e+003,2.084052e+001
1.668995e+003,1.906207e+001
1.669960e+003,1.889020e+001
1.670924e+003,2.111652e+001
1.671888e+003,2.232330e+001
1.672852e+003,2.035736e+001
1.673817e+003,1.843561e+001
1.674781e+003,1.858435e+001
1.675745e+003,1.978430e+001
1.676709e+003,2.195319e+001
1.677674e+003,2.410071e+001
1.678638e+003,2.299115e+001
1.679602e+003,1.768683e+001
1.680566e+003,1.321320e+001
1.681531e+003,1.424628e+001
1.682495e+003,1.768066e+001
1.683459e+003,1.722052e+001
1.684423e+003,1.368933e+001
1.685387e+003,1.403424e+001
1.686352e+003,1.962891e+001
1.687316e+003,2.348138e+001
1.688280e+003,2.312103e+001
1.689244e+003,2.097150e+001
1.690208e+003,1.743018e+001
1.691173e+003,1.383203e+001
1.692137e+003,1.177649e+001
1.693101e+003,1.124506e+001
1.694065e+003,1.152252e+001
1.695030e+003,1.225317e+001
1.695994e+003,1.279120e+001
1.696958e+003,1.316565e+001
1.697922e+003,1.290002e+001
1.698887e+003,1.058118e+001
1.699851e+003,7.321472e+000
1.700815e+003,6.667725e+000
1.701779e+003,8.740479e+000
1.702744e+003,1.027478e+001
1.703708e+003,1.036194e+001
1.704672e+003,1.044000e+001
1.705636e+003,1.105164e+001
1.706601e+003,1.200269e+001
1.707565e+003,1.465173e+001
1.708529e+003,1.791449e+001
1.709493e+003,1.678741e+001
1.710458e+003,1.004919e+001
1.711422e+003,4.758972e+000
1.712386e+003,4.844971e+000
1.713350e+003,6.528870e+000
1.714314e+003,6.799316e+000
1.715279e+003,6.220032e+000
1.716243e+003,5.566589e+000
1.717207e+003,5.201172e+000
1.718171e+003,6.718567e+000
1.719135e+003,1.060547e+001
1.720100e+003,1.298993e+001
1.721064e+003,1.079163e+001
1.722028e+003,6.853088e+000
1.722992e+003,5.435242e+000
1.723957e+003,6.330383e+000
1.724921e+003,6.798218e+000
1.725885e+003,6.360168e+000
1.726849e+003,5.807861e+000
1.727814e+003,5.759521e+000
1.728778e+003,5.881714e+000
1.729742e+003,5.889465e+000
1.730706e+003,5.948059e+000
1.731671e+003,5.599121e+000
1.732635e+003,5.180481e+000
1.733599e+003,6.845642e+000
1.734563e+003,1.038361e+001
1.735528e+003,1.118073e+001
1.736492e+003,6.710083e+000
1.737456e+003,1.128296e+000
1.738420e+003,-6.629639e-001
1.739385e+003,2.537231e-001
1.740349e+003,6.878662e-001
1.741313e+003,7.681274e-001
1.742277e+003,6.506958e-001
1.743241e+003,-3.234863e-003
1.744206e+003,8.685303e-002
1.745170e+003,2.044556e+000
1.746134e+003,3.402100e+000
1.747098e+003,1.791321e+000
1.748063e+003,-4.433594e-001
1.749027e+003,-4.364014e-002
1.749991e+003,2.263611e+000
1.750955e+003,3.442749e+000
1.751919e+003,2.487671e+000
1.752884e+003,8.802490e-001
1.753848e+003,-1.660767e-001
1.754812e+003,-7.506104e-001
1.755776e+003,-7.814941e-001
1.756741e+003,-8.160400e-002
1.757705e+003,-1.408691e-001
1.758669e+003,-1.660736e+000
1.759633e+003,-2.474182e+000
1.760598e+003,-2.169373e+000
1.761562e+003,-1.782928e+000
1.762526e+003,-9.775391e-001
1.763490e+003,-3.896484e-001
1.764455e+003,-8.829346e-001
1.765419e+003,-1.609222e+000
1.766383e+003,-1.190125e+000
1.767347e+003,1.929321e-001
1.768312e+003,1.230835e+000
1.769276e+003,1.244446e+000
1.770240e+003,4.285278e-001
1.771204e+003,-1.114349e+000
1.772168e+003,-2.506927e+000
1.773133e+003,-1.849915e+000
1.774097e+003,5.587769e-001
1.775061e+003,1.592102e+000
1.776025e+003,4.654541e-001
1.776990e+003,-2.832031e-001
1.777954e+003,6.269531e-001
1.778918e+003,1.986206e+000
1.779882e+003,3.282349e+000
1.780846e+003,3.763855e+000
1.781811e+003,2.206299e+000
1.782775e+003,-6.392517e-001
1.783739e+003,-2.626495e+000
1.784703e+003,-3.407867e+000
1.785668e+003,-2.916199e+000
1.786632e+003,-2.081299e-001
1.787596e+003,1.947693e+000
1.788560e+003,1.603027e+000
1.789525e+003,8.886719e-002
1.790489e+003,-1.583405e+000
1.791453e+003,-3.125244e+000
1.792417e+003,-3.939575e+000
1.793382e+003,-3.804382e+000
1.794346e+003,-1.886261e+000
1.795310e+003,2.443237e+000
1.796274e+003,5.898560e+000
1.797239e+003,4.511688e+000
1.798203e+003,4.031677e-001
1.799167e+003,-4.944763e-001
1.800131e+003,1.939423e+000
1.801095e+003,3.215179e+000
1.802060e+003,3.624481e+000
1.803024e+003,3.500916e+000
1.803988e+003,1.983276e+000
1.804952e+003,6.807251e-001
1.805917e+003,7.109985e-001
1.806881e+003,1.002991e+000
1.807845e+003,1.781311e-001
1.808809e+003,-1.021484e+000
1.809773e+003,-7.283936e-001
1.810738e+003,1.164795e+000
1.811702e+003,2.930115e+000
1.812666e+003,3.443085e+000
1.813630e+003,2.727448e+000
1.814595e+003,4.512329e-001
1.815559e+003,-2.615082e+000
1.816523e+003,-2.426147e+000
1.817487e+003,1.561127e+000
1.818452e+003,3.207947e+000
1.819416e+003,1.717346e+000
1.820380e+003,-9.826660e-003
1.821344e+003,-2.157990e+000
1.822309e+003,-3.483124e+000
1.823273e+003,-2.060760e+000
1.824237e+003,-9.027100e-002
1.825201e+003,-5.524292e-001
1.826166e+003,-2.446960e+000
1.827130e+003,-2.269226e+000
1.828094e+003,4.033508e-001
1.829058e+003,1.612335e+000
1.830022e+003,-1.082123e+000
1.830987e+003,-4.132385e+000
1.831951e+003,-4.133911e+000
1.832915e+003,-3.040100e+000
1.833879e+003,-4.153992e+000
1.834844e+003,-6.627625e+000
1.835808e+003,-7.544006e+000
1.836772e+003,-6.452545e+000
1.837736e+003,-4.167603e+000
1.838700e+003,-1.071564e+000
1.839665e+003,7.828369e-001
1.840629e+003,-6.716003e-001
1.841593e+003,-3.646484e+000
1.842557e+003,-4.546295e+000
1.843522e+003,-3.408051e+000
1.844486e+003,-2.192261e+000
1.845450e+003,2.605286e-001
1.846414e+003,1.088867e+000
1.847379e+003,-1.907379e+000
1.848343e+003,-4.297607e+000
1.849307e+003,-4.254120e+000
1.850271e+003,-3.455780e+000
1.851236e+003,-2.413574e+000
1.852200e+003,-1.640015e+000
1.853164e+003,-2.769318e+000
1.854128e+003,-5.050293e+000
1.855093e+003,-4.652191e+000
1.856057e+003,-4.077454e-001
1.857021e+003,2.730103e+000
1.857985e+003,2.220154e-001
1.858949e+003,-4.546021e+000
1.859914e+003,-5.576965e+000
1.860878e+003,-3.464722e+000
1.861842e+003,-1.818665e+000
1.862806e+003,-7.467957e-001
1.863771e+003,-2.584839e-001
1.864735e+003,-5.928040e-001
1.865699e+003,-8.935852e-001
1.866663e+003,-4.507446e-001
1.867627e+003,-1.069031e-001
1.868592e+003,-1.512817e+000
1.869556e+003,-3.384491e+000
1.870520e+003,-2.117859e+000
1.871484e+003,1.546265e+000
1.872449e+003,2.479492e+000
1.873413e+003,-1.141052e-001
1.874377e+003,-1.452942e+000
1.875341e+003,-4.483643e-001
1.876306e+003,1.263275e+000
1.877270e+003,4.090302e+000
1.878234e+003,5.902374e+000
1.879198e+003,3.750092e+000
1.880163e+003,-4.313660e-001
1.881127e+003,-3.364594e+000
1.882091e+003,-4.353912e+000
1.883055e+003,-3.767700e+000
1.884020e+003,-1.933441e+000
1.884984e+003,4.952698e-001
1.885948e+003,3.000092e+000
1.886912e+003,4.970032e+000
1.887876e+003,5.107971e+000
1.888841e+003,3.575409e+000
1.889805e+003,1.881714e+000
1.890769e+003,-1.525574e-001
1.891733e+003,-1.418732e+000
1.892698e+003,-2.133972e+000
1.893662e+003,-1.669006e+000
1.894626e+003,1.839325e+000
1.895590e+003,4.604401e+000
1.896554e+003,2.992371e+000
1.897519e+003,2.019653e-001
1.898483e+003,2.380981e-001
1.899447e+003,2.061829e+000
1.900411e+003,2.112854e+000
1.901376e+003,-2.115479e-001
1.902340e+003,-2.104309e+000
1.903304e+003,-2.647461e+000
1.904268e+003,-2.399139e+000
1.905233e+003,-9.255371e-001
1.906197e+003,6.278687e-001
1.907161e+003,1.059692e+000
1.908125e+003,8.083801e-001
1.909090e+003,3.173523e-001
1.910054e+003,-2.598877e-001
1.911018e+003,-2.780762e-001
1.911982e+003,4.815369e-001
1.912947e+003,1.119354e+000
1.913911e+003,9.055786e-001
1.914875e+003,4.671631e-001
1.915839e+003,7.279968e-001
1.916803e+003,1.337250e+000
1.917768e+003,1.389648e+000
1.918732e+003,9.102783e-001
1.919696e+003,8.697815e-001
1.920660e+003,1.671417e+000
1.921625e+003,2.165680e+000
1.922589e+003,1.349945e+000
1.923553e+003,1.070343e+000
1.924517e+003,2.924988e+000
1.925481e+003,5.247528e+000
1.926446e+003,7.318024e+000
1.927410e+003,8.544525e+000
1.928374e+003,7.044800e+000
1.929338e+003,2.922424e+000
1.930303e+003,4.280396e-001
1.931267e+003,1.549622e+000
1.932231e+003,2.542114e+000
1.933195e+003,5.126648e-001
1.934160e+003,-1.322906e+000
1.935124e+003,-9.057617e-002
1.936088e+003,2.090820e+000
1.937052e+003,2.970459e+000
1.938017e+003,2.865936e+000
1.938981e+003,2.763794e+000
1.939945e+003,2.757355e+000
1.940909e+003,2.224640e+000
1.941874e+003,8.803101e-001
1.942838e+003,-6.581116e-001
1.943802e+003,-1.644196e+000
1.944766e+003,-1.994598e+000
1.945730e+003,-2.033813e+000
1.946695e+003,-1.897491e+000
1.947659e+003,-1.214355e+000
1.948623e+003,5.319214e-002
1.949587e+003,6.697083e-001
1.950552e+003,4.134827e-001
1.951516e+003,4.309387e-001
1.952480e+003,1.165039e+000
1.953444e+003,2.114655e+000
1.954408e+003,3.186340e+000
1.955373e+003,3.736481e+000
1.956337e+003,2.822052e+000
1.957301e+003,1.112610e+000
1.958265e+003,8.441162e-002
1.959230e+003,-1.382446e-001
1.960194e+003,-1.596985e-001
1.961158e+003,-4.612122e-001
1.962122e+003,-7.552185e-001
1.963087e+003,-1.343506e+000
1.964051e+003,-1.321594e+000
1.965015e+003,7.193604e-001
1.965979e+003,3.275085e+000
1.966944e+003,4.784943e+000
1.967908e+003,5.191864e+000
1.968872e+003,4.728790e+000
1.969836e+003,3.776215e+000
1.970801e+003,3.114563e+000
1.971765e+003,3.072296e+000
1.972729e+003,3.046631e+000
1.973693e+003,2.396729e+000
1.974657e+003,1.786682e+000
1.975622e+003,2.256714e+000
1.976586e+003,3.371002e+000
1.977550e+003,4.324310e+000
1.978514e+003,5.151825e+000
1.979479e+003,5.767059e+000
1.980443e+003,6.099731e+000
1.981407e+003,5.996887e+000
1.982371e+003,5.457489e+000
1.983335e+003,5.326569e+000
1.984300e+003,6.202179e+000
1.985264e+003,7.117340e+000
1.986228e+003,6.628540e+000
1.987192e+003,5.159302e+000
1.988157e+003,5.070160e+000
1.989121e+003,7.048645e+000
1.990085e+003,7.257935e+000
1.991049e+003,4.418243e+000
1.992014e+003,2.680084e+000
1.992978e+003,2.907074e+000
1.993942e+003,3.530548e+000
1.994906e+003,4.631744e+000
1.995871e+003,5.331421e+000
1.996835e+003,4.836823e+000
1.997799e+003,3.775543e+000
1.998763e+003,2.432800e+000
1.999728e+003,1.140869e+000
