5.003444e+002,4.705473e+001
5.013087e+002,4.541946e+001
5.022729e+002,4.425064e+001
5.032371e+002,4.361752e+001
5.042014e+002,4.316501e+001
5.051656e+002,4.287207e+001
5.061298e+002,4.230878e+001
5.070941e+002,4.093019e+001
5.080583e+002,3.824680e+001
5.090225e+002,3.731364e+001
5.099868e+002,3.919260e+001
5.109510e+002,4.109953e+001
5.119152e+002,4.164355e+001
5.128795e+002,4.070984e+001
5.138437e+002,3.945160e+001
5.148079e+002,3.760742e+001
5.157722e+002,3.618124e+001
5.167364e+002,3.591310e+001
5.177006e+002,3.661716e+001
5.186649e+002,3.721317e+001
5.196291e+002,3.640894e+001
5.205933e+002,3.497409e+001
5.215576e+002,3.308504e+001
5.225218e+002,3.091664e+001
5.234860e+002,2.934047e+001
5.244503e+002,3.018465e+001
5.254145e+002,3.479424e+001
5.263787e+002,3.626906e+001
5.273430e+002,3.242015e+001
5.283072e+002,2.692892e+001
5.292714e+002,2.500542e+001
5.302357e+002,2.862773e+001
5.311999e+002,3.138985e+001
5.321641e+002,3.291788e+001
5.331284e+002,3.350874e+001
5.340926e+002,3.293452e+001
5.350568e+002,3.093216e+001
5.360211e+002,2.906618e+001
5.369853e+002,2.959361e+001
5.379495e+002,3.073331e+001
5.389138e+002,3.069469e+001
5.398780e+002,2.891046e+001
5.408422e+002,2.645258e+001
5.418065e+002,2.682079e+001
5.427707e+002,2.951080e+001
5.437349e+002,3.079524e+001
5.446992e+002,2.935101e+001
5.456634e+002,2.602812e+001
5.466276e+002,2.386641e+001
5.475919e+002,2.386349e+001
5.485561e+002,2.412726e+001
5.495203e+002,2.482489e+001
5.504846e+002,2.555818e+001
5.514488e+002,2.582127e+001
5.524130e+002,2.540854e+001
5.533773e+002,2.473160e+001
5.543415e+002,2.398763e+001
5.553057e+002,2.319315e+001
5.562700e+002,2.227617e+001
5.572342e+002,2.117834e+001
5.581984e+002,2.006200e+001
5.591627e+002,1.932939e+001
5.601269e+002,1.899329e+001
5.610911e+002,1.917247e+001
5.620554e+002,1.995615e+001
5.630196e+002,2.113287e+001
5.639838e+002,2.118085e+001
5.649481e+002,1.902516e+001
5.659123e+002,1.732851e+001
5.668765e+002,1.697594e+001
5.678408e+002,1.758006e+001
5.688050e+002,1.779715e+001
5.697692e+002,1.658882e+001
5.707335e+002,1.558568e+001
5.716977e+002,1.576381e+001
5.726619e+002,1.637808e+001
5.736262e+002,1.623921e+001
5.745904e+002,1.437929e+001
5.755546e+002,1.231358e+001
5.765189e+002,1.230310e+001
5.774831e+002,1.358147e+001
5.784473e+002,1.526712e+001
5.794116e+002,1.680026e+001
5.803758e+002,1.817287e+001
5.813400e+002,1.788918e+001
5.823043e+002,1.515575e+001
5.832685e+002,1.286786e+001
5.842327e+002,1.254614e+001
5.851970e+002,1.389020e+001
5.861612e+002,1.438948e+001
5.871254e+002,1.221065e+001
5.880897e+002,1.064752e+001
5.890539e+002,1.056219e+001
5.900181e+002,1.139716e+001
5.909824e+002,1.232875e+001
5.919466e+002,1.318428e+001
5.929108e+002,1.323763e+001
5.938751e+002,1.108231e+001
5.948393e+002,8.027740e+000
5.958035e+002,6.364578e+000
5.967678e+002,7.739792e+000
5.977320e+002,1.154810e+001
5.986962e+002,1.229082e+001
5.996605e+002,9.818893e+000
6.006247e+002,7.719376e+000
6.015889e+002,8.106461e+000
6.025532e+002,1.074724e+001
6.035174e+002,1.193016e+001
6.044816e+002,9.573914e+000
6.054459e+002,7.967270e+000
6.064101e+002,7.981049e+000
6.073743e+002,9.104996e+000
6.083386e+002,1.054338e+001
6.093028e+002,1.251120e+001
6.102670e+002,1.337225e+001
6.112313e+002,1.117068e+001
6.121955e+002,7.629181e+000
6.131597e+002,4.918762e+000
6.141240e+002,4.527100e+000
6.150882e+002,5.955368e+000
6.160524e+002,7.520462e+000
6.170167e+002,9.244202e+000
6.179809e+002,1.073242e+001
6.189451e+002,1.191400e+001
6.199094e+002,1.262665e+001
6.208736e+002,1.206299e+001
6.218378e+002,8.273651e+000
6.228021e+002,5.670685e+000
6.237663e+002,4.981339e+000
6.247305e+002,5.657074e+000
6.256948e+002,6.887802e+000
6.266590e+002,8.680511e+000
6.276232e+002,9.983170e+000
6.285875e+002,1.057877e+001
6.295517e+002,1.049974e+001
6.305159e+002,9.378235e+000
6.314802e+002,7.085602e+000
6.324444e+002,4.379562e+000
6.334086e+002,3.853622e+000
6.343729e+002,4.912308e+000
6.353371e+002,6.010895e+000
6.363013e+002,6.644012e+000
6.372656e+002,6.797791e+000
6.382298e+002,6.506653e+000
6.391940e+002,5.149597e+000
6.401583e+002,4.053406e+000
6.411225e+002,3.501846e+000
6.420867e+002,3.317444e+000
6.430510e+002,3.178574e+000
6.440152e+002,2.855820e+000
6.449794e+002,2.695602e+000
6.459437e+002,3.200073e+000
6.469079e+002,3.702118e+000
6.478721e+002,3.660049e+000
6.488364e+002,2.940292e+000
6.498006e+002,1.963409e+000
6.507648e+002,1.551056e+000
6.517291e+002,1.318008e+000
6.526933e+002,-2.688599e-002
6.536575e+002,-2.854721e+000
6.546218e+002,-5.665085e+000
6.555860e+002,-5.418259e+000
6.565502e+002,3.916321e-001
6.575145e+002,3.901413e+000
6.584787e+002,3.997253e+000
6.594429e+002,3.048920e+000
6.604072e+002,2.825348e+000
6.613714e+002,3.624344e+000
6.623356e+002,4.499313e+000
6.632999e+002,5.366821e+000
6.642641e+002,5.741165e+000
6.652283e+002,5.101700e+000
6.661926e+002,3.705124e+000
6.671568e+002,2.366165e+000
6.681210e+002,1.973282e+000
6.690853e+002,2.344803e+000
6.700495e+002,3.225403e+000
6.710137e+002,4.524292e+000
6.719780e+002,5.283340e+000
6.729422e+002,4.303436e+000
6.739064e+002,9.308167e-001
6.748707e+002,-3.569336e-001
6.758349e+002,1.762314e+000
6.767991e+002,3.743164e+000
6.777634e+002,4.144699e+000
6.787276e+002,3.177963e+000
6.796918e+002,2.198959e+000
6.806561e+002,1.294800e+000
6.816203e+002,7.165833e-001
6.825845e+002,7.229462e-001
6.835488e+002,1.091873e+000
6.845130e+002,1.554092e+000
6.854772e+002,1.964767e+000
6.864415e+002,2.258911e+000
6.874057e+002,2.002533e+000
6.883699e+002,1.286667e+000
6.893342e+002,6.031342e-001
6.902984e+002,2.515717e-001
6.912626e+002,2.404327e-001
6.922269e+002,3.881989e-001
6.931911e+002,9.902191e-001
6.941553e+002,1.678421e+000
6.951196e+002,2.426315e+000
6.960838e+002,3.055328e+000
6.970480e+002,3.381287e+000
6.980123e+002,3.409454e+000
6.989765e+002,3.128616e+000
6.999407e+002,2.170349e+000
7.009050e+002,1.198639e+000
7.018692e+002,7.765808e-001
7.028334e+002,1.057175e+000
7.037977e+002,1.684830e+000
7.047619e+002,2.432205e+000
7.057261e+002,3.122513e+000
7.066904e+002,3.022491e+000
7.076546e+002,2.007004e+000
7.086188e+002,7.535858e-001
7.095831e+002,3.427887e-001
7.105473e+002,1.015030e+000
7.115115e+002,1.694046e+000
7.124758e+002,2.933701e+000
7.134400e+002,3.598236e+000
7.144042e+002,2.485153e+000
7.153685e+002,-2.938232e-001
7.163327e+002,-1.996948e+000
7.172969e+002,1.533356e-001
7.182612e+002,2.301270e+000
7.192254e+002,2.602753e+000
7.201896e+002,1.590530e+000
7.211539e+002,7.352600e-001
7.221181e+002,1.303055e+000
7.230823e+002,2.707230e+000
7.240466e+002,3.478912e+000
7.250108e+002,3.773041e+000
7.259750e+002,3.542542e+000
7.269393e+002,2.530655e+000
7.279035e+002,8.109436e-001
7.288677e+002,-5.326843e-002
7.298320e+002,1.787582e+000
7.307962e+002,2.601486e+000
7.317604e+002,8.872681e-001
7.327247e+002,-1.462723e+000
7.336889e+002,-1.566620e+000
7.346531e+002,1.901093e+000
7.356174e+002,4.850418e+000
7.365816e+002,5.366928e+000
7.375458e+002,4.723495e+000
7.385101e+002,3.465927e+000
7.394743e+002,1.959717e+000
7.404385e+002,5.413513e-001
7.414028e+002,-3.000031e-001
7.423670e+002,-8.252869e-001
7.433312e+002,-1.488281e+000
7.442955e+002,-2.221405e+000
7.452597e+002,-2.340927e+000
7.462239e+002,-8.697510e-001
7.471882e+002,2.858948e+000
7.481524e+002,4.956650e+000
7.491166e+002,4.103394e+000
7.500809e+002,3.127090e+000
7.510451e+002,3.272675e+000
7.520093e+002,4.233887e+000
7.529736e+002,4.623703e+000
7.539378e+002,3.515976e+000
7.549020e+002,2.407349e+000
7.558663e+002,2.394653e+000
7.568306e+002,2.902435e+000
7.577948e+002,2.903519e+000
7.587590e+002,1.811813e+000
7.597233e+002,2.834015e-001
7.606875e+002,9.235992e-001
7.616517e+002,3.496796e+000
7.626160e+002,5.448624e+000
7.635802e+002,6.247971e+000
7.645444e+002,6.025269e+000
7.655087e+002,4.802109e+000
7.664729e+002,1.569885e+000
7.674371e+002,-4.572601e-001
7.684014e+002,-7.536774e-001
7.693656e+002,-3.842773e-001
7.703298e+002,-1.036835e-001
7.712941e+002,6.280518e-002
7.722583e+002,9.696808e-001
7.732225e+002,4.451279e+000
7.741868e+002,7.716125e+000
7.751510e+002,8.478699e+000
7.761152e+002,7.126862e+000
7.770795e+002,4.712753e+000
7.780437e+002,2.119583e+000
7.790079e+002,-4.654236e-001
7.799722e+002,-7.954865e-001
7.809364e+002,1.144852e+000
7.819006e+002,3.275391e+000
7.828649e+002,5.101700e+000
7.838291e+002,6.649918e+000
7.847933e+002,7.863571e+000
7.857576e+002,8.796722e+000
7.867218e+002,8.796463e+000
7.876860e+002,7.460663e+000
7.886503e+002,5.736649e+000
7.896145e+002,4.143585e+000
7.905787e+002,2.903549e+000
7.915430e+002,2.350708e+000
7.925072e+002,3.448929e+000
7.934714e+002,4.904495e+000
7.944357e+002,5.330063e+000
7.953999e+002,4.797241e+000
7.963641e+002,4.099136e+000
7.973284e+002,4.072876e+000
7.982926e+002,4.751343e+000
7.992568e+002,5.669312e+000
8.002211e+002,6.878311e+000
8.011853e+002,7.693649e+000
8.021495e+002,8.018250e+000
8.031138e+002,8.062271e+000
8.040780e+002,8.053711e+000
8.050422e+002,7.732559e+000
8.060065e+002,7.521072e+000
8.069707e+002,7.660690e+000
8.079349e+002,7.766052e+000
8.088992e+002,7.295547e+000
8.098634e+002,6.202515e+000
8.108276e+002,5.398972e+000
8.117919e+002,6.810028e+000
8.127561e+002,8.913055e+000
8.137203e+002,8.493561e+000
8.146846e+002,5.371414e+000
8.156488e+002,2.094849e+000
8.166130e+002,1.880173e+000
8.175773e+002,5.501740e+000
8.185415e+002,7.299377e+000
8.195057e+002,5.489258e+000
8.204700e+002,4.198364e+000
8.214342e+002,5.420441e+000
8.223984e+002,8.212219e+000
8.233627e+002,9.947876e+000
8.243269e+002,9.523392e+000
8.252911e+002,8.364578e+000
8.262554e+002,6.547623e+000
8.272196e+002,5.026443e+000
8.281838e+002,5.170227e+000
8.291481e+002,7.222015e+000
8.301123e+002,9.819855e+000
8.310765e+002,1.057253e+001
8.320408e+002,9.468140e+000
8.330050e+002,8.078003e+000
8.339692e+002,6.355728e+000
8.349335e+002,4.825287e+000
8.358977e+002,4.139725e+000
8.368619e+002,4.470795e+000
8.378262e+002,4.830139e+000
8.387904e+002,4.942154e+000
8.397546e+002,5.184250e+000
8.407189e+002,6.046738e+000
8.416831e+002,7.028839e+000
8.426473e+002,7.080139e+000
8.436116e+002,5.498459e+000
8.445758e+002,4.000076e+000
8.455400e+002,4.399063e+000
8.465043e+002,5.658615e+000
8.474685e+002,6.996231e+000
8.484327e+002,8.180145e+000
8.493970e+002,9.246185e+000
8.503612e+002,1.012880e+001
8.513254e+002,1.079536e+001
8.522897e+002,1.077985e+001
8.532539e+002,9.543198e+000
8.542181e+002,8.270813e+000
8.551824e+002,7.533173e+000
8.561466e+002,7.475327e+000
8.571108e+002,8.497910e+000
8.580751e+002,1.168825e+001
8.590393e+002,1.408543e+001
8.600035e+002,1.447559e+001
8.609678e+002,1.395340e+001
8.619320e+002,1.386340e+001
8.628962e+002,1.469279e+001
8.638605e+002,1.545372e+001
8.648247e+002,1.404919e+001
8.657889e+002,1.167188e+001
8.667532e+002,1.123158e+001
8.677174e+002,1.310065e+001
8.686816e+002,1.547466e+001
8.696459e+002,1.625865e+001
8.706101e+002,1.521413e+001
8.715743e+002,1.477615e+001
8.725386e+002,1.520781e+001
8.735028e+002,1.585756e+001
8.744670e+002,1.654991e+001
8.754313e+002,1.720203e+001
8.763955e+002,1.778491e+001
8.773597e+002,1.832338e+001
8.783240e+002,1.890118e+001
8.792882e+002,1.941023e+001
8.802524e+002,1.998808e+001
8.812167e+002,2.105711e+001
8.821809e+002,2.249562e+001
8.831451e+002,2.354083e+001
8.841094e+002,2.315321e+001
8.850736e+002,2.149657e+001
8.860378e+002,2.079149e+001
8.870021e+002,2.096581e+001
8.879663e+002,2.180013e+001
8.889305e+002,2.370334e+001
8.898948e+002,2.626445e+001
8.908590e+002,2.743559e+001
8.918232e+002,2.623190e+001
8.927875e+002,2.515132e+001
8.937517e+002,2.476527e+001
8.947159e+002,2.468105e+001
8.956802e+002,2.432944e+001
8.966444e+002,2.363451e+001
8.976086e+002,2.329807e+001
8.985729e+002,2.443396e+001
8.995371e+002,2.626633e+001
9.005013e+002,2.745436e+001
9.014656e+002,2.801781e+001
9.024298e+002,2.799089e+001
9.033940e+002,2.722528e+001
9.043583e+002,2.583603e+001
9.053225e+002,2.544928e+001
9.062867e+002,2.696028e+001
9.072510e+002,2.823734e+001
9.082152e+002,2.926402e+001
9.091794e+002,3.026118e+001
9.101437e+002,3.171605e+001
9.111079e+002,3.370860e+001
9.120721e+002,3.473996e+001
9.130364e+002,3.243993e+001
9.140006e+002,2.995729e+001
9.149648e+002,2.929272e+001
9.159291e+002,3.008113e+001
9.168933e+002,3.116327e+001
9.178575e+002,3.166272e+001
9.188218e+002,3.165144e+001
9.197860e+002,3.154298e+001
9.207502e+002,3.130716e+001
9.217145e+002,3.060193e+001
9.226787e+002,2.897511e+001
9.236429e+002,2.747360e+001
9.246072e+002,2.783153e+001
9.255714e+002,3.059822e+001
9.265356e+002,3.183023e+001
9.274999e+002,2.935744e+001
9.284641e+002,2.682878e+001
9.294283e+002,2.551585e+001
9.303926e+002,2.512399e+001
9.313568e+002,2.480176e+001
9.323210e+002,2.409444e+001
9.332853e+002,2.337836e+001
9.342495e+002,2.367165e+001
9.352137e+002,2.425874e+001
9.361780e+002,2.390791e+001
9.371422e+002,2.245418e+001
9.381064e+002,2.085951e+001
9.390707e+002,2.032784e+001
9.400349e+002,2.090231e+001
9.409991e+002,2.147144e+001
9.419634e+002,2.235742e+001
9.429276e+002,2.278433e+001
9.438918e+002,2.225565e+001
9.448561e+002,2.127751e+001
9.458203e+002,2.072876e+001
9.467845e+002,2.094409e+001
9.477488e+002,2.129230e+001
9.487130e+002,2.122488e+001
9.496772e+002,2.109192e+001
9.506415e+002,2.137062e+001
9.516057e+002,2.191586e+001
9.525699e+002,2.194093e+001
9.535342e+002,2.062224e+001
9.544984e+002,1.823888e+001
9.554626e+002,1.793376e+001
9.564269e+002,2.045734e+001
9.573911e+002,2.194212e+001
9.583553e+002,2.024077e+001
9.593196e+002,1.733194e+001
9.602838e+002,1.686697e+001
9.612480e+002,1.983076e+001
9.622123e+002,2.144344e+001
9.631765e+002,1.912978e+001
9.641407e+002,1.647311e+001
9.651050e+002,1.456921e+001
9.660692e+002,1.366360e+001
9.670334e+002,1.405003e+001
9.679977e+002,1.601625e+001
9.689619e+002,1.854736e+001
9.699261e+002,1.883978e+001
9.708904e+002,1.759810e+001
9.718546e+002,1.686870e+001
9.728188e+002,1.696132e+001
9.737831e+002,1.805850e+001
9.747473e+002,2.092303e+001
9.757115e+002,2.625249e+001
9.766758e+002,2.970432e+001
9.776400e+002,3.036621e+001
9.786042e+002,3.043666e+001
9.795685e+002,3.048961e+001
9.805327e+002,3.002658e+001
9.814969e+002,2.803717e+001
9.824612e+002,2.424435e+001
9.834254e+002,2.060518e+001
9.843896e+002,1.924934e+001
9.853539e+002,1.878059e+001
9.863181e+002,1.760576e+001
9.872823e+002,1.575034e+001
9.882466e+002,1.444907e+001
9.892108e+002,1.492915e+001
9.901750e+002,1.683580e+001
9.911393e+002,1.646355e+001
9.921035e+002,1.025317e+001
9.930677e+002,7.061722e+000
9.940320e+002,9.817932e+000
9.949962e+002,1.392509e+001
9.959604e+002,1.472331e+001
9.969247e+002,1.205695e+001
9.978889e+002,1.056348e+001
9.988531e+002,1.328178e+001
9.998174e+002,1.636868e+001
1.000782e+003,1.809181e+001
1.001746e+003,1.856972e+001
1.002710e+003,1.775504e+001
1.003674e+003,1.580505e+001
1.004639e+003,1.354546e+001
1.005603e+003,1.245444e+001
1.006567e+003,1.263307e+001
1.007531e+003,1.290567e+001
1.008495e+003,1.358775e+001
1.009460e+003,1.380319e+001
1.010424e+003,1.273528e+001
1.011388e+003,1.076694e+001
1.012352e+003,9.267426e+000
1.013317e+003,7.992981e+000
1.014281e+003,8.039017e+000
1.015245e+003,1.104645e+001
1.016209e+003,1.396419e+001
1.017174e+003,1.435466e+001
1.018138e+003,1.235910e+001
1.019102e+003,9.946304e+000
1.020066e+003,8.722763e+000
1.021031e+003,8.320190e+000
1.021995e+003,7.339233e+000
1.022959e+003,5.856628e+000
1.023923e+003,5.027390e+000
1.024887e+003,5.432755e+000
1.025852e+003,6.258759e+000
1.026816e+003,6.120499e+000
1.027780e+003,4.746384e+000
1.028744e+003,4.081085e+000
1.029709e+003,5.544495e+000
1.030673e+003,6.187454e+000
1.031637e+003,4.208252e+000
1.032601e+003,1.195557e+000
1.033566e+003,-5.008698e-001
1.034530e+003,-4.878235e-002
1.035494e+003,1.218628e+000
1.036458e+003,2.140152e+000
1.037422e+003,2.646561e+000
1.038387e+003,2.498398e+000
1.039351e+003,1.766174e+000
1.040315e+003,1.153168e+000
1.041279e+003,1.251175e+000
1.042244e+003,1.917450e+000
1.043208e+003,2.217194e+000
1.044172e+003,1.474518e+000
1.045136e+003,1.367233e+000
1.046101e+003,2.770508e+000
1.047065e+003,4.044815e+000
1.048029e+003,3.641174e+000
1.048993e+003,2.052963e+000
1.049958e+003,1.547714e+000
1.050922e+003,3.661087e+000
1.051886e+003,6.079605e+000
1.052850e+003,6.132324e+000
1.053814e+003,5.146210e+000
1.054779e+003,5.021683e+000
1.055743e+003,6.021576e+000
1.056707e+003,6.699478e+000
1.057671e+003,5.246704e+000
1.058636e+003,1.624207e+000
1.059600e+003,-8.650513e-001
1.060564e+003,-2.250320e+000
1.061528e+003,-2.325699e+000
1.062493e+003,-2.095032e-002
1.063457e+003,2.778336e+000
1.064421e+003,3.884079e+000
1.065385e+003,3.123123e+000
1.066349e+003,2.505081e+000
1.067314e+003,3.378662e+000
1.068278e+003,4.294327e+000
1.069242e+003,4.154037e+000
1.070206e+003,3.435165e+000
1.071171e+003,2.789032e+000
1.072135e+003,2.499130e+000
1.073099e+003,2.545792e+000
1.074063e+003,3.016006e+000
1.075028e+003,4.024475e+000
1.075992e+003,4.357498e+000
1.076956e+003,3.482635e+000
1.077920e+003,2.785248e+000
1.078885e+003,3.184067e+000
1.079849e+003,4.078232e+000
1.080813e+003,4.173416e+000
1.081777e+003,3.135498e+000
1.082741e+003,2.307022e+000
1.083706e+003,2.465622e+000
1.084670e+003,2.743195e+000
1.085634e+003,2.717484e+000
1.086598e+003,2.437286e+000
1.087563e+003,2.117279e+000
1.088527e+003,1.923752e+000
1.089491e+003,1.874054e+000
1.090455e+003,1.881561e+000
1.091420e+003,1.878464e+000
1.092384e+003,1.692200e+000
1.093348e+003,1.286118e+000
1.094312e+003,6.339264e-001
1.095276e+003,-5.182343e-001
1.096241e+003,-1.809555e+000
1.097205e+003,-2.180511e+000
1.098169e+003,-1.231720e+000
1.099133e+003,-3.856506e-001
1.100098e+003,-2.826080e-001
1.101062e+003,-2.597656e-001
1.102026e+003,1.092072e-001
1.102990e+003,7.621765e-001
1.103955e+003,1.475876e+000
1.104919e+003,2.087997e+000
1.105883e+003,2.439728e+000
1.106847e+003,2.168457e+000
1.107812e+003,1.245270e+000
1.108776e+003,4.844208e-001
1.109740e+003,-1.804199e-001
1.110704e+003,-4.756012e-001
1.111668e+003,1.043701e-001
1.112633e+003,1.372314e+000
1.113597e+003,2.236191e+000
1.114561e+003,2.431488e+000
1.115525e+003,2.395432e+000
1.116490e+003,1.765152e+000
1.117454e+003,1.413559e+000
1.118418e+003,2.489182e+000
1.119382e+003,4.408844e+000
1.120347e+003,5.490112e+000
1.121311e+003,4.631042e+000
1.122275e+003,2.657669e+000
1.123239e+003,1.335205e+000
1.124203e+003,8.066406e-001
1.125168e+003,9.450531e-001
1.126132e+003,1.969879e+000
1.127096e+003,3.163345e+000
1.128060e+003,4.006332e+000
1.129025e+003,4.500427e+000
1.129989e+003,4.826202e+000
1.130953e+003,5.077896e+000
1.131917e+003,4.827408e+000
1.132882e+003,3.619720e+000
1.133846e+003,2.379196e+000
1.134810e+003,1.249557e+000
1.135774e+003,6.284637e-001
1.136739e+003,1.436035e+000
1.137703e+003,4.134399e+000
1.138667e+003,7.288345e+000
1.139631e+003,8.234268e+000
1.140595e+003,7.200974e+000
1.141560e+003,6.894028e+000
1.142524e+003,7.568848e+000
1.143488e+003,8.738266e+000
1.144452e+003,9.819305e+000
1.145417e+003,1.108731e+001
1.146381e+003,1.376135e+001
1.147345e+003,1.853033e+001
1.148309e+003,2.283067e+001
1.149274e+003,2.631238e+001
1.150238e+003,2.903510e+001
1.151202e+003,3.027583e+001
1.152166e+003,3.103865e+001
1.153130e+003,3.334842e+001
1.154095e+003,3.790756e+001
1.155059e+003,4.249934e+001
1.156023e+003,4.406592e+001
1.156987e+003,4.279359e+001
1.157952e+003,4.114903e+001
1.158916e+003,3.933530e+001
1.159880e+003,3.701442e+001
1.160844e+003,3.320206e+001
1.161809e+003,2.870184e+001
1.162773e+003,2.585144e+001
1.163737e+003,2.519067e+001
1.164701e+003,2.381990e+001
1.165666e+003,1.995277e+001
1.166630e+003,1.646353e+001
1.167594e+003,1.485832e+001
1.168558e+003,1.405902e+001
1.169522e+003,1.215135e+001
1.170487e+003,8.821991e+000
1.171451e+003,6.180786e+000
1.172415e+003,6.803421e+000
1.173379e+003,9.817963e+000
1.174344e+003,1.042015e+001
1.175308e+003,8.525345e+000
1.176272e+003,7.178299e+000
1.177236e+003,7.829407e+000
1.178201e+003,9.197861e+000
1.179165e+003,9.539841e+000
1.180129e+003,8.782516e+000
1.181093e+003,8.138885e+000
1.182057e+003,8.121689e+000
1.183022e+003,7.926010e+000
1.183986e+003,7.408066e+000
1.184950e+003,6.507568e+000
1.185914e+003,4.612823e+000
1.186879e+003,2.198792e+000
1.187843e+003,1.032318e+000
1.188807e+003,2.571289e+000
1.189771e+003,5.653793e+000
1.190736e+003,6.890472e+000
1.191700e+003,6.098450e+000
1.192664e+003,4.972458e+000
1.193628e+003,3.442780e+000
1.194593e+003,1.984528e+000
1.195557e+003,7.147369e-001
1.196521e+003,-2.551727e-001
1.197485e+003,-2.548523e-001
1.198449e+003,1.329590e+000
1.199414e+003,2.298584e+000
1.200378e+003,1.011505e+000
1.201342e+003,-6.114197e-001
1.202306e+003,-1.619080e+000
1.203271e+003,-2.003555e+000
1.204235e+003,-1.814362e+000
1.205199e+003,-1.169388e+000
1.206163e+003,-7.255554e-001
1.207128e+003,-1.734009e+000
1.208092e+003,-4.312500e+000
1.209056e+003,-5.090515e+000
1.210020e+003,-2.915085e+000
1.210984e+003,-1.541702e+000
1.211949e+003,-2.457001e+000
1.212913e+003,-4.519928e+000
1.213877e+003,-6.519348e+000
1.214841e+003,-8.296387e+000
1.215806e+003,-9.266434e+000
1.216770e+003,-8.507034e+000
1.217734e+003,-8.050232e+000
1.218698e+003,-1.013046e+001
1.219663e+003,-1.285847e+001
1.220627e+003,-1.349696e+001
1.221591e+003,-1.191563e+001
1.222555e+003,-1.051408e+001
1.223520e+003,-1.154793e+001
1.224484e+003,-1.421823e+001
1.225448e+003,-1.481931e+001
1.226412e+003,-1.181270e+001
1.227376e+003,-1.018797e+001
1.228341e+003,-1.079921e+001
1.229305e+003,-1.182971e+001
1.230269e+003,-1.245894e+001
1.231233e+003,-1.277473e+001
1.232198e+003,-1.310692e+001
1.233162e+003,-1.352505e+001
1.234126e+003,-1.350568e+001
1.235090e+003,-1.230766e+001
1.236055e+003,-1.094136e+001
1.237019e+003,-1.054549e+001
1.237983e+003,-1.088882e+001
1.238947e+003,-1.116551e+001
1.239911e+003,-1.100365e+001
1.240876e+003,-1.087904e+001
1.241840e+003,-1.168498e+001
1.242804e+003,-1.353346e+001
1.243768e+003,-1.417700e+001
1.244733e+003,-1.189252e+001
1.245697e+003,-1.067853e+001
1.246661e+003,-1.196800e+001
1.247625e+003,-1.354715e+001
1.248590e+003,-1.360100e+001
1.249554e+003,-1.235359e+001
1.250518e+003,-1.111501e+001
1.251482e+003,-1.049945e+001
1.252447e+003,-1.024199e+001
1.253411e+003,-9.984543e+000
1.254375e+003,-9.774429e+000
1.255339e+003,-9.837387e+000
1.256303e+003,-1.013162e+001
1.257268e+003,-1.031572e+001
1.258232e+003,-1.020494e+001
1.259196e+003,-1.004669e+001
1.260160e+003,-1.035355e+001
1.261125e+003,-1.123087e+001
1.262089e+003,-1.144894e+001
1.263053e+003,-1.031398e+001
1.264017e+003,-9.350647e+000
1.264982e+003,-9.113663e+000
1.265946e+003,-9.000641e+000
1.266910e+003,-8.377518e+000
1.267874e+003,-7.282059e+000
1.268839e+003,-6.087418e+000
1.269803e+003,-5.025894e+000
1.270767e+003,-4.373352e+000
1.271731e+003,-4.727646e+000
1.272695e+003,-6.076462e+000
1.273660e+003,-7.794952e+000
1.274624e+003,-1.040572e+001
1.275588e+003,-1.227087e+001
1.276552e+003,-1.200705e+001
1.277517e+003,-1.049487e+001
1.278481e+003,-9.296585e+000
1.279445e+003,-8.491425e+000
1.280409e+003,-8.454941e+000
1.281374e+003,-1.042899e+001
1.282338e+003,-1.163184e+001
1.283302e+003,-9.615891e+000
1.284266e+003,-6.759659e+000
1.285230e+003,-5.835251e+000
1.286195e+003,-7.143845e+000
1.287159e+003,-9.332489e+000
1.288123e+003,-1.126965e+001
1.289087e+003,-1.250572e+001
1.290052e+003,-1.169023e+001
1.291016e+003,-7.806656e+000
1.291980e+003,-5.796631e+000
1.292944e+003,-6.824493e+000
1.293909e+003,-8.159607e+000
1.294873e+003,-8.544312e+000
1.295837e+003,-8.632355e+000
1.296801e+003,-9.673279e+000
1.297766e+003,-1.170071e+001
1.298730e+003,-1.299422e+001
1.299694e+003,-1.236218e+001
1.300658e+003,-1.131233e+001
1.301622e+003,-1.202876e+001
1.302587e+003,-1.322908e+001
1.303551e+003,-1.242926e+001
1.304515e+003,-9.385818e+000
1.305479e+003,-6.654449e+000
1.306444e+003,-6.437820e+000
1.307408e+003,-7.970215e+000
1.308372e+003,-8.478897e+000
1.309336e+003,-7.417755e+000
1.310301e+003,-7.044128e+000
1.311265e+003,-7.809799e+000
1.312229e+003,-8.750778e+000
1.313193e+003,-1.002217e+001
1.314157e+003,-1.107962e+001
1.315122e+003,-1.101823e+001
1.316086e+003,-1.010490e+001
1.317050e+003,-9.931686e+000
1.318014e+003,-1.160210e+001
1.318979e+003,-1.365771e+001
1.319943e+003,-1.319572e+001
1.320907e+003,-1.057501e+001
1.321871e+003,-9.608276e+000
1.322836e+003,-1.101961e+001
1.323800e+003,-1.236449e+001
1.324764e+003,-1.237181e+001
1.325728e+003,-1.147063e+001
1.326693e+003,-1.003140e+001
1.327657e+003,-8.084320e+000
1.328621e+003,-7.566818e+000
1.329585e+003,-1.016234e+001
1.330549e+003,-1.182874e+001
1.331514e+003,-9.766342e+000
1.332478e+003,-6.820313e+000
1.333442e+003,-5.630402e+000
1.334406e+003,-6.151779e+000
1.335371e+003,-6.805008e+000
1.336335e+003,-6.649887e+000
1.337299e+003,-6.522354e+000
1.338263e+003,-8.177292e+000
1.339228e+003,-1.199779e+001
1.340192e+003,-1.394693e+001
1.341156e+003,-1.330121e+001
1.342120e+003,-1.202412e+001
1.343084e+003,-9.492523e+000
1.344049e+003,-7.349594e+000
1.345013e+003,-7.239670e+000
1.345977e+003,-8.584900e+000
1.346941e+003,-9.564087e+000
1.347906e+003,-9.536362e+000
1.348870e+003,-9.020111e+000
1.349834e+003,-8.402710e+000
1.350798e+003,-7.718460e+000
1.351763e+003,-6.696152e+000
1.352727e+003,-5.490372e+000
1.353691e+003,-5.289230e+000
1.354655e+003,-6.817154e+000
1.355620e+003,-8.407104e+000
1.356584e+003,-7.580658e+000
1.357548e+003,-4.725830e+000
1.358512e+003,-3.743439e+000
1.359476e+003,-5.598419e+000
1.360441e+003,-7.400314e+000
1.361405e+003,-8.648346e+000
1.362369e+003,-9.350525e+000
1.363333e+003,-9.389893e+000
1.364298e+003,-8.930801e+000
1.365262e+003,-7.750717e+000
1.366226e+003,-6.151535e+000
1.367190e+003,-5.504669e+000
1.368155e+003,-7.068909e+000
1.369119e+003,-9.993790e+000
1.370083e+003,-1.158702e+001
1.371047e+003,-1.155005e+001
1.372011e+003,-1.102655e+001
1.372976e+003,-9.737259e+000
1.373940e+003,-8.516556e+000
1.374904e+003,-7.614410e+000
1.375868e+003,-6.917419e+000
1.376833e+003,-6.312302e+000
1.377797e+003,-5.812973e+000
1.378761e+003,-5.540375e+000
1.379725e+003,-5.615067e+000
1.380690e+003,-5.627853e+000
1.381654e+003,-4.533173e+000
1.382618e+003,-3.410721e+000
1.383582e+003,-4.426071e+000
1.384547e+003,-7.260071e+000
1.385511e+003,-8.963989e+000
1.386475e+003,-7.983643e+000
1.387439e+003,-5.571030e+000
1.388403e+003,-3.079178e+000
1.389368e+003,-5.241699e-001
1.390332e+003,-4.103088e-002
1.391296e+003,-2.811005e+000
1.392260e+003,-5.314941e+000
1.393225e+003,-7.034363e+000
1.394189e+003,-8.065674e+000
1.395153e+003,-8.146515e+000
1.396117e+003,-7.695969e+000
1.397082e+003,-7.294128e+000
1.398046e+003,-7.076248e+000
1.399010e+003,-6.719589e+000
1.399974e+003,-5.966034e+000
1.400938e+003,-5.061600e+000
1.401903e+003,-4.545090e+000
1.402867e+003,-4.308228e+000
1.403831e+003,-4.079910e+000
1.404795e+003,-3.602402e+000
1.405760e+003,-3.660049e+000
1.406724e+003,-5.388031e+000
1.407688e+003,-7.442535e+000
1.408652e+003,-7.805389e+000
1.409617e+003,-6.623795e+000
1.410581e+003,-6.084412e+000
1.411545e+003,-7.227203e+000
1.412509e+003,-8.244125e+000
1.413474e+003,-7.127808e+000
1.414438e+003,-5.047379e+000
1.415402e+003,-3.640533e+000
1.416366e+003,-2.884430e+000
1.417330e+003,-2.767975e+000
1.418295e+003,-3.447876e+000
1.419259e+003,-4.159546e+000
1.420223e+003,-3.820938e+000
1.421187e+003,-2.730347e+000
1.422152e+003,-2.586060e+000
1.423116e+003,-3.704086e+000
1.424080e+003,-4.557053e+000
1.425044e+003,-4.845581e+000
1.426009e+003,-4.794220e+000
1.426973e+003,-4.238693e+000
1.427937e+003,-3.543472e+000
1.428901e+003,-3.066528e+000
1.429865e+003,-2.835342e+000
1.430830e+003,-2.803940e+000
1.431794e+003,-2.958527e+000
1.432758e+003,-2.959122e+000
1.433722e+003,-1.913666e+000
1.434687e+003,5.123749e-001
1.435651e+003,1.132477e+000
1.436615e+003,-2.614624e+000
1.437579e+003,-4.848679e+000
1.438544e+003,-3.706268e+000
1.439508e+003,-2.216263e+000
1.440472e+003,-2.482971e+000
1.441436e+003,-3.770889e+000
1.442401e+003,-4.621704e+000
1.443365e+003,-4.644104e+000
1.444329e+003,-3.950485e+000
1.445293e+003,-2.447693e+000
1.446257e+003,-6.614227e-001
1.447222e+003,5.127716e-001
1.448186e+003,1.049957e+000
1.449150e+003,6.287079e-001
1.450114e+003,-1.009537e+000
1.451079e+003,-2.770294e+000
1.452043e+003,-4.713821e+000
1.453007e+003,-5.940872e+000
1.453971e+003,-4.469284e+000
1.454936e+003,-8.493347e-001
1.455900e+003,7.939453e-001
1.456864e+003,-8.481140e-001
1.457828e+003,-2.779266e+000
1.458792e+003,-3.788300e+000
1.459757e+003,-3.992538e+000
1.460721e+003,-2.928375e+000
1.461685e+003,-1.278488e+000
1.462649e+003,-3.468475e-001
1.463614e+003,-4.315491e-001
1.464578e+003,-9.663544e-001
1.465542e+003,-1.614456e+000
1.466506e+003,-2.141342e+000
1.467471e+003,-1.539063e+000
1.468435e+003,7.085419e-001
1.469399e+003,1.928528e+000
1.470363e+003,1.019119e+000
1.471328e+003,2.242737e-001
1.472292e+003,7.293701e-002
1.473256e+003,1.806641e-002
1.474220e+003,-1.533661e-001
1.475184e+003,-4.415588e-001
1.476149e+003,-1.031235e+000
1.477113e+003,-1.890717e+000
1.478077e+003,-2.404953e+000
1.479041e+003,-1.904312e+000
1.480006e+003,-5.826416e-001
1.480970e+003,8.040466e-001
1.481934e+003,2.371521e+000
1.482898e+003,3.075623e+000
1.483863e+003,2.200439e+000
1.484827e+003,1.532639e+000
1.485791e+003,1.872375e+000
1.486755e+003,2.452118e+000
1.487719e+003,2.585358e+000
1.488684e+003,2.255081e+000
1.489648e+003,1.554794e+000
1.490612e+003,5.824738e-001
1.491576e+003,-3.894043e-002
1.492541e+003,6.883240e-002
1.493505e+003,9.702759e-001
1.494469e+003,3.571762e+000
1.495433e+003,7.331650e+000
1.496398e+003,8.924225e+000
1.497362e+003,7.380280e+000
1.498326e+003,5.938354e+000
1.499290e+003,6.228378e+000
1.500255e+003,7.564041e+000
1.501219e+003,9.213654e+000
1.502183e+003,1.106956e+001
1.503147e+003,1.277618e+001
1.504111e+003,1.417305e+001
1.505076e+003,1.588196e+001
1.506040e+003,1.878320e+001
1.507004e+003,2.161800e+001
1.507968e+003,2.274118e+001
1.508933e+003,2.300362e+001
1.509897e+003,2.397575e+001
1.510861e+003,2.611453e+001
1.511825e+003,2.971066e+001
1.512790e+003,3.527974e+001
1.513754e+003,4.159885e+001
1.514718e+003,4.646469e+001
1.515682e+003,4.981708e+001
1.516646e+003,5.264127e+001
1.517611e+003,5.474812e+001
1.518575e+003,5.718433e+001
1.519539e+003,6.153302e+001
1.520503e+003,6.511969e+001
1.521468e+003,6.614069e+001
1.522432e+003,6.563496e+001
1.523396e+003,6.508817e+001
1.524360e+003,6.472871e+001
1.525325e+003,6.393016e+001
1.526289e+003,6.230228e+001
1.527253e+003,6.007643e+001
1.528217e+003,5.766393e+001
1.529182e+003,5.512988e+001
1.530146e+003,5.167609e+001
1.531110e+003,4.657042e+001
1.532074e+003,4.177025e+001
1.533039e+003,3.679417e+001
1.534003e+003,3.253792e+001
1.534967e+003,3.041843e+001
1.535931e+003,2.880293e+001
1.536896e+003,2.540935e+001
1.537860e+003,2.060841e+001
1.538824e+003,1.660150e+001
1.539788e+003,1.447000e+001
1.540752e+003,1.323782e+001
1.541717e+003,1.168616e+001
1.542681e+003,9.989304e+000
1.543645e+003,9.027985e+000
1.544609e+003,9.482468e+000
1.545573e+003,9.114822e+000
1.546538e+003,6.605820e+000
1.547502e+003,4.808868e+000
1.548466e+003,5.194839e+000
1.549430e+003,6.612183e+000
1.550395e+003,8.178116e+000
1.551359e+003,9.541748e+000
1.552323e+003,1.029466e+001
1.553287e+003,1.032799e+001
1.554252e+003,9.994431e+000
1.555216e+003,9.539825e+000
1.556180e+003,9.051483e+000
1.557144e+003,8.767990e+000
1.558109e+003,8.728989e+000
1.559073e+003,8.688293e+000
1.560037e+003,8.888199e+000
1.561001e+003,8.298782e+000
1.561966e+003,5.581039e+000
1.562930e+003,3.076599e+000
1.563894e+003,3.234695e+000
1.564858e+003,5.157562e+000
1.565823e+003,6.770279e+000
1.566787e+003,7.593460e+000
1.567751e+003,7.403824e+000
1.568715e+003,5.771057e+000
1.569679e+003,4.089447e+000
1.570644e+003,4.365265e+000
1.571608e+003,5.820435e+000
1.572572e+003,6.118286e+000
1.573536e+003,5.208450e+000
1.574500e+003,5.005325e+000
1.575465e+003,6.403305e+000
1.576429e+003,8.192001e+000
1.577393e+003,9.563934e+000
1.578357e+003,1.051602e+001
1.579322e+003,1.098322e+001
1.580286e+003,1.103355e+001
1.581250e+003,1.130428e+001
1.582214e+003,1.215898e+001
1.583179e+003,1.258904e+001
1.584143e+003,1.140945e+001
1.585107e+003,9.710205e+000
1.586071e+003,9.067749e+000
1.587036e+003,9.297348e+000
1.588000e+003,9.559387e+000
1.588964e+003,9.612213e+000
1.589928e+003,9.760330e+000
1.590893e+003,1.026370e+001
1.591857e+003,1.094537e+001
1.592821e+003,1.150284e+001
1.593785e+003,1.200159e+001
1.594750e+003,1.279456e+001
1.595714e+003,1.394710e+001
1.596678e+003,1.505122e+001
1.597642e+003,1.629576e+001
1.598606e+003,1.692281e+001
1.599571e+003,1.597168e+001
1.600535e+003,1.436435e+001
1.601499e+003,1.280197e+001
1.602463e+003,1.161259e+001
1.603427e+003,1.205077e+001
1.604392e+003,1.481631e+001
1.605356e+003,1.782550e+001
1.606320e+003,1.892764e+001
1.607284e+003,1.867078e+001
1.608249e+003,1.880325e+001
1.609213e+003,1.937369e+001
1.610177e+003,1.845358e+001
1.611141e+003,1.472166e+001
1.612106e+003,1.199956e+001
1.613070e+003,1.284634e+001
1.614034e+003,1.476059e+001
1.614998e+003,1.666241e+001
1.615963e+003,1.810756e+001
1.616927e+003,1.802637e+001
1.617891e+003,1.656555e+001
1.618855e+003,1.582494e+001
1.619820e+003,1.714293e+001
1.620784e+003,1.900887e+001
1.621748e+003,1.926512e+001
1.622712e+003,1.832672e+001
1.623677e+003,1.815724e+001
1.624641e+003,1.891623e+001
1.625605e+003,1.965527e+001
1.626569e+003,2.004373e+001
1.627533e+003,2.019518e+001
1.628498e+003,2.016542e+001
1.629462e+003,2.012183e+001
1.630426e+003,2.022569e+001
1.631390e+003,2.038263e+001
1.632354e+003,2.037361e+001
1.633319e+003,2.015109e+001
1.634283e+003,1.986285e+001
1.635247e+003,1.956435e+001
1.636211e+003,1.937741e+001
1.637176e+003,1.969048e+001
1.638140e+003,2.048228e+001
1.639104e+003,2.076352e+001
1.640068e+003,2.017470e+001
1.641033e+003,2.027982e+001
1.641997e+003,2.263148e+001
1.642961e+003,2.414577e+001
1.643925e+003,2.270950e+001
1.644890e+003,2.026062e+001
1.645854e+003,1.792812e+001
1.646818e+003,1.635405e+001
1.647782e+003,1.719421e+001
1.648747e+003,2.067400e+001
1.649711e+003,2.326245e+001
1.650675e+003,2.177534e+001
1.651639e+003,1.832320e+001
1.652604e+003,1.716791e+001
1.653568e+003,1.818388e+001
1.654532e+003,1.930635e+001
1.655496e+003,2.066541e+001
1.656460e+003,2.129639e+001
1.657425e+003,2.064305e+001
1.658389e+003,1.961670e+001
1.659353e+003,1.818483e+001
1.660317e+003,1.703590e+001
1.661281e+003,1.730202e+001
1.662246e+003,1.844911e+001
1.663210e+003,1.882477e+001
1.664174e+003,1.792557e+001
1.665138e+003,1.662154e+001
1.666103e+003,1.539674e+001
1.667067e+003,1.453889e+001
1.668031e+003,1.514206e+001
1.668995e+003,1.703285e+001
1.669960e+003,1.712013e+001
1.670924e+003,1.464842e+001
1.671888e+003,1.274757e+001
1.672852e+003,1.239464e+001
1.673817e+003,1.274318e+001
1.674781e+003,1.387299e+001
1.675745e+003,1.490860e+001
1.676709e+003,1.470615e+001
1.677674e+003,1.354068e+001
1.678638e+003,1.231078e+001
1.679602e+003,1.131535e+001
1.680566e+003,1.104739e+001
1.681531e+003,1.238377e+001
1.682495e+003,1.410683e+001
1.683459e+003,1.366243e+001
1.684423e+003,1.147186e+001
1.685387e+003,1.067752e+001
1.686352e+003,1.177176e+001
1.687316e+003,1.268735e+001
1.688280e+003,1.283939e+001
1.689244e+003,1.252177e+001
1.690208e+003,1.153654e+001
1.691173e+003,1.043277e+001
1.692137e+003,9.944016e+000
1.693101e+003,9.942657e+000
1.694065e+003,9.811844e+000
1.695030e+003,9.349518e+000
1.695994e+003,8.548538e+000
1.696958e+003,7.096283e+000
1.697922e+003,5.763367e+000
1.698887e+003,5.708878e+000
1.699851e+003,6.539871e+000
1.700815e+003,7.052063e+000
1.701779e+003,7.103226e+000
1.702744e+003,6.763672e+000
1.703708e+003,5.921082e+000
1.704672e+003,5.599716e+000
1.705636e+003,6.942123e+000
1.706601e+003,8.608490e+000
1.707565e+003,8.427994e+000
1.708529e+003,7.065750e+000
1.709493e+003,6.550049e+000
1.710458e+003,7.206238e+000
1.711422e+003,7.687897e+000
1.712386e+003,7.267090e+000
1.713350e+003,6.803726e+000
1.714314e+003,7.455292e+000
1.715279e+003,8.120941e+000
1.716243e+003,6.147614e+000
1.717207e+003,2.301437e+000
1.718171e+003,1.237335e+000
1.719135e+003,4.248093e+000
1.720100e+003,7.240875e+000
1.721064e+003,7.508377e+000
1.722028e+003,6.287323e+000
1.722992e+003,5.238678e+000
1.723957e+003,4.381927e+000
1.724921e+003,3.247437e+000
1.725885e+003,1.451981e+000
1.726849e+003,9.408112e-001
1.727814e+003,3.208954e+000
1.728778e+003,5.438293e+000
1.729742e+003,6.773849e+000
1.730706e+003,7.172592e+000
1.731671e+003,5.880173e+000
1.732635e+003,3.766678e+000
1.733599e+003,2.789612e+000
1.734563e+003,3.219879e+000
1.735528e+003,3.837585e+000
1.736492e+003,3.962357e+000
1.737456e+003,3.632629e+000
1.738420e+003,2.776932e+000
1.739385e+003,1.739517e+000
1.740349e+003,2.103333e+000
1.741313e+003,4.454453e+000
1.742277e+003,5.464355e+000
1.743241e+003,4.323868e+000
1.744206e+003,3.326782e+000
1.745170e+003,2.676498e+000
1.746134e+003,2.252014e+000
1.747098e+003,1.876755e+000
1.748063e+003,1.754013e+000
1.749027e+003,2.416702e+000
1.749991e+003,3.515198e+000
1.750955e+003,4.251740e+000
1.751919e+003,4.253723e+000
1.752884e+003,3.140076e+000
1.753848e+003,5.420074e-001
1.754812e+003,-1.984528e+000
1.755776e+003,-9.178162e-001
1.756741e+003,3.625046e+000
1.757705e+003,5.687561e+000
1.758669e+003,4.238312e+000
1.759633e+003,3.166458e+000
1.760598e+003,3.102249e+000
1.761562e+003,2.984512e+000
1.762526e+003,2.245071e+000
1.763490e+003,1.722961e+000
1.764455e+003,2.349655e+000
1.765419e+003,3.434586e+000
1.766383e+003,3.908737e+000
1.767347e+003,3.588226e+000
1.768312e+003,2.626328e+000
1.769276e+003,1.049973e+000
1.770240e+003,-1.104126e-001
1.771204e+003,5.064392e-001
1.772168e+003,2.200623e+000
1.773133e+003,3.361389e+000
1.774097e+003,3.995178e+000
1.775061e+003,4.201965e+000
1.776025e+003,3.948380e+000
1.776990e+003,2.872635e+000
1.777954e+003,2.115936e-001
1.778918e+003,-1.629608e+000
1.779882e+003,-1.539459e-001
1.780846e+003,2.388641e+000
1.781811e+003,2.910248e+000
1.782775e+003,1.986481e+000
1.783739e+003,1.524094e+000
1.784703e+003,1.853897e+000
1.785668e+003,2.121613e+000
1.786632e+003,2.113052e+000
1.787596e+003,1.594925e+000
1.788560e+003,-2.483215e-001
1.789525e+003,-2.078094e+000
1.790489e+003,-1.875198e+000
1.791453e+003,-1.135254e-001
1.792417e+003,1.820038e+000
1.793382e+003,3.463928e+000
1.794346e+003,3.790878e+000
1.795310e+003,2.133133e+000
1.796274e+003,4.834290e-001
1.797239e+003,1.384521e+000
1.798203e+003,3.753906e+000
1.799167e+003,3.708786e+000
1.800131e+003,5.144348e-001
1.801095e+003,-1.060638e+000
1.802060e+003,9.365845e-002
1.803024e+003,1.180374e+000
1.803988e+003,1.964111e+000
1.804952e+003,2.501450e+000
1.805917e+003,2.606812e+000
1.806881e+003,2.654617e+000
1.807845e+003,3.189774e+000
1.808809e+003,3.945190e+000
1.809773e+003,4.244827e+000
1.810738e+003,3.995911e+000
1.811702e+003,3.714218e+000
1.812666e+003,3.714569e+000
1.813630e+003,3.710907e+000
1.814595e+003,3.207153e+000
1.815559e+003,2.505920e+000
1.816523e+003,3.219330e+000
1.817487e+003,5.594376e+000
1.818452e+003,6.686600e+000
1.819416e+003,6.091492e+000
1.820380e+003,5.117340e+000
1.821344e+003,3.350220e+000
1.822309e+003,2.248795e+000
1.823273e+003,3.573059e+000
1.824237e+003,5.327103e+000
1.825201e+003,5.209885e+000
1.826166e+003,3.805435e+000
1.827130e+003,2.950745e+000
1.828094e+003,2.937408e+000
1.829058e+003,2.891769e+000
1.830022e+003,2.298264e+000
1.830987e+003,1.891632e+000
1.831951e+003,2.654449e+000
1.832915e+003,3.704086e+000
1.833879e+003,3.531540e+000
1.834844e+003,2.546371e+000
1.835808e+003,2.326355e+000
1.836772e+003,3.004974e+000
1.837736e+003,3.021194e+000
1.838700e+003,1.629333e+000
1.839665e+003,4.189301e-001
1.840629e+003,9.586639e-001
1.841593e+003,2.406876e+000
1.842557e+003,2.846527e+000
1.843522e+003,2.299057e+000
1.844486e+003,2.799591e+000
1.845450e+003,5.502167e+000
1.846414e+003,7.176514e+000
1.847379e+003,7.194946e+000
1.848343e+003,6.830078e+000
1.849307e+003,6.394440e+000
1.850271e+003,5.835617e+000
1.851236e+003,4.955856e+000
1.852200e+003,4.070206e+000
1.853164e+003,3.685196e+000
1.854128e+003,3.578979e+000
1.855093e+003,2.793961e+000
1.856057e+003,1.189514e+000
1.857021e+003,3.833313e-001
1.857985e+003,1.797714e+000
1.858949e+003,4.191254e+000
1.859914e+003,5.628342e+000
1.860878e+003,6.190445e+000
1.861842e+003,6.053619e+000
1.862806e+003,5.173035e+000
1.863771e+003,4.865692e+000
1.864735e+003,5.530487e+000
1.865699e+003,5.740044e+000
1.866663e+003,4.633881e+000
1.867627e+003,3.450951e+000
1.868592e+003,3.098373e+000
1.869556e+003,3.394890e+000
1.870520e+003,4.288353e+000
1.871484e+003,5.645416e+000
1.872449e+003,6.668327e+000
1.873413e+003,7.514465e+000
1.874377e+003,7.884132e+000
1.875341e+003,7.350494e+000
1.876306e+003,6.438713e+000
1.877270e+003,5.020447e+000
1.878234e+003,3.685036e+000
1.879198e+003,2.892578e+000
1.880163e+003,2.743721e+000
1.881127e+003,3.763641e+000
1.882091e+003,5.531181e+000
1.883055e+003,6.245239e+000
1.884020e+003,5.303650e+000
1.884984e+003,4.596428e+000
1.885948e+003,5.890884e+000
1.886912e+003,7.924751e+000
1.887876e+003,8.062637e+000
1.888841e+003,6.514931e+000
1.889805e+003,5.880188e+000
1.890769e+003,6.408409e+000
1.891733e+003,6.459412e+000
1.892698e+003,5.581093e+000
1.893662e+003,4.821320e+000
1.894626e+003,4.450600e+000
1.895590e+003,4.462509e+000
1.896554e+003,5.234138e+000
1.897519e+003,6.171684e+000
1.898483e+003,6.312485e+000
1.899447e+003,5.898643e+000
1.900411e+003,6.254181e+000
1.901376e+003,7.705696e+000
1.902340e+003,8.223404e+000
1.903304e+003,6.023170e+000
1.904268e+003,4.296097e+000
1.905233e+003,5.688683e+000
1.906197e+003,7.870712e+000
1.907161e+003,8.763054e+000
1.908125e+003,8.530212e+000
1.909090e+003,7.178871e+000
1.910054e+003,5.211212e+000
1.911018e+003,4.077751e+000
1.911982e+003,4.281837e+000
1.912947e+003,5.342514e+000
1.913911e+003,6.892235e+000
1.914875e+003,8.382553e+000
1.915839e+003,8.900948e+000
1.916803e+003,8.592346e+000
1.917768e+003,8.501625e+000
1.918732e+003,8.799561e+000
1.919696e+003,8.417305e+000
1.920660e+003,7.037811e+000
1.921625e+003,5.911552e+000
1.922589e+003,4.908737e+000
1.923553e+003,4.757347e+000
1.924517e+003,6.565872e+000
1.925481e+003,8.779251e+000
1.926446e+003,1.034615e+001
1.927410e+003,1.122025e+001
1.928374e+003,1.107096e+001
1.929338e+003,9.977386e+000
1.930303e+003,9.442619e+000
1.931267e+003,1.018800e+001
1.932231e+003,1.070687e+001
1.933195e+003,9.990677e+000
1.934160e+003,9.069542e+000
1.935124e+003,8.786606e+000
1.936088e+003,8.612740e+000
1.937052e+003,7.486130e+000
1.938017e+003,6.166969e+000
1.938981e+003,6.665215e+000
1.939945e+003,8.856186e+000
1.940909e+003,1.067188e+001
1.941874e+003,1.111298e+001
1.942838e+003,1.058044e+001
1.943802e+003,9.441391e+000
1.944766e+003,8.213005e+000
1.945730e+003,7.864059e+000
1.946695e+003,8.229286e+000
1.947659e+003,8.201233e+000
1.948623e+003,7.676125e+000
1.949587e+003,7.866425e+000
1.950552e+003,9.172173e+000
1.951516e+003,1.021368e+001
1.952480e+003,1.050959e+001
1.953444e+003,1.047347e+001
1.954408e+003,1.016293e+001
1.955373e+003,9.827003e+000
1.956337e+003,1.004869e+001
1.957301e+003,1.065778e+001
1.958265e+003,1.071130e+001
1.959230e+003,1.008128e+001
1.960194e+003,9.911667e+000
1.961158e+003,1.077053e+001
1.962122e+003,1.126065e+001
1.963087e+003,1.080679e+001
1.964051e+003,1.019313e+001
1.965015e+003,9.605614e+000
1.965979e+003,9.421860e+000
1.966944e+003,1.036911e+001
1.967908e+003,1.168751e+001
1.968872e+003,1.208788e+001
1.969836e+003,1.145504e+001
1.970801e+003,1.022865e+001
1.971765e+003,8.706886e+000
1.972729e+003,7.993256e+000
1.973693e+003,9.236534e+000
1.974657e+003,1.110814e+001
1.975622e+003,1.144898e+001
1.976586e+003,1.087007e+001
1.977550e+003,1.141911e+001
1.978514e+003,1.278468e+001
1.979479e+003,1.240961e+001
1.980443e+003,1.008174e+001
1.981407e+003,9.348267e+000
1.982371e+003,1.165577e+001
1.983335e+003,1.363707e+001
1.984300e+003,1.259670e+001
1.985264e+003,1.045174e+001
1.986228e+003,1.017023e+001
1.987192e+003,1.143884e+001
1.988157e+003,1.272321e+001
1.989121e+003,1.426649e+001
1.990085e+003,1.461054e+001
1.991049e+003,1.286559e+001
1.992014e+003,1.179995e+001
1.992978e+003,1.229616e+001
1.993942e+003,1.268386e+001
1.994906e+003,1.230795e+001
1.995871e+003,1.172087e+001
1.996835e+003,1.118830e+001
1.997799e+003,1.082628e+001
1.998763e+003,1.066138e+001
1.999728e+003,1.072792e+001
