5.003444e+002,2.252869e+001
5.013087e+002,2.310156e+001
5.022729e+002,2.259473e+001
5.032371e+002,2.159082e+001
5.042014e+002,1.990210e+001
5.051656e+002,1.778931e+001
5.061298e+002,1.589832e+001
5.070941e+002,1.469519e+001
5.080583e+002,1.402722e+001
5.090225e+002,1.300073e+001
5.099868e+002,1.147632e+001
5.109510e+002,9.825073e+000
5.119152e+002,7.703003e+000
5.128795e+002,5.025635e+000
5.138437e+002,4.467285e+000
5.148079e+002,1.018933e+001
5.157722e+002,1.554688e+001
5.167364e+002,1.698181e+001
5.177006e+002,1.432434e+001
5.186649e+002,1.064050e+001
5.196291e+002,1.029614e+001
5.205933e+002,1.184802e+001
5.215576e+002,1.292419e+001
5.225218e+002,1.276001e+001
5.234860e+002,1.141772e+001
5.244503e+002,9.631348e+000
5.254145e+002,8.001099e+000
5.263787e+002,6.988770e+000
5.273430e+002,6.466797e+000
5.283072e+002,6.635498e+000
5.292714e+002,7.786133e+000
5.302357e+002,1.011633e+001
5.311999e+002,1.091968e+001
5.321641e+002,9.974731e+000
5.331284e+002,9.022095e+000
5.340926e+002,9.348633e+000
5.350568e+002,1.121033e+001
5.360211e+002,1.228174e+001
5.369853e+002,1.066479e+001
5.379495e+002,8.460327e+000
5.389138e+002,7.189331e+000
5.398780e+002,7.289307e+000
5.408422e+002,7.919800e+000
5.418065e+002,6.748535e+000
5.427707e+002,4.093262e+000
5.437349e+002,2.410156e+000
5.446992e+002,2.490356e+000
5.456634e+002,3.686890e+000
5.466276e+002,3.932861e+000
5.475919e+002,2.121338e+000
5.485561e+002,1.184814e+000
5.495203e+002,1.082764e+000
5.504846e+002,1.455566e+000
5.514488e+002,2.186768e+000
5.524130e+002,4.021118e+000
5.533773e+002,5.386108e+000
5.543415e+002,4.856323e+000
5.553057e+002,3.855347e+000
5.562700e+002,4.022705e+000
5.572342e+002,6.255615e+000
5.581984e+002,8.942627e+000
5.591627e+002,8.309326e+000
5.601269e+002,5.893188e+000
5.610911e+002,3.893433e+000
5.620554e+002,3.249146e+000
5.630196e+002,3.578125e+000
5.639838e+002,3.650635e+000
5.649481e+002,3.707886e+000
5.659123e+002,3.249634e+000
5.668765e+002,2.531006e+000
5.678408e+002,2.075195e+000
5.688050e+002,2.456299e+000
5.697692e+002,3.848389e+000
5.707335e+002,4.024048e+000
5.716977e+002,2.052246e+000
5.726619e+002,-8.709717e-001
5.736262e+002,-3.087769e+000
5.745904e+002,-3.285034e+000
5.755546e+002,-2.612305e+000
5.765189e+002,-4.279541e+000
5.774831e+002,-7.337891e+000
5.784473e+002,-9.014526e+000
5.794116e+002,-7.180420e+000
5.803758e+002,-1.876465e+000
5.813400e+002,9.584961e-001
5.823043e+002,5.612793e-001
5.832685e+002,-1.603271e+000
5.842327e+002,-5.511108e+000
5.851970e+002,-1.033521e+001
5.861612e+002,-1.328516e+001
5.871254e+002,-1.367114e+001
5.880897e+002,-1.314966e+001
5.890539e+002,-1.224622e+001
5.900181e+002,-1.094653e+001
5.909824e+002,-8.591064e+000
5.919466e+002,-3.781494e+000
5.929108e+002,5.145264e-001
5.938751e+002,1.398071e+000
5.948393e+002,-1.405029e-001
5.958035e+002,-3.022095e+000
5.967678e+002,-6.309937e+000
5.977320e+002,-9.404907e+000
5.986962e+002,-8.745117e+000
5.996605e+002,-4.988525e+000
6.006247e+002,-2.082520e+000
6.015889e+002,-2.190552e+000
6.025532e+002,-4.991455e+000
6.035174e+002,-6.721069e+000
6.044816e+002,-6.638428e+000
6.054459e+002,-5.866089e+000
6.064101e+002,-3.884766e+000
6.073743e+002,-1.479126e+000
6.083386e+002,3.796387e-002
6.093028e+002,-2.502441e-001
6.102670e+002,-7.229004e-001
6.112313e+002,-4.306641e-001
6.121955e+002,4.020996e-001
6.131597e+002,1.558472e+000
6.141240e+002,2.857178e+000
6.150882e+002,4.133301e+000
6.160524e+002,5.348389e+000
6.170167e+002,6.803833e+000
6.179809e+002,7.643677e+000
6.189451e+002,6.977661e+000
6.199094e+002,4.721436e+000
6.208736e+002,2.560669e+000
6.218378e+002,1.648071e+000
6.228021e+002,8.125000e-001
6.237663e+002,2.031250e-001
6.247305e+002,-2.458496e-001
6.256948e+002,-1.002930e+000
6.266590e+002,-3.115112e+000
6.276232e+002,-5.061890e+000
6.285875e+002,-5.128784e+000
6.295517e+002,-4.133911e+000
6.305159e+002,-3.162964e+000
6.314802e+002,-2.971313e+000
6.324444e+002,-3.410889e+000
6.334086e+002,-3.108521e+000
6.343729e+002,-1.880249e+000
6.353371e+002,-2.406006e-001
6.363013e+002,1.763672e+000
6.372656e+002,3.330200e+000
6.382298e+002,2.010254e+000
6.391940e+002,-7.366821e+000
6.401583e+002,-1.318005e+001
6.411225e+002,-1.303137e+001
6.420867e+002,-9.202881e+000
6.430510e+002,-4.293091e+000
6.440152e+002,1.215820e+000
6.449794e+002,4.958862e+000
6.459437e+002,5.947266e+000
6.469079e+002,5.103394e+000
6.478721e+002,2.603149e+000
6.488364e+002,-1.017822e+000
6.498006e+002,-4.451538e+000
6.507648e+002,-5.621094e+000
6.517291e+002,-5.221802e+000
6.526933e+002,-4.119873e+000
6.536575e+002,-2.454224e+000
6.546218e+002,-7.198486e-001
6.555860e+002,1.293945e-001
6.565502e+002,-7.939453e-001
6.575145e+002,-8.524170e-001
6.584787e+002,1.008423e+000
6.594429e+002,2.882080e+000
6.604072e+002,3.035645e+000
6.613714e+002,1.068115e+000
6.623356e+002,-5.810547e-001
6.632999e+002,-1.517334e-001
6.642641e+002,-4.238281e-001
6.652283e+002,-3.588135e+000
6.661926e+002,-8.644775e+000
6.671568e+002,-1.203235e+001
6.681210e+002,-8.958008e+000
6.690853e+002,-2.308838e+000
6.700495e+002,4.451904e-001
6.710137e+002,-6.164551e-001
6.719780e+002,-2.481323e+000
6.729422e+002,-2.060303e+000
6.739064e+002,7.775879e-001
6.748707e+002,3.973877e+000
6.758349e+002,1.007275e+001
6.767991e+002,1.339221e+001
6.777634e+002,1.022473e+001
6.787276e+002,2.055054e+000
6.796918e+002,-3.149292e+000
6.806561e+002,-7.031250e-001
6.816203e+002,2.292236e+000
6.825845e+002,3.621826e+000
6.835488e+002,3.520264e+000
6.845130e+002,2.690430e+000
6.854772e+002,1.656860e+000
6.864415e+002,1.225830e+000
6.874057e+002,2.446655e+000
6.883699e+002,4.166016e+000
6.893342e+002,5.035156e+000
6.902984e+002,4.438843e+000
6.912626e+002,2.789429e+000
6.922269e+002,1.622314e+000
6.931911e+002,1.944092e+000
6.941553e+002,3.237793e+000
6.951196e+002,5.694458e+000
6.960838e+002,7.948730e+000
6.970480e+002,7.966675e+000
6.980123e+002,4.395142e+000
6.989765e+002,1.900513e+000
6.999407e+002,3.128784e+000
7.009050e+002,5.227417e+000
7.018692e+002,5.916138e+000
7.028334e+002,4.367920e+000
7.037977e+002,1.530640e+000
7.047619e+002,-1.653442e+000
7.057261e+002,-3.924316e+000
7.066904e+002,-2.971436e+000
7.076546e+002,1.533081e+000
7.086188e+002,7.121582e+000
7.095831e+002,9.793335e+000
7.105473e+002,7.994385e+000
7.115115e+002,6.817749e+000
7.124758e+002,6.337524e+000
7.134400e+002,5.853516e+000
7.144042e+002,5.636963e+000
7.153685e+002,5.838135e+000
7.163327e+002,4.971802e+000
7.172969e+002,8.886719e-002
7.182612e+002,-3.738403e+000
7.192254e+002,-4.557617e+000
7.201896e+002,-2.925171e+000
7.211539e+002,3.430176e-002
7.221181e+002,3.691162e+000
7.230823e+002,7.372803e+000
7.240466e+002,9.852661e+000
7.250108e+002,1.167725e+001
7.259750e+002,1.223682e+001
7.269393e+002,1.034412e+001
7.279035e+002,5.810913e+000
7.288677e+002,2.540039e+000
7.298320e+002,3.799805e+000
7.307962e+002,4.898438e+000
7.317604e+002,5.162842e+000
7.327247e+002,5.416016e+000
7.336889e+002,6.570068e+000
7.346531e+002,8.402710e+000
7.356174e+002,8.526245e+000
7.365816e+002,4.968384e+000
7.375458e+002,2.098755e+000
7.385101e+002,4.035156e+000
7.394743e+002,1.120898e+001
7.404385e+002,2.007300e+001
7.414028e+002,2.541895e+001
7.423670e+002,2.601331e+001
7.433312e+002,2.349280e+001
7.442955e+002,1.860291e+001
7.452597e+002,1.409485e+001
7.462239e+002,1.267810e+001
7.471882e+002,1.485291e+001
7.481524e+002,1.680554e+001
7.491166e+002,1.638843e+001
7.500809e+002,1.634851e+001
7.510451e+002,1.902405e+001
7.520093e+002,2.323389e+001
7.529736e+002,2.465234e+001
7.539378e+002,2.015576e+001
7.549020e+002,1.571863e+001
7.558663e+002,1.500232e+001
7.568306e+002,1.656934e+001
7.577948e+002,1.840747e+001
7.587590e+002,1.904150e+001
7.597233e+002,1.830872e+001
7.606875e+002,1.668518e+001
7.616517e+002,1.476917e+001
7.626160e+002,1.368848e+001
7.635802e+002,1.418103e+001
7.645444e+002,1.550183e+001
7.655087e+002,1.573047e+001
7.664729e+002,1.340894e+001
7.674371e+002,1.287195e+001
7.684014e+002,1.597961e+001
7.693656e+002,1.903662e+001
7.703298e+002,1.910840e+001
7.712941e+002,1.628711e+001
7.722583e+002,1.449695e+001
7.732225e+002,1.819299e+001
7.741868e+002,2.245593e+001
7.751510e+002,2.276404e+001
7.761152e+002,2.028784e+001
7.770795e+002,1.859143e+001
7.780437e+002,2.076489e+001
7.790079e+002,2.583472e+001
7.799722e+002,2.639771e+001
7.809364e+002,2.237134e+001
7.819006e+002,1.793945e+001
7.828649e+002,1.453918e+001
7.838291e+002,1.255811e+001
7.847933e+002,1.242151e+001
7.857576e+002,1.493713e+001
7.867218e+002,1.598975e+001
7.876860e+002,1.543628e+001
7.886503e+002,1.420251e+001
7.896145e+002,1.230078e+001
7.905787e+002,9.979126e+000
7.915430e+002,9.059570e+000
7.925072e+002,1.247461e+001
7.934714e+002,1.672388e+001
7.944357e+002,1.892114e+001
7.953999e+002,1.923669e+001
7.963641e+002,1.868213e+001
7.973284e+002,1.807080e+001
7.982926e+002,1.736316e+001
7.992568e+002,1.782996e+001
8.002211e+002,1.902356e+001
8.011853e+002,1.893481e+001
8.021495e+002,1.709949e+001
8.031138e+002,1.510974e+001
8.040780e+002,1.599854e+001
8.050422e+002,2.165955e+001
8.060065e+002,2.602319e+001
8.069707e+002,2.605090e+001
8.079349e+002,2.391785e+001
8.088992e+002,2.168945e+001
8.098634e+002,2.052063e+001
8.108276e+002,2.064783e+001
8.117919e+002,2.268762e+001
8.127561e+002,2.449146e+001
8.137203e+002,2.343896e+001
8.146846e+002,1.998438e+001
8.156488e+002,1.670154e+001
8.166130e+002,1.638965e+001
8.175773e+002,1.952283e+001
8.185415e+002,2.165796e+001
8.195057e+002,2.080005e+001
8.204700e+002,2.034241e+001
8.214342e+002,2.209937e+001
8.223984e+002,2.514954e+001
8.233627e+002,2.682556e+001
8.243269e+002,2.563940e+001
8.252911e+002,2.471875e+001
8.262554e+002,2.614331e+001
8.272196e+002,2.839490e+001
8.281838e+002,3.026697e+001
8.291481e+002,3.105273e+001
8.301123e+002,3.022888e+001
8.310765e+002,2.620349e+001
8.320408e+002,1.934790e+001
8.330050e+002,1.592786e+001
8.339692e+002,1.701318e+001
8.349335e+002,1.981665e+001
8.358977e+002,2.214099e+001
8.368619e+002,2.446191e+001
8.378262e+002,2.563745e+001
8.387904e+002,2.355396e+001
8.397546e+002,2.166406e+001
8.407189e+002,2.029614e+001
8.416831e+002,1.995117e+001
8.426473e+002,2.170984e+001
8.436116e+002,2.663538e+001
8.445758e+002,3.174365e+001
8.455400e+002,3.320337e+001
8.465043e+002,3.203650e+001
8.474685e+002,2.926709e+001
8.484327e+002,2.613086e+001
8.493970e+002,2.449707e+001
8.503612e+002,2.683044e+001
8.513254e+002,3.378638e+001
8.522897e+002,3.777759e+001
8.532539e+002,3.734216e+001
8.542181e+002,3.545190e+001
8.551824e+002,3.398328e+001
8.561466e+002,3.363208e+001
8.571108e+002,3.482996e+001
8.580751e+002,3.639160e+001
8.590393e+002,3.806726e+001
8.600035e+002,4.191528e+001
8.609678e+002,4.590625e+001
8.619320e+002,4.747131e+001
8.628962e+002,4.556824e+001
8.638605e+002,4.166858e+001
8.648247e+002,3.630054e+001
8.657889e+002,3.127136e+001
8.667532e+002,3.223364e+001
8.677174e+002,3.989026e+001
8.686816e+002,4.802563e+001
8.696459e+002,4.926917e+001
8.706101e+002,4.264709e+001
8.715743e+002,3.900818e+001
8.725386e+002,3.898279e+001
8.735028e+002,4.086279e+001
8.744670e+002,4.572034e+001
8.754313e+002,5.095422e+001
8.763955e+002,5.172473e+001
8.773597e+002,4.526782e+001
8.783240e+002,3.977271e+001
8.792882e+002,4.240649e+001
8.802524e+002,4.718994e+001
8.812167e+002,4.913965e+001
8.821809e+002,4.732983e+001
8.831451e+002,4.400391e+001
8.841094e+002,4.209497e+001
8.850736e+002,4.211719e+001
8.860378e+002,4.352930e+001
8.870021e+002,4.656506e+001
8.879663e+002,4.870959e+001
8.889305e+002,4.703247e+001
8.898948e+002,4.252576e+001
8.908590e+002,4.164124e+001
8.918232e+002,4.833765e+001
8.927875e+002,5.402954e+001
8.937517e+002,5.614539e+001
8.947159e+002,5.724207e+001
8.956802e+002,5.935437e+001
8.966444e+002,6.243127e+001
8.976086e+002,6.449536e+001
8.985729e+002,6.409314e+001
8.995371e+002,6.218408e+001
9.005013e+002,5.899402e+001
9.014656e+002,5.536182e+001
9.024298e+002,5.367944e+001
9.033940e+002,5.555774e+001
9.043583e+002,5.999304e+001
9.053225e+002,6.292041e+001
9.062867e+002,6.266028e+001
9.072510e+002,6.196008e+001
9.082152e+002,6.163879e+001
9.091794e+002,6.180908e+001
9.101437e+002,6.213440e+001
9.111079e+002,6.248315e+001
9.120721e+002,6.385437e+001
9.130364e+002,6.870422e+001
9.140006e+002,7.190540e+001
9.149648e+002,6.967053e+001
9.159291e+002,6.429468e+001
9.168933e+002,5.995300e+001
9.178575e+002,5.929065e+001
9.188218e+002,6.118628e+001
9.197860e+002,6.363269e+001
9.207502e+002,6.652600e+001
9.217145e+002,6.593445e+001
9.226787e+002,5.967041e+001
9.236429e+002,5.245117e+001
9.246072e+002,5.041614e+001
9.255714e+002,5.414014e+001
9.265356e+002,5.745300e+001
9.274999e+002,6.079443e+001
9.284641e+002,6.144006e+001
9.294283e+002,5.636975e+001
9.303926e+002,4.885291e+001
9.313568e+002,4.447046e+001
9.323210e+002,4.615845e+001
9.332853e+002,5.032349e+001
9.342495e+002,5.215723e+001
9.352137e+002,5.219971e+001
9.361780e+002,5.086511e+001
9.371422e+002,4.880249e+001
9.381064e+002,4.784241e+001
9.390707e+002,5.011340e+001
9.400349e+002,5.577002e+001
9.409991e+002,5.893567e+001
9.419634e+002,5.827844e+001
9.429276e+002,5.690564e+001
9.438918e+002,5.528394e+001
9.448561e+002,5.381470e+001
9.458203e+002,5.301355e+001
9.467845e+002,5.317908e+001
9.477488e+002,5.431555e+001
9.487130e+002,5.700757e+001
9.496772e+002,5.994336e+001
9.506415e+002,6.225952e+001
9.516057e+002,6.377808e+001
9.525699e+002,6.434497e+001
9.535342e+002,6.368420e+001
9.544984e+002,6.188708e+001
9.554626e+002,6.229626e+001
9.564269e+002,6.618823e+001
9.573911e+002,7.014551e+001
9.583553e+002,7.261816e+001
9.593196e+002,7.450586e+001
9.602838e+002,7.788062e+001
9.612480e+002,8.356873e+001
9.622123e+002,8.649463e+001
9.631765e+002,8.373364e+001
9.641407e+002,7.993481e+001
9.651050e+002,7.657568e+001
9.660692e+002,7.351404e+001
9.670334e+002,6.992773e+001
9.679977e+002,6.562122e+001
9.689619e+002,6.236145e+001
9.699261e+002,6.419470e+001
9.708904e+002,6.877905e+001
9.718546e+002,7.053589e+001
9.728188e+002,6.752319e+001
9.737831e+002,6.313110e+001
9.747473e+002,6.221179e+001
9.757115e+002,6.568799e+001
9.766758e+002,6.893420e+001
9.776400e+002,7.432288e+001
9.786042e+002,7.763953e+001
9.795685e+002,7.608960e+001
9.805327e+002,7.173230e+001
9.814969e+002,6.744934e+001
9.824612e+002,6.459863e+001
9.834254e+002,6.353906e+001
9.843896e+002,6.478333e+001
9.853539e+002,6.687463e+001
9.863181e+002,6.845300e+001
9.872823e+002,6.913257e+001
9.882466e+002,6.938879e+001
9.892108e+002,7.018213e+001
9.901750e+002,7.261121e+001
9.911393e+002,7.806055e+001
9.921035e+002,8.804614e+001
9.930677e+002,9.477112e+001
9.940320e+002,9.564966e+001
9.949962e+002,9.623499e+001
9.959604e+002,1.025623e+002
9.969247e+002,1.148575e+002
9.978889e+002,1.256343e+002
9.988531e+002,1.295750e+002
9.998174e+002,1.310597e+002
1.000782e+003,1.334053e+002
1.001746e+003,1.362350e+002
1.002710e+003,1.382441e+002
1.003674e+003,1.388558e+002
1.004639e+003,1.389196e+002
1.005603e+003,1.401094e+002
1.006567e+003,1.423043e+002
1.007531e+003,1.424600e+002
1.008495e+003,1.394425e+002
1.009460e+003,1.369744e+002
1.010424e+003,1.376692e+002
1.011388e+003,1.410461e+002
1.012352e+003,1.450819e+002
1.013317e+003,1.516305e+002
1.014281e+003,1.532616e+002
1.015245e+003,1.448864e+002
1.016209e+003,1.338300e+002
1.017174e+003,1.254338e+002
1.018138e+003,1.201661e+002
1.019102e+003,1.151376e+002
1.020066e+003,1.081060e+002
1.021031e+003,1.003447e+002
1.021995e+003,9.455444e+001
1.022959e+003,8.964233e+001
1.023923e+003,8.341418e+001
1.024887e+003,7.433801e+001
1.025852e+003,6.473621e+001
1.026816e+003,5.893530e+001
1.027780e+003,5.844983e+001
1.028744e+003,5.716272e+001
1.029709e+003,5.142627e+001
1.030673e+003,4.828394e+001
1.031637e+003,5.300403e+001
1.032601e+003,5.987561e+001
1.033566e+003,5.986816e+001
1.034530e+003,5.027454e+001
1.035494e+003,4.042590e+001
1.036458e+003,4.118237e+001
1.037422e+003,4.760059e+001
1.038387e+003,5.203162e+001
1.039351e+003,5.392542e+001
1.040315e+003,5.433691e+001
1.041279e+003,5.417188e+001
1.042244e+003,5.377795e+001
1.043208e+003,5.347864e+001
1.044172e+003,5.237524e+001
1.045136e+003,5.160828e+001
1.046101e+003,5.194568e+001
1.047065e+003,5.251807e+001
1.048029e+003,5.282922e+001
1.048993e+003,5.259167e+001
1.049958e+003,5.122778e+001
1.050922e+003,4.793567e+001
1.051886e+003,4.606177e+001
1.052850e+003,5.044617e+001
1.053814e+003,5.718835e+001
1.054779e+003,6.175415e+001
1.055743e+003,6.281641e+001
1.056707e+003,6.056982e+001
1.057671e+003,5.490906e+001
1.058636e+003,4.565930e+001
1.059600e+003,4.226379e+001
1.060564e+003,5.158118e+001
1.061528e+003,5.817566e+001
1.062493e+003,5.738464e+001
1.063457e+003,5.337927e+001
1.064421e+003,5.126648e+001
1.065385e+003,5.187354e+001
1.066349e+003,5.182874e+001
1.067314e+003,4.822046e+001
1.068278e+003,4.502380e+001
1.069242e+003,4.582593e+001
1.070206e+003,4.896912e+001
1.071171e+003,5.140857e+001
1.072135e+003,5.160791e+001
1.073099e+003,5.051709e+001
1.074063e+003,5.031958e+001
1.075028e+003,5.146228e+001
1.075992e+003,5.077026e+001
1.076956e+003,4.670874e+001
1.077920e+003,4.262988e+001
1.078885e+003,3.946924e+001
1.079849e+003,3.807166e+001
1.080813e+003,4.039807e+001
1.081777e+003,4.769934e+001
1.082741e+003,5.380042e+001
1.083706e+003,5.396375e+001
1.084670e+003,5.196863e+001
1.085634e+003,4.890320e+001
1.086598e+003,4.542334e+001
1.087563e+003,4.232971e+001
1.088527e+003,4.038013e+001
1.089491e+003,3.977893e+001
1.090455e+003,3.997351e+001
1.091420e+003,4.052966e+001
1.092384e+003,4.171533e+001
1.093348e+003,4.320667e+001
1.094312e+003,4.488635e+001
1.095276e+003,4.805823e+001
1.096241e+003,5.213403e+001
1.097205e+003,5.368616e+001
1.098169e+003,5.074536e+001
1.099133e+003,4.830103e+001
1.100098e+003,4.917456e+001
1.101062e+003,5.082874e+001
1.102026e+003,5.187305e+001
1.102990e+003,5.240979e+001
1.103955e+003,5.289832e+001
1.104919e+003,5.351514e+001
1.105883e+003,5.434045e+001
1.106847e+003,5.604028e+001
1.107812e+003,5.852869e+001
1.108776e+003,6.076440e+001
1.109740e+003,6.296570e+001
1.110704e+003,6.441125e+001
1.111668e+003,6.415515e+001
1.112633e+003,6.336816e+001
1.113597e+003,6.584021e+001
1.114561e+003,7.358350e+001
1.115525e+003,7.924561e+001
1.116490e+003,7.873645e+001
1.117454e+003,7.724902e+001
1.118418e+003,7.870435e+001
1.119382e+003,8.287781e+001
1.120347e+003,8.737036e+001
1.121311e+003,9.016406e+001
1.122275e+003,9.054224e+001
1.123239e+003,8.830566e+001
1.124203e+003,8.456848e+001
1.125168e+003,8.206921e+001
1.126132e+003,8.067542e+001
1.127096e+003,8.197461e+001
1.128060e+003,8.774475e+001
1.129025e+003,9.688489e+001
1.129989e+003,1.055986e+002
1.130953e+003,1.145476e+002
1.131917e+003,1.200291e+002
1.132882e+003,1.193993e+002
1.133846e+003,1.178331e+002
1.134810e+003,1.174552e+002
1.135774e+003,1.190482e+002
1.136739e+003,1.229883e+002
1.137703e+003,1.294127e+002
1.138667e+003,1.378973e+002
1.139631e+003,1.481620e+002
1.140595e+003,1.600464e+002
1.141560e+003,1.729618e+002
1.142524e+003,1.873983e+002
1.143488e+003,2.030490e+002
1.144452e+003,2.186757e+002
1.145417e+003,2.350492e+002
1.146381e+003,2.551090e+002
1.147345e+003,2.791019e+002
1.148309e+003,3.058613e+002
1.149274e+003,3.384899e+002
1.150238e+003,3.708127e+002
1.151202e+003,4.002728e+002
1.152166e+003,4.275747e+002
1.153130e+003,4.553872e+002
1.154095e+003,4.838956e+002
1.155059e+003,5.071409e+002
1.156023e+003,5.172772e+002
1.156987e+003,5.151671e+002
1.157952e+003,5.107864e+002
1.158916e+003,5.061044e+002
1.159880e+003,4.962721e+002
1.160844e+003,4.748433e+002
1.161809e+003,4.452649e+002
1.162773e+003,4.175973e+002
1.163737e+003,3.928284e+002
1.164701e+003,3.661368e+002
1.165666e+003,3.320747e+002
1.166630e+003,3.013330e+002
1.167594e+003,2.768838e+002
1.168558e+003,2.584713e+002
1.169522e+003,2.463783e+002
1.170487e+003,2.400070e+002
1.171451e+003,2.369930e+002
1.172415e+003,2.347849e+002
1.173379e+003,2.330957e+002
1.174344e+003,2.317722e+002
1.175308e+003,2.311738e+002
1.176272e+003,2.297600e+002
1.177236e+003,2.278325e+002
1.178201e+003,2.247173e+002
1.179165e+003,2.183994e+002
1.180129e+003,2.083071e+002
1.181093e+003,1.987516e+002
1.182057e+003,1.901436e+002
1.183022e+003,1.838062e+002
1.183986e+003,1.806384e+002
1.184950e+003,1.794143e+002
1.185914e+003,1.798591e+002
1.186879e+003,1.814080e+002
1.187843e+003,1.824731e+002
1.188807e+003,1.814974e+002
1.189771e+003,1.795363e+002
1.190736e+003,1.812327e+002
1.191700e+003,1.871735e+002
1.192664e+003,1.894596e+002
1.193628e+003,1.860669e+002
1.194593e+003,1.815482e+002
1.195557e+003,1.795009e+002
1.196521e+003,1.787297e+002
1.197485e+003,1.748541e+002
1.198449e+003,1.660551e+002
1.199414e+003,1.583130e+002
1.200378e+003,1.557458e+002
1.201342e+003,1.539392e+002
1.202306e+003,1.493180e+002
1.203271e+003,1.429614e+002
1.204235e+003,1.385315e+002
1.205199e+003,1.376724e+002
1.206163e+003,1.373806e+002
1.207128e+003,1.322175e+002
1.208092e+003,1.219043e+002
1.209056e+003,1.144038e+002
1.210020e+003,1.115322e+002
1.210984e+003,1.074823e+002
1.211949e+003,9.883032e+001
1.212913e+003,8.890222e+001
1.213877e+003,8.269666e+001
1.214841e+003,8.060901e+001
1.215806e+003,7.810828e+001
1.216770e+003,7.330457e+001
1.217734e+003,6.750378e+001
1.218698e+003,6.020349e+001
1.219663e+003,5.287366e+001
1.220627e+003,4.759839e+001
1.221591e+003,4.463049e+001
1.222555e+003,4.283801e+001
1.223520e+003,4.134949e+001
1.224484e+003,4.013464e+001
1.225448e+003,3.770850e+001
1.226412e+003,3.215857e+001
1.227376e+003,2.961780e+001
1.228341e+003,3.178625e+001
1.229305e+003,3.446899e+001
1.230269e+003,3.619116e+001
1.231233e+003,3.652136e+001
1.232198e+003,3.440015e+001
1.233162e+003,2.965405e+001
1.234126e+003,2.623535e+001
1.235090e+003,2.722278e+001
1.236055e+003,2.989758e+001
1.237019e+003,3.189612e+001
1.237983e+003,3.293152e+001
1.238947e+003,3.313464e+001
1.239911e+003,3.287549e+001
1.240876e+003,3.212097e+001
1.241840e+003,3.021985e+001
1.242804e+003,2.703809e+001
1.243768e+003,2.583984e+001
1.244733e+003,2.804602e+001
1.245697e+003,3.060645e+001
1.246661e+003,3.235706e+001
1.247625e+003,3.403821e+001
1.248590e+003,3.722144e+001
1.249554e+003,4.163733e+001
1.250518e+003,4.546948e+001
1.251482e+003,4.760901e+001
1.252447e+003,4.798279e+001
1.253411e+003,4.611853e+001
1.254375e+003,4.357458e+001
1.255339e+003,4.289453e+001
1.256303e+003,4.447925e+001
1.257268e+003,4.784692e+001
1.258232e+003,5.253113e+001
1.259196e+003,5.755383e+001
1.260160e+003,6.218835e+001
1.261125e+003,6.709692e+001
1.262089e+003,7.098706e+001
1.263053e+003,7.263232e+001
1.264017e+003,7.318066e+001
1.264982e+003,7.195679e+001
1.265946e+003,7.094897e+001
1.266910e+003,7.253296e+001
1.267874e+003,7.622095e+001
1.268839e+003,7.993628e+001
1.269803e+003,8.239270e+001
1.270767e+003,8.247339e+001
1.271731e+003,7.697400e+001
1.272695e+003,6.649048e+001
1.273660e+003,6.019592e+001
1.274624e+003,5.851672e+001
1.275588e+003,5.772217e+001
1.276552e+003,5.714539e+001
1.277517e+003,5.671399e+001
1.278481e+003,5.536670e+001
1.279445e+003,5.276025e+001
1.280409e+003,5.029932e+001
1.281374e+003,4.814246e+001
1.282338e+003,4.689600e+001
1.283302e+003,4.706836e+001
1.284266e+003,4.792224e+001
1.285230e+003,4.953870e+001
1.286195e+003,5.105835e+001
1.287159e+003,4.986145e+001
1.288123e+003,4.402332e+001
1.289087e+003,3.625171e+001
1.290052e+003,3.376843e+001
1.291016e+003,3.815784e+001
1.291980e+003,4.057544e+001
1.292944e+003,4.078540e+001
1.293909e+003,3.847437e+001
1.294873e+003,3.213647e+001
1.295837e+003,2.496680e+001
1.296801e+003,2.099902e+001
1.297766e+003,2.075305e+001
1.298730e+003,2.244897e+001
1.299694e+003,2.579614e+001
1.300658e+003,2.861157e+001
1.301622e+003,2.798633e+001
1.302587e+003,2.603577e+001
1.303551e+003,2.568872e+001
1.304515e+003,2.769653e+001
1.305479e+003,3.165039e+001
1.306444e+003,3.747961e+001
1.307408e+003,4.365723e+001
1.308372e+003,4.541943e+001
1.309336e+003,4.082031e+001
1.310301e+003,3.762158e+001
1.311265e+003,3.816016e+001
1.312229e+003,3.841943e+001
1.313193e+003,3.687903e+001
1.314157e+003,3.445776e+001
1.315122e+003,3.149927e+001
1.316086e+003,2.847339e+001
1.317050e+003,2.692725e+001
1.318014e+003,2.826941e+001
1.318979e+003,3.091626e+001
1.319943e+003,3.114978e+001
1.320907e+003,2.979358e+001
1.321871e+003,3.211572e+001
1.322836e+003,3.917529e+001
1.323800e+003,4.385913e+001
1.324764e+003,4.009839e+001
1.325728e+003,3.304712e+001
1.326693e+003,3.219702e+001
1.327657e+003,3.760010e+001
1.328621e+003,3.973035e+001
1.329585e+003,3.541333e+001
1.330549e+003,3.217297e+001
1.331514e+003,3.220251e+001
1.332478e+003,3.357532e+001
1.333442e+003,3.594263e+001
1.334406e+003,3.873816e+001
1.335371e+003,4.028479e+001
1.336335e+003,3.959912e+001
1.337299e+003,3.792761e+001
1.338263e+003,3.746594e+001
1.339228e+003,3.844165e+001
1.340192e+003,3.872437e+001
1.341156e+003,3.680835e+001
1.342120e+003,3.638464e+001
1.343084e+003,3.999207e+001
1.344049e+003,4.236182e+001
1.345013e+003,3.801904e+001
1.345977e+003,2.956946e+001
1.346941e+003,2.467041e+001
1.347906e+003,2.609314e+001
1.348870e+003,2.973706e+001
1.349834e+003,3.206287e+001
1.350798e+003,3.350134e+001
1.351763e+003,3.634497e+001
1.352727e+003,4.019055e+001
1.353691e+003,4.153345e+001
1.354655e+003,3.885645e+001
1.355620e+003,3.449207e+001
1.356584e+003,3.044910e+001
1.357548e+003,2.713989e+001
1.358512e+003,2.701453e+001
1.359476e+003,3.140601e+001
1.360441e+003,3.350854e+001
1.361405e+003,3.030139e+001
1.362369e+003,2.656812e+001
1.363333e+003,2.351355e+001
1.364298e+003,2.199438e+001
1.365262e+003,2.385632e+001
1.366226e+003,2.868152e+001
1.367190e+003,3.293042e+001
1.368155e+003,3.344153e+001
1.369119e+003,3.111829e+001
1.370083e+003,2.879443e+001
1.371047e+003,2.653088e+001
1.372011e+003,2.565479e+001
1.372976e+003,2.599353e+001
1.373940e+003,2.649609e+001
1.374904e+003,2.729578e+001
1.375868e+003,2.826538e+001
1.376833e+003,2.899011e+001
1.377797e+003,2.931238e+001
1.378761e+003,2.935291e+001
1.379725e+003,2.915796e+001
1.380690e+003,2.931628e+001
1.381654e+003,3.147046e+001
1.382618e+003,3.409924e+001
1.383582e+003,3.415356e+001
1.384547e+003,3.201892e+001
1.385511e+003,3.172546e+001
1.386475e+003,3.549463e+001
1.387439e+003,4.027246e+001
1.388403e+003,4.138037e+001
1.389368e+003,3.876294e+001
1.390332e+003,3.635571e+001
1.391296e+003,3.416418e+001
1.392260e+003,3.331592e+001
1.393225e+003,3.502844e+001
1.394189e+003,3.664221e+001
1.395153e+003,3.632593e+001
1.396117e+003,3.509155e+001
1.397082e+003,3.491040e+001
1.398046e+003,3.626990e+001
1.399010e+003,3.782983e+001
1.399974e+003,3.799597e+001
1.400938e+003,3.635718e+001
1.401903e+003,3.356177e+001
1.402867e+003,3.083215e+001
1.403831e+003,2.943530e+001
1.404795e+003,2.731848e+001
1.405760e+003,2.755896e+001
1.406724e+003,3.214868e+001
1.407688e+003,3.689368e+001
1.408652e+003,3.788806e+001
1.409617e+003,3.595825e+001
1.410581e+003,3.414087e+001
1.411545e+003,3.352100e+001
1.412509e+003,3.365686e+001
1.413474e+003,3.376782e+001
1.414438e+003,3.355652e+001
1.415402e+003,3.427625e+001
1.416366e+003,3.611768e+001
1.417330e+003,3.675659e+001
1.418295e+003,3.493262e+001
1.419259e+003,3.303357e+001
1.420223e+003,3.400964e+001
1.421187e+003,3.686670e+001
1.422152e+003,3.755408e+001
1.423116e+003,3.575793e+001
1.424080e+003,3.496912e+001
1.425044e+003,3.567126e+001
1.426009e+003,3.682471e+001
1.426973e+003,3.941016e+001
1.427937e+003,4.131348e+001
1.428901e+003,3.881384e+001
1.429865e+003,3.327930e+001
1.430830e+003,3.084375e+001
1.431794e+003,3.519104e+001
1.432758e+003,4.250623e+001
1.433722e+003,4.587988e+001
1.434687e+003,4.572339e+001
1.435651e+003,4.906787e+001
1.436615e+003,5.863733e+001
1.437579e+003,6.322168e+001
1.438544e+003,5.801355e+001
1.439508e+003,5.202576e+001
1.440472e+003,5.251147e+001
1.441436e+003,5.702295e+001
1.442401e+003,5.955640e+001
1.443365e+003,5.848816e+001
1.444329e+003,5.644714e+001
1.445293e+003,5.543250e+001
1.446257e+003,5.519983e+001
1.447222e+003,5.506091e+001
1.448186e+003,5.488770e+001
1.449150e+003,5.445728e+001
1.450114e+003,5.351208e+001
1.451079e+003,5.236841e+001
1.452043e+003,5.212512e+001
1.453007e+003,5.199280e+001
1.453971e+003,4.969128e+001
1.454936e+003,4.544507e+001
1.455900e+003,4.311987e+001
1.456864e+003,4.407886e+001
1.457828e+003,4.629736e+001
1.458792e+003,4.978320e+001
1.459757e+003,5.213220e+001
1.460721e+003,4.991809e+001
1.461685e+003,4.546716e+001
1.462649e+003,4.430469e+001
1.463614e+003,4.780920e+001
1.464578e+003,5.143311e+001
1.465542e+003,5.066309e+001
1.466506e+003,4.713989e+001
1.467471e+003,4.649890e+001
1.468435e+003,4.994067e+001
1.469399e+003,5.405164e+001
1.470363e+003,5.872278e+001
1.471328e+003,6.233179e+001
1.472292e+003,6.512024e+001
1.473256e+003,6.495813e+001
1.474220e+003,5.880383e+001
1.475184e+003,5.052319e+001
1.476149e+003,4.661609e+001
1.477113e+003,4.851733e+001
1.478077e+003,5.191199e+001
1.479041e+003,5.313123e+001
1.480006e+003,5.369788e+001
1.480970e+003,5.749414e+001
1.481934e+003,6.554504e+001
1.482898e+003,6.924219e+001
1.483863e+003,6.473169e+001
1.484827e+003,6.147913e+001
1.485791e+003,6.303162e+001
1.486755e+003,6.702747e+001
1.487719e+003,7.184814e+001
1.488684e+003,7.637708e+001
1.489648e+003,7.897888e+001
1.490612e+003,7.952405e+001
1.491576e+003,8.031372e+001
1.492541e+003,8.262769e+001
1.493505e+003,8.655176e+001
1.494469e+003,9.357336e+001
1.495433e+003,1.023093e+002
1.496398e+003,1.081316e+002
1.497362e+003,1.105725e+002
1.498326e+003,1.134487e+002
1.499290e+003,1.178429e+002
1.500255e+003,1.241637e+002
1.501219e+003,1.331359e+002
1.502183e+003,1.442968e+002
1.503147e+003,1.556328e+002
1.504111e+003,1.661705e+002
1.505076e+003,1.797383e+002
1.506040e+003,2.004851e+002
1.507004e+003,2.236117e+002
1.507968e+003,2.427520e+002
1.508933e+003,2.609008e+002
1.509897e+003,2.848405e+002
1.510861e+003,3.165996e+002
1.511825e+003,3.517677e+002
1.512790e+003,3.860996e+002
1.513754e+003,4.218265e+002
1.514718e+003,4.660139e+002
1.515682e+003,5.179606e+002
1.516646e+003,5.641329e+002
1.517611e+003,6.026394e+002
1.518575e+003,6.393749e+002
1.519539e+003,6.821344e+002
1.520503e+003,7.186917e+002
1.521468e+003,7.430453e+002
1.522432e+003,7.561882e+002
1.523396e+003,7.587080e+002
1.524360e+003,7.520385e+002
1.525325e+003,7.399821e+002
1.526289e+003,7.252756e+002
1.527253e+003,7.068367e+002
1.528217e+003,6.822565e+002
1.529182e+003,6.520410e+002
1.530146e+003,6.180221e+002
1.531110e+003,5.798994e+002
1.532074e+003,5.369738e+002
1.533039e+003,4.853362e+002
1.534003e+003,4.311477e+002
1.534967e+003,3.760266e+002
1.535931e+003,3.232163e+002
1.536896e+003,2.742568e+002
1.537860e+003,2.306636e+002
1.538824e+003,1.946309e+002
1.539788e+003,1.668154e+002
1.540752e+003,1.450414e+002
1.541717e+003,1.270294e+002
1.542681e+003,1.129938e+002
1.543645e+003,1.017596e+002
1.544609e+003,9.466785e+001
1.545573e+003,8.916248e+001
1.546538e+003,8.462720e+001
1.547502e+003,8.049072e+001
1.548466e+003,7.762280e+001
1.549430e+003,7.589233e+001
1.550395e+003,7.563220e+001
1.551359e+003,7.542041e+001
1.552323e+003,7.166846e+001
1.553287e+003,6.354138e+001
1.554252e+003,5.584973e+001
1.555216e+003,5.266687e+001
1.556180e+003,5.284924e+001
1.557144e+003,5.460486e+001
1.558109e+003,5.822522e+001
1.559073e+003,5.946545e+001
1.560037e+003,5.613904e+001
1.561001e+003,5.267505e+001
1.561966e+003,5.174316e+001
1.562930e+003,5.197461e+001
1.563894e+003,5.162878e+001
1.564858e+003,5.068787e+001
1.565823e+003,4.957227e+001
1.566787e+003,4.835181e+001
1.567751e+003,4.796387e+001
1.568715e+003,4.959045e+001
1.569679e+003,5.115796e+001
1.570644e+003,4.915601e+001
1.571608e+003,4.450793e+001
1.572572e+003,4.102112e+001
1.573536e+003,3.923108e+001
1.574500e+003,3.892749e+001
1.575465e+003,3.963684e+001
1.576429e+003,4.192627e+001
1.577393e+003,4.704089e+001
1.578357e+003,5.327209e+001
1.579322e+003,5.812000e+001
1.580286e+003,6.152979e+001
1.581250e+003,6.311719e+001
1.582214e+003,6.240405e+001
1.583179e+003,6.112500e+001
1.584143e+003,6.037354e+001
1.585107e+003,5.917114e+001
1.586071e+003,5.695593e+001
1.587036e+003,5.459937e+001
1.588000e+003,5.222070e+001
1.588964e+003,4.923657e+001
1.589928e+003,4.779761e+001
1.590893e+003,5.049011e+001
1.591857e+003,5.465491e+001
1.592821e+003,5.595471e+001
1.593785e+003,5.512000e+001
1.594750e+003,5.581531e+001
1.595714e+003,5.835779e+001
1.596678e+003,6.128918e+001
1.597642e+003,6.489307e+001
1.598606e+003,6.758533e+001
1.599571e+003,6.822595e+001
1.600535e+003,6.765234e+001
1.601499e+003,6.593567e+001
1.602463e+003,6.348352e+001
1.603427e+003,6.277844e+001
1.604392e+003,6.511023e+001
1.605356e+003,6.751953e+001
1.606320e+003,6.710986e+001
1.607284e+003,6.450317e+001
1.608249e+003,6.088367e+001
1.609213e+003,5.619861e+001
1.610177e+003,5.279272e+001
1.611141e+003,5.140015e+001
1.612106e+003,5.049707e+001
1.613070e+003,5.030383e+001
1.614034e+003,4.928101e+001
1.614998e+003,4.461011e+001
1.615963e+003,3.908044e+001
1.616927e+003,3.795996e+001
1.617891e+003,4.135291e+001
1.618855e+003,4.415576e+001
1.619820e+003,4.301123e+001
1.620784e+003,3.963721e+001
1.621748e+003,3.735400e+001
1.622712e+003,3.683594e+001
1.623677e+003,3.685242e+001
1.624641e+003,3.754468e+001
1.625605e+003,3.832593e+001
1.626569e+003,3.741479e+001
1.627533e+003,3.609485e+001
1.628498e+003,3.611011e+001
1.629462e+003,3.649243e+001
1.630426e+003,3.596802e+001
1.631390e+003,3.493091e+001
1.632354e+003,3.488989e+001
1.633319e+003,3.594214e+001
1.634283e+003,3.584399e+001
1.635247e+003,3.251819e+001
1.636211e+003,2.798840e+001
1.637176e+003,2.640564e+001
1.638140e+003,2.784106e+001
1.639104e+003,2.911194e+001
1.640068e+003,3.001624e+001
1.641033e+003,2.993591e+001
1.641997e+003,2.753223e+001
1.642961e+003,2.648511e+001
1.643925e+003,2.908911e+001
1.644890e+003,3.325195e+001
1.645854e+003,3.818054e+001
1.646818e+003,4.245422e+001
1.647782e+003,4.276099e+001
1.648747e+003,3.835083e+001
1.649711e+003,3.368970e+001
1.650675e+003,3.262903e+001
1.651639e+003,3.454102e+001
1.652604e+003,3.841077e+001
1.653568e+003,4.372021e+001
1.654532e+003,4.454504e+001
1.655496e+003,3.887402e+001
1.656460e+003,3.497583e+001
1.657425e+003,3.751306e+001
1.658389e+003,3.969824e+001
1.659353e+003,3.645837e+001
1.660317e+003,3.197314e+001
1.661281e+003,3.143530e+001
1.662246e+003,3.344739e+001
1.663210e+003,3.257373e+001
1.664174e+003,2.741150e+001
1.665138e+003,2.326477e+001
1.666103e+003,2.487561e+001
1.667067e+003,2.909167e+001
1.668031e+003,2.975085e+001
1.668995e+003,2.728369e+001
1.669960e+003,2.591418e+001
1.670924e+003,2.622656e+001
1.671888e+003,2.729980e+001
1.672852e+003,2.997473e+001
1.673817e+003,3.097754e+001
1.674781e+003,2.583215e+001
1.675745e+003,1.971240e+001
1.676709e+003,1.884399e+001
1.677674e+003,2.206628e+001
1.678638e+003,2.465344e+001
1.679602e+003,2.513086e+001
1.680566e+003,2.438501e+001
1.681531e+003,2.320044e+001
1.682495e+003,2.188647e+001
1.683459e+003,2.013757e+001
1.684423e+003,1.773584e+001
1.685387e+003,1.544336e+001
1.686352e+003,1.341553e+001
1.687316e+003,1.255652e+001
1.688280e+003,1.328955e+001
1.689244e+003,1.495215e+001
1.690208e+003,1.780188e+001
1.691173e+003,2.047400e+001
1.692137e+003,2.163232e+001
1.693101e+003,2.197046e+001
1.694065e+003,2.249841e+001
1.695030e+003,2.291565e+001
1.695994e+003,2.254370e+001
1.696958e+003,2.101306e+001
1.697922e+003,1.910852e+001
1.698887e+003,1.726575e+001
1.699851e+003,1.607813e+001
1.700815e+003,1.734363e+001
1.701779e+003,2.083582e+001
1.702744e+003,2.328076e+001
1.703708e+003,2.425244e+001
1.704672e+003,2.446387e+001
1.705636e+003,2.299048e+001
1.706601e+003,2.069910e+001
1.707565e+003,2.046667e+001
1.708529e+003,2.180933e+001
1.709493e+003,2.165808e+001
1.710458e+003,1.945337e+001
1.711422e+003,1.678833e+001
1.712386e+003,1.412891e+001
1.713350e+003,1.244629e+001
1.714314e+003,1.262219e+001
1.715279e+003,1.306958e+001
1.716243e+003,1.150391e+001
1.717207e+003,8.221558e+000
1.718171e+003,4.702393e+000
1.719135e+003,1.492432e+000
1.720100e+003,6.866455e-001
1.721064e+003,4.194580e+000
1.722028e+003,8.312256e+000
1.722992e+003,7.535767e+000
1.723957e+003,3.804810e+000
1.724921e+003,5.255005e+000
1.725885e+003,1.220972e+001
1.726849e+003,1.516553e+001
1.727814e+003,1.040271e+001
1.728778e+003,6.760498e+000
1.729742e+003,9.495239e+000
1.730706e+003,1.326331e+001
1.731671e+003,1.125281e+001
1.732635e+003,5.541748e+000
1.733599e+003,2.779175e+000
1.734563e+003,4.399048e+000
1.735528e+003,6.923706e+000
1.736492e+003,8.224487e+000
1.737456e+003,8.206665e+000
1.738420e+003,6.512939e+000
1.739385e+003,3.626099e+000
1.740349e+003,3.442017e+000
1.741313e+003,7.708130e+000
1.742277e+003,8.101563e+000
1.743241e+003,6.577148e-001
1.744206e+003,-3.187866e+000
1.745170e+003,-2.921143e-001
1.746134e+003,3.881470e+000
1.747098e+003,7.522583e+000
1.748063e+003,9.816772e+000
1.749027e+003,9.710571e+000
1.749991e+003,7.931396e+000
1.750955e+003,5.773071e+000
1.751919e+003,3.858154e+000
1.752884e+003,3.109253e+000
1.753848e+003,4.334717e+000
1.754812e+003,5.989258e+000
1.755776e+003,5.215332e+000
1.756741e+003,2.660400e+000
1.757705e+003,1.749878e+000
1.758669e+003,2.255249e+000
1.759633e+003,3.614990e+000
1.760598e+003,6.389160e+000
1.761562e+003,8.152344e+000
1.762526e+003,9.201538e+000
1.763490e+003,9.177612e+000
1.764455e+003,6.863159e+000
1.765419e+003,3.975342e+000
1.766383e+003,2.588379e+000
1.767347e+003,2.717285e+000
1.768312e+003,4.076172e+000
1.769276e+003,6.424805e+000
1.770240e+003,6.972900e+000
1.771204e+003,2.644043e+000
1.772168e+003,-3.497925e+000
1.773133e+003,-5.703491e+000
1.774097e+003,-4.311279e+000
1.775061e+003,-2.013306e+000
1.776025e+003,6.538086e-001
1.776990e+003,1.332031e+000
1.777954e+003,-1.121216e+000
1.778918e+003,-2.788818e+000
1.779882e+003,-4.351807e-001
1.780846e+003,2.796265e+000
1.781811e+003,3.412476e+000
1.782775e+003,2.051880e+000
1.783739e+003,-3.109131e-001
1.784703e+003,-3.659058e+000
1.785668e+003,-4.089844e+000
1.786632e+003,1.929443e+000
1.787596e+003,7.236328e+000
1.788560e+003,7.017578e+000
1.789525e+003,4.275879e+000
1.790489e+003,1.248047e+000
1.791453e+003,-1.487549e+000
1.792417e+003,-1.518311e+000
1.793382e+003,1.256714e+000
1.794346e+003,2.067871e+000
1.795310e+003,-1.916748e+000
1.796274e+003,-6.075806e+000
1.797239e+003,-4.437744e+000
1.798203e+003,1.573608e+000
1.799167e+003,5.005859e+000
1.800131e+003,4.119751e+000
1.801095e+003,3.527710e+000
1.802060e+003,5.386963e+000
1.803024e+003,6.503662e+000
1.803988e+003,6.380859e+000
1.804952e+003,4.803345e+000
1.805917e+003,-3.426514e-001
1.806881e+003,-5.326538e+000
1.807845e+003,-5.913940e+000
1.808809e+003,-3.156372e+000
1.809773e+003,3.894043e-002
1.810738e+003,2.735107e+000
1.811702e+003,5.775024e+000
1.812666e+003,9.556763e+000
1.813630e+003,1.181104e+001
1.814595e+003,9.015015e+000
1.815559e+003,2.596558e+000
1.816523e+003,-8.315430e-001
1.817487e+003,-9.174805e-001
1.818452e+003,1.525879e-002
1.819416e+003,2.927246e+000
1.820380e+003,5.454712e+000
1.821344e+003,6.073242e+000
1.822309e+003,6.165527e+000
1.823273e+003,7.728516e+000
1.824237e+003,9.177246e+000
1.825201e+003,7.602417e+000
1.826166e+003,4.174438e+000
1.827130e+003,2.839600e+000
1.828094e+003,3.989136e+000
1.829058e+003,4.199707e+000
1.830022e+003,1.834961e+000
1.830987e+003,-8.054199e-001
1.831951e+003,-2.156738e+000
1.832915e+003,-2.364014e+000
1.833879e+003,-1.115723e+000
1.834844e+003,9.354248e-001
1.835808e+003,1.878052e+000
1.836772e+003,1.580444e+000
1.837736e+003,1.238647e+000
1.838700e+003,1.067749e+000
1.839665e+003,9.573975e-001
1.840629e+003,1.232178e+000
1.841593e+003,1.424072e+000
1.842557e+003,-1.088867e-001
1.843522e+003,-3.363159e+000
1.844486e+003,-5.541260e+000
1.845450e+003,-6.363892e+000
1.846414e+003,-4.951782e+000
1.847379e+003,7.169189e-001
1.848343e+003,3.740112e+000
1.849307e+003,3.928223e-001
1.850271e+003,-3.768188e+000
1.851236e+003,-4.787964e+000
1.852200e+003,-3.439087e+000
1.853164e+003,-7.609863e-001
1.854128e+003,1.423584e+000
1.855093e+003,-9.521484e-002
1.856057e+003,-5.484131e+000
1.857021e+003,-9.735718e+000
1.857985e+003,-8.821899e+000
1.858949e+003,-5.807983e+000
1.859914e+003,-6.610840e+000
1.860878e+003,-9.807983e+000
1.861842e+003,-7.124512e+000
1.862806e+003,1.463867e+000
1.863771e+003,5.917114e+000
1.864735e+003,3.437500e+000
1.865699e+003,9.395752e-001
1.866663e+003,2.328125e+000
1.867627e+003,3.980957e+000
1.868592e+003,1.747925e+000
1.869556e+003,-2.924194e+000
1.870520e+003,-6.694336e+000
1.871484e+003,-9.540649e+000
1.872449e+003,-1.068140e+001
1.873413e+003,-8.063232e+000
1.874377e+003,-4.388916e+000
1.875341e+003,-1.619873e+000
1.876306e+003,5.229492e-001
1.877270e+003,2.295532e+000
1.878234e+003,3.019165e+000
1.879198e+003,1.776855e+000
1.880163e+003,-4.549561e-001
1.881127e+003,-2.203613e+000
1.882091e+003,-2.982910e+000
1.883055e+003,-2.526001e+000
1.884020e+003,-9.243164e-001
1.884984e+003,7.609863e-001
1.885948e+003,1.627319e+000
1.886912e+003,1.701660e+000
1.887876e+003,9.415283e-001
1.888841e+003,-4.542236e-001
1.889805e+003,-5.981445e-001
1.890769e+003,1.013794e+000
1.891733e+003,1.064453e+000
1.892698e+003,-1.797485e+000
1.893662e+003,-4.997803e+000
1.894626e+003,-9.103760e+000
1.895590e+003,-1.092139e+001
1.896554e+003,-6.045166e+000
1.897519e+003,1.321655e+000
1.898483e+003,6.647583e+000
1.899447e+003,9.051514e+000
1.900411e+003,7.462402e+000
1.901376e+003,1.609375e+000
1.902340e+003,-2.508911e+000
1.903304e+003,-1.638672e+000
1.904268e+003,-3.464355e-001
1.905233e+003,-1.036011e+000
1.906197e+003,-2.522827e+000
1.907161e+003,-4.590088e+000
1.908125e+003,-5.788574e+000
1.909090e+003,-2.933960e+000
1.910054e+003,2.374390e+000
1.911018e+003,4.152100e+000
1.911982e+003,1.084961e+000
1.912947e+003,-1.904785e+000
1.913911e+003,-1.381836e+000
1.914875e+003,6.191406e-001
1.915839e+003,6.899414e-001
1.916803e+003,-1.095337e+000
1.917768e+003,-1.785522e+000
1.918732e+003,-6.296387e-001
1.919696e+003,-6.798096e-001
1.920660e+003,-2.640015e+000
1.921625e+003,-2.725464e+000
1.922589e+003,8.828125e-001
1.923553e+003,3.979858e+000
1.924517e+003,3.415039e+000
1.925481e+003,2.385620e+000
1.926446e+003,4.758301e+000
1.927410e+003,8.366943e+000
1.928374e+003,8.211548e+000
1.929338e+003,3.922607e+000
1.930303e+003,1.693115e-001
1.931267e+003,-1.125366e+000
1.932231e+003,-1.225464e+000
1.933195e+003,-8.465576e-001
1.934160e+003,-6.507568e-001
1.935124e+003,-1.573486e+000
1.936088e+003,-2.936890e+000
1.937052e+003,-2.846802e+000
1.938017e+003,-1.866333e+000
1.938981e+003,-2.341187e+000
1.939945e+003,-4.411743e+000
1.940909e+003,-6.417969e+000
1.941874e+003,-7.609131e+000
1.942838e+003,-7.610596e+000
1.943802e+003,-5.493652e+000
1.944766e+003,-1.691040e+000
1.945730e+003,1.996460e+000
1.946695e+003,5.013184e+000
1.947659e+003,6.086548e+000
1.948623e+003,4.925537e+000
1.949587e+003,3.140747e+000
1.950552e+003,8.199463e-001
1.951516e+003,-2.037354e-001
1.952480e+003,1.718872e+000
1.953444e+003,2.634155e+000
1.954408e+003,-2.057617e+000
1.955373e+003,-8.194214e+000
1.956337e+003,-7.926025e+000
1.957301e+003,-3.013794e+000
1.958265e+003,-2.792847e+000
1.959230e+003,-8.320435e+000
1.960194e+003,-1.031006e+001
1.961158e+003,-5.558960e+000
1.962122e+003,-2.197144e+000
1.963087e+003,-3.544800e+000
1.964051e+003,-4.966797e+000
1.965015e+003,-2.750854e+000
1.965979e+003,8.834229e-001
1.966944e+003,3.139038e+000
1.967908e+003,3.995972e+000
1.968872e+003,4.413940e+000
1.969836e+003,4.863770e+000
1.970801e+003,5.686401e+000
1.971765e+003,7.031006e+000
1.972729e+003,8.153931e+000
1.973693e+003,8.459351e+000
1.974657e+003,7.903076e+000
1.975622e+003,5.143311e+000
1.976586e+003,1.493042e+000
1.977550e+003,2.188843e+000
1.978514e+003,6.439209e+000
1.979479e+003,7.737183e+000
1.980443e+003,5.154663e+000
1.981407e+003,2.611450e+000
1.982371e+003,1.751831e+000
1.983335e+003,2.442383e+000
1.984300e+003,4.549194e+000
1.985264e+003,6.064331e+000
1.986228e+003,4.053955e+000
1.987192e+003,-6.020508e-001
1.988157e+003,-3.163452e+000
1.989121e+003,-2.852051e+000
1.990085e+003,-3.334839e+000
1.991049e+003,-6.741455e+000
1.992014e+003,-5.853027e+000
1.992978e+003,5.923462e+000
1.993942e+003,1.352686e+001
1.994906e+003,8.203247e+000
1.995871e+003,7.404785e-001
1.996835e+003,-1.926147e+000
1.997799e+003,-7.529297e-001
1.998763e+003,3.344482e+000
1.999728e+003,8.922852e+000
