5.003444e+002,4.167949e+001
5.013087e+002,4.239554e+001
5.022729e+002,4.253641e+001
5.032371e+002,4.224802e+001
5.042014e+002,4.168860e+001
5.051656e+002,4.092021e+001
5.061298e+002,3.997429e+001
5.070941e+002,3.877769e+001
5.080583e+002,3.707109e+001
5.090225e+002,3.627831e+001
5.099868e+002,3.672081e+001
5.109510e+002,3.739415e+001
5.119152e+002,3.804277e+001
5.128795e+002,3.869695e+001
5.138437e+002,3.861852e+001
5.148079e+002,3.648096e+001
5.157722e+002,3.461420e+001
5.167364e+002,3.445566e+001
5.177006e+002,3.578554e+001
5.186649e+002,3.674408e+001
5.196291e+002,3.442697e+001
5.205933e+002,3.116867e+001
5.215576e+002,2.944411e+001
5.225218e+002,2.937401e+001
5.234860e+002,3.005540e+001
5.244503e+002,3.000021e+001
5.254145e+002,2.906096e+001
5.263787e+002,2.876253e+001
5.273430e+002,2.916684e+001
5.283072e+002,3.015736e+001
5.292714e+002,3.181201e+001
5.302357e+002,3.506984e+001
5.311999e+002,3.623418e+001
5.321641e+002,3.404996e+001
5.331284e+002,3.101237e+001
5.340926e+002,2.879048e+001
5.350568e+002,2.791458e+001
5.360211e+002,2.778040e+001
5.369853e+002,2.865865e+001
5.379495e+002,2.972261e+001
5.389138e+002,3.012724e+001
5.398780e+002,2.957451e+001
5.408422e+002,2.848647e+001
5.418065e+002,2.820152e+001
5.427707e+002,2.855794e+001
5.437349e+002,2.819609e+001
5.446992e+002,2.642815e+001
5.456634e+002,2.386971e+001
5.466276e+002,2.277057e+001
5.475919e+002,2.551523e+001
5.485561e+002,2.690526e+001
5.495203e+002,2.598024e+001
5.504846e+002,2.374895e+001
5.514488e+002,2.151372e+001
5.524130e+002,1.931593e+001
5.533773e+002,1.841522e+001
5.543415e+002,2.028677e+001
5.553057e+002,2.299382e+001
5.562700e+002,2.439238e+001
5.572342e+002,2.316611e+001
5.581984e+002,2.061847e+001
5.591627e+002,2.018881e+001
5.601269e+002,2.113008e+001
5.610911e+002,2.178967e+001
5.620554e+002,2.127173e+001
5.630196e+002,1.966473e+001
5.639838e+002,1.820660e+001
5.649481e+002,1.676341e+001
5.659123e+002,1.566718e+001
5.668765e+002,1.517261e+001
5.678408e+002,1.524991e+001
5.688050e+002,1.567107e+001
5.697692e+002,1.677451e+001
5.707335e+002,1.721545e+001
5.716977e+002,1.632690e+001
5.726619e+002,1.477910e+001
5.736262e+002,1.334059e+001
5.745904e+002,1.246965e+001
5.755546e+002,1.232199e+001
5.765189e+002,1.337431e+001
5.774831e+002,1.490053e+001
5.784473e+002,1.577745e+001
5.794116e+002,1.529590e+001
5.803758e+002,1.363995e+001
5.813400e+002,1.191824e+001
5.823043e+002,9.612518e+000
5.832685e+002,7.967880e+000
5.842327e+002,7.874283e+000
5.851970e+002,9.156189e+000
5.861612e+002,1.012131e+001
5.871254e+002,1.000844e+001
5.880897e+002,9.976669e+000
5.890539e+002,1.025041e+001
5.900181e+002,1.067738e+001
5.909824e+002,1.106012e+001
5.919466e+002,1.141808e+001
5.929108e+002,1.145718e+001
5.938751e+002,1.070399e+001
5.948393e+002,9.567688e+000
5.958035e+002,8.638412e+000
5.967678e+002,8.368210e+000
5.977320e+002,8.769455e+000
5.986962e+002,9.929138e+000
5.996605e+002,1.182449e+001
6.006247e+002,1.297162e+001
6.015889e+002,1.232362e+001
6.025532e+002,1.005380e+001
6.035174e+002,8.534027e+000
6.044816e+002,8.313400e+000
6.054459e+002,8.410934e+000
6.064101e+002,8.847260e+000
6.073743e+002,9.479919e+000
6.083386e+002,1.023260e+001
6.093028e+002,1.139966e+001
6.102670e+002,1.198744e+001
6.112313e+002,1.063457e+001
6.121955e+002,8.559708e+000
6.131597e+002,7.575882e+000
6.141240e+002,8.877975e+000
6.150882e+002,1.156937e+001
6.160524e+002,1.168816e+001
6.170167e+002,9.766464e+000
6.179809e+002,7.485611e+000
6.189451e+002,5.174576e+000
6.199094e+002,2.956680e+000
6.208736e+002,2.252289e+000
6.218378e+002,5.310303e+000
6.228021e+002,7.651199e+000
6.237663e+002,8.837738e+000
6.247305e+002,9.135696e+000
6.256948e+002,8.868103e+000
6.266590e+002,7.753998e+000
6.276232e+002,6.656265e+000
6.285875e+002,6.039902e+000
6.295517e+002,5.902817e+000
6.305159e+002,6.355545e+000
6.314802e+002,7.378174e+000
6.324444e+002,8.576782e+000
6.334086e+002,9.172516e+000
6.343729e+002,9.335297e+000
6.353371e+002,8.814789e+000
6.363013e+002,7.367142e+000
6.372656e+002,5.274597e+000
6.382298e+002,3.626129e+000
6.391940e+002,1.935547e+000
6.401583e+002,1.504761e+000
6.411225e+002,3.607849e+000
6.420867e+002,6.576202e+000
6.430510e+002,8.394455e+000
6.440152e+002,8.324814e+000
6.449794e+002,7.315125e+000
6.459437e+002,5.103989e+000
6.469079e+002,2.908188e+000
6.478721e+002,1.885605e+000
6.488364e+002,2.364029e+000
6.498006e+002,3.507736e+000
6.507648e+002,4.018631e+000
6.517291e+002,3.872452e+000
6.526933e+002,2.766907e+000
6.536575e+002,5.541840e-001
6.546218e+002,-1.906540e+000
6.555860e+002,-2.974060e+000
6.565502e+002,-2.125183e+000
6.575145e+002,-6.824646e-001
6.584787e+002,1.798355e+000
6.594429e+002,4.450470e+000
6.604072e+002,6.937531e+000
6.613714e+002,9.348022e+000
6.623356e+002,1.034476e+001
6.632999e+002,7.656937e+000
6.642641e+002,4.667038e+000
6.652283e+002,3.329926e+000
6.661926e+002,3.715668e+000
6.671568e+002,4.540771e+000
6.681210e+002,4.351242e+000
6.690853e+002,3.219803e+000
6.700495e+002,1.489883e+000
6.710137e+002,-7.408295e-001
6.719780e+002,-2.581680e+000
6.729422e+002,-3.064362e+000
6.739064e+002,-1.932251e+000
6.748707e+002,-1.138260e+000
6.758349e+002,-7.160339e-001
6.767991e+002,-5.259247e-001
6.777634e+002,-3.406525e-001
6.787276e+002,-1.347504e-001
6.796918e+002,-2.920990e-001
6.806561e+002,-1.992645e+000
6.816203e+002,-3.119156e+000
6.825845e+002,-2.200974e+000
6.835488e+002,-2.700043e-001
6.845130e+002,9.279022e-001
6.854772e+002,6.219482e-002
6.864415e+002,-1.856293e+000
6.874057e+002,-3.129547e+000
6.883699e+002,-3.839462e+000
6.893342e+002,-3.387299e+000
6.902984e+002,-1.241989e+000
6.912626e+002,2.151871e+000
6.922269e+002,3.473190e+000
6.931911e+002,2.571564e-001
6.941553e+002,-1.310532e+000
6.951196e+002,5.349731e-001
6.960838e+002,3.647766e+000
6.970480e+002,4.411606e+000
6.980123e+002,9.263000e-001
6.989765e+002,-1.762451e+000
6.999407e+002,-1.251465e+000
7.009050e+002,4.235382e-001
7.018692e+002,1.864807e+000
7.028334e+002,2.487778e+000
7.037977e+002,2.589478e+000
7.047619e+002,2.800323e+000
7.057261e+002,2.876785e+000
7.066904e+002,1.652573e+000
7.076546e+002,-1.055969e+000
7.086188e+002,-3.682678e+000
7.095831e+002,-3.599274e+000
7.105473e+002,5.079041e-001
7.115115e+002,3.034760e+000
7.124758e+002,3.368271e+000
7.134400e+002,3.035248e+000
7.144042e+002,2.724762e+000
7.153685e+002,2.561310e+000
7.163327e+002,2.874847e+000
7.172969e+002,5.132706e+000
7.182612e+002,6.663544e+000
7.192254e+002,5.637482e+000
7.201896e+002,2.949387e+000
7.211539e+002,6.114349e-001
7.221181e+002,3.686676e-001
7.230823e+002,1.348511e+000
7.240466e+002,7.464905e-001
7.250108e+002,-8.904114e-001
7.259750e+002,-1.532562e+000
7.269393e+002,1.161346e-001
7.279035e+002,3.501450e+000
7.288677e+002,5.010498e+000
7.298320e+002,3.209167e+000
7.307962e+002,1.688690e+000
7.317604e+002,1.012573e-001
7.327247e+002,-8.304596e-001
7.336889e+002,3.759155e-001
7.346531e+002,4.956329e+000
7.356174e+002,7.872086e+000
7.365816e+002,5.418762e+000
7.375458e+002,1.609406e+000
7.385101e+002,-9.028320e-001
7.394743e+002,-1.239563e+000
7.404385e+002,-3.178406e-002
7.414028e+002,2.237274e+000
7.423670e+002,4.866959e+000
7.433312e+002,5.781082e+000
7.442955e+002,4.900879e+000
7.452597e+002,3.606079e+000
7.462239e+002,3.464188e+000
7.471882e+002,4.892487e+000
7.481524e+002,5.382431e+000
7.491166e+002,3.930496e+000
7.500809e+002,2.516617e+000
7.510451e+002,1.993530e+000
7.520093e+002,2.170319e+000
7.529736e+002,2.178818e+000
7.539378e+002,1.659103e+000
7.549020e+002,1.126099e+000
7.558663e+002,7.497101e-001
7.568306e+002,5.802155e-001
7.577948e+002,6.656036e-001
7.587590e+002,9.873199e-001
7.597233e+002,1.427124e+000
7.606875e+002,2.153839e+000
7.616517e+002,3.163849e+000
7.626160e+002,2.967712e+000
7.635802e+002,6.311646e-001
7.645444e+002,-2.505234e+000
7.655087e+002,-3.563538e+000
7.664729e+002,-1.466660e+000
7.674371e+002,4.353638e-001
7.684014e+002,2.261414e+000
7.693656e+002,3.549591e+000
7.703298e+002,3.665833e+000
7.712941e+002,2.730667e+000
7.722583e+002,2.130661e+000
7.732225e+002,3.317719e+000
7.741868e+002,4.825806e+000
7.751510e+002,5.627029e+000
7.761152e+002,5.748718e+000
7.770795e+002,5.374634e+000
7.780437e+002,4.636093e+000
7.790079e+002,3.641983e+000
7.799722e+002,4.031082e+000
7.809364e+002,6.059464e+000
7.819006e+002,7.172134e+000
7.828649e+002,5.586624e+000
7.838291e+002,2.432922e+000
7.847933e+002,1.516907e+000
7.857576e+002,4.874619e+000
7.867218e+002,6.836945e+000
7.876860e+002,5.459976e+000
7.886503e+002,3.407623e+000
7.896145e+002,3.070068e+000
7.905787e+002,4.995789e+000
7.915430e+002,7.274811e+000
7.925072e+002,7.776764e+000
7.934714e+002,7.299652e+000
7.944357e+002,6.704666e+000
7.953999e+002,6.198898e+000
7.963641e+002,5.734787e+000
7.973284e+002,5.189255e+000
7.982926e+002,4.533295e+000
7.992568e+002,4.583725e+000
8.002211e+002,5.709961e+000
8.011853e+002,6.214981e+000
8.021495e+002,5.363373e+000
8.031138e+002,3.697144e+000
8.040780e+002,2.610992e+000
8.050422e+002,2.372192e+000
8.060065e+002,2.391159e+000
8.069707e+002,2.283005e+000
8.079349e+002,2.251816e+000
8.088992e+002,2.607376e+000
8.098634e+002,3.481812e+000
8.108276e+002,4.692932e+000
8.117919e+002,6.269272e+000
8.127561e+002,7.525803e+000
8.137203e+002,7.128311e+000
8.146846e+002,5.102509e+000
8.156488e+002,3.013443e+000
8.166130e+002,2.755356e+000
8.175773e+002,4.686890e+000
8.185415e+002,6.105286e+000
8.195057e+002,6.827576e+000
8.204700e+002,7.163422e+000
8.214342e+002,7.137970e+000
8.223984e+002,6.804382e+000
8.233627e+002,6.206726e+000
8.243269e+002,5.116165e+000
8.252911e+002,4.382568e+000
8.262554e+002,4.852921e+000
8.272196e+002,5.602722e+000
8.281838e+002,5.506790e+000
8.291481e+002,4.257660e+000
8.301123e+002,2.643845e+000
8.310765e+002,2.058105e+000
8.320408e+002,2.452530e+000
8.330050e+002,2.878098e+000
8.339692e+002,3.297668e+000
8.349335e+002,3.820465e+000
8.358977e+002,4.719177e+000
8.368619e+002,6.188873e+000
8.378262e+002,7.121567e+000
8.387904e+002,6.905411e+000
8.397546e+002,6.620285e+000
8.407189e+002,6.990448e+000
8.416831e+002,7.376129e+000
8.426473e+002,6.320007e+000
8.436116e+002,2.789139e+000
8.445758e+002,-5.472260e-001
8.455400e+002,-9.656372e-001
8.465043e+002,1.510162e-001
8.474685e+002,1.970612e+000
8.484327e+002,4.108139e+000
8.493970e+002,6.069717e+000
8.503612e+002,6.859482e+000
8.513254e+002,6.212448e+000
8.522897e+002,5.443115e+000
8.532539e+002,4.041656e+000
8.542181e+002,3.009338e+000
8.551824e+002,3.122131e+000
8.561466e+002,4.403900e+000
8.571108e+002,6.106339e+000
8.580751e+002,8.250534e+000
8.590393e+002,9.970459e+000
8.600035e+002,1.108237e+001
8.609678e+002,1.181505e+001
8.619320e+002,1.242599e+001
8.628962e+002,1.299594e+001
8.638605e+002,1.331081e+001
8.648247e+002,1.275552e+001
8.657889e+002,1.179079e+001
8.667532e+002,1.153551e+001
8.677174e+002,1.213428e+001
8.686816e+002,1.306053e+001
8.696459e+002,1.381508e+001
8.706101e+002,1.450673e+001
8.715743e+002,1.462300e+001
8.725386e+002,1.343172e+001
8.735028e+002,1.267130e+001
8.744670e+002,1.285472e+001
8.754313e+002,1.356969e+001
8.763955e+002,1.399019e+001
8.773597e+002,1.367343e+001
8.783240e+002,1.395502e+001
8.792882e+002,1.674651e+001
8.802524e+002,1.979254e+001
8.812167e+002,2.086717e+001
8.821809e+002,1.975003e+001
8.831451e+002,1.792549e+001
8.841094e+002,1.731857e+001
8.850736e+002,1.800911e+001
8.860378e+002,1.882693e+001
8.870021e+002,1.984280e+001
8.879663e+002,2.051419e+001
8.889305e+002,2.020941e+001
8.898948e+002,1.914865e+001
8.908590e+002,1.869397e+001
8.918232e+002,1.938153e+001
8.927875e+002,2.020105e+001
8.937517e+002,2.080104e+001
8.947159e+002,2.152367e+001
8.956802e+002,2.276691e+001
8.966444e+002,2.444180e+001
8.976086e+002,2.585233e+001
8.985729e+002,2.634065e+001
8.995371e+002,2.630428e+001
9.005013e+002,2.619385e+001
9.014656e+002,2.614102e+001
9.024298e+002,2.645673e+001
9.033940e+002,2.736644e+001
9.043583e+002,2.862509e+001
9.053225e+002,2.905104e+001
9.062867e+002,2.755197e+001
9.072510e+002,2.641838e+001
9.082152e+002,2.631169e+001
9.091794e+002,2.646658e+001
9.101437e+002,2.579379e+001
9.111079e+002,2.409201e+001
9.120721e+002,2.313152e+001
9.130364e+002,2.467203e+001
9.140006e+002,2.647922e+001
9.149648e+002,2.735728e+001
9.159291e+002,2.761739e+001
9.168933e+002,2.813660e+001
9.178575e+002,2.945604e+001
9.188218e+002,3.103500e+001
9.197860e+002,3.095703e+001
9.207502e+002,2.911443e+001
9.217145e+002,2.793651e+001
9.226787e+002,2.858313e+001
9.236429e+002,2.970981e+001
9.246072e+002,2.919643e+001
9.255714e+002,2.652257e+001
9.265356e+002,2.445525e+001
9.274999e+002,2.363190e+001
9.284641e+002,2.317230e+001
9.294283e+002,2.287964e+001
9.303926e+002,2.281400e+001
9.313568e+002,2.342813e+001
9.323210e+002,2.504419e+001
9.332853e+002,2.629831e+001
9.342495e+002,2.384036e+001
9.352137e+002,1.973099e+001
9.361780e+002,1.733414e+001
9.371422e+002,1.745258e+001
9.381064e+002,1.866364e+001
9.390707e+002,1.892325e+001
9.400349e+002,1.785649e+001
9.409991e+002,1.754611e+001
9.419634e+002,1.885692e+001
9.429276e+002,1.965410e+001
9.438918e+002,1.933224e+001
9.448561e+002,1.821231e+001
9.458203e+002,1.657710e+001
9.467845e+002,1.426599e+001
9.477488e+002,1.282486e+001
9.487130e+002,1.400485e+001
9.496772e+002,1.604285e+001
9.506415e+002,1.794177e+001
9.516057e+002,1.939156e+001
9.525699e+002,2.028720e+001
9.535342e+002,2.051999e+001
9.544984e+002,2.006854e+001
9.554626e+002,1.898502e+001
9.564269e+002,1.725356e+001
9.573911e+002,1.593730e+001
9.583553e+002,1.522202e+001
9.593196e+002,1.505435e+001
9.602838e+002,1.569667e+001
9.612480e+002,1.758562e+001
9.622123e+002,1.823424e+001
9.631765e+002,1.509264e+001
9.641407e+002,1.248463e+001
9.651050e+002,1.300639e+001
9.660692e+002,1.555473e+001
9.670334e+002,1.747495e+001
9.679977e+002,1.717094e+001
9.689619e+002,1.591907e+001
9.699261e+002,1.614325e+001
9.708904e+002,1.736984e+001
9.718546e+002,1.872914e+001
9.728188e+002,1.998297e+001
9.737831e+002,2.133006e+001
9.747473e+002,2.346170e+001
9.757115e+002,2.692950e+001
9.766758e+002,2.831804e+001
9.776400e+002,2.542697e+001
9.786042e+002,2.334068e+001
9.795685e+002,2.413109e+001
9.805327e+002,2.586159e+001
9.814969e+002,2.577396e+001
9.824612e+002,2.302324e+001
9.834254e+002,1.977489e+001
9.843896e+002,1.785876e+001
9.853539e+002,1.654785e+001
9.863181e+002,1.519147e+001
9.872823e+002,1.366949e+001
9.882466e+002,1.208345e+001
9.892108e+002,1.062703e+001
9.901750e+002,9.497589e+000
9.911393e+002,9.030090e+000
9.921035e+002,9.605881e+000
9.930677e+002,9.571640e+000
9.940320e+002,8.479355e+000
9.949962e+002,7.285873e+000
9.959604e+002,6.700546e+000
9.969247e+002,6.827026e+000
9.978889e+002,7.846130e+000
9.988531e+002,1.071420e+001
9.998174e+002,1.307375e+001
1.000782e+003,1.295694e+001
1.001746e+003,1.182581e+001
1.002710e+003,1.211646e+001
1.003674e+003,1.468550e+001
1.004639e+003,1.782120e+001
1.005603e+003,1.850482e+001
1.006567e+003,1.639090e+001
1.007531e+003,1.383647e+001
1.008495e+003,1.024117e+001
1.009460e+003,7.397018e+000
1.010424e+003,6.802322e+000
1.011388e+003,7.943039e+000
1.012352e+003,8.688782e+000
1.013317e+003,8.785553e+000
1.014281e+003,8.285706e+000
1.015245e+003,6.244492e+000
1.016209e+003,4.454239e+000
1.017174e+003,5.044250e+000
1.018138e+003,7.425125e+000
1.019102e+003,8.678070e+000
1.020066e+003,6.272690e+000
1.021031e+003,1.785675e+000
1.021995e+003,-8.465881e-001
1.022959e+003,-1.988174e+000
1.023923e+003,-1.489090e+000
1.024887e+003,1.323105e+000
1.025852e+003,4.666519e+000
1.026816e+003,5.526306e+000
1.027780e+003,3.299530e+000
1.028744e+003,1.869690e+000
1.029709e+003,2.331604e+000
1.030673e+003,2.615128e+000
1.031637e+003,1.892532e+000
1.032601e+003,6.435394e-001
1.033566e+003,-4.267273e-001
1.034530e+003,-1.028870e+000
1.035494e+003,-1.211502e+000
1.036458e+003,-7.368774e-001
1.037422e+003,-1.609650e-001
1.038387e+003,-7.137909e-001
1.039351e+003,-2.261826e+000
1.040315e+003,-3.162872e+000
1.041279e+003,-2.001785e+000
1.042244e+003,6.779022e-001
1.043208e+003,1.920349e+000
1.044172e+003,5.916443e-001
1.045136e+003,-5.900726e-001
1.046101e+003,-2.200226e+000
1.047065e+003,-2.949524e+000
1.048029e+003,-9.669189e-001
1.048993e+003,2.709824e+000
1.049958e+003,4.082138e+000
1.050922e+003,3.853607e-001
1.051886e+003,-3.579483e+000
1.052850e+003,-1.994827e+000
1.053814e+003,1.825012e+000
1.054779e+003,3.411942e+000
1.055743e+003,1.935059e+000
1.056707e+003,-5.984497e-002
1.057671e+003,5.812836e-001
1.058636e+003,3.858459e+000
1.059600e+003,5.201248e+000
1.060564e+003,3.333847e+000
1.061528e+003,1.795578e+000
1.062493e+003,7.723846e-001
1.063457e+003,2.418671e-001
1.064421e+003,4.662933e-001
1.065385e+003,1.487701e+000
1.066349e+003,2.416412e+000
1.067314e+003,2.700546e+000
1.068278e+003,2.893814e+000
1.069242e+003,3.784988e+000
1.070206e+003,4.799301e+000
1.071171e+003,4.760635e+000
1.072135e+003,3.245956e+000
1.073099e+003,1.138626e+000
1.074063e+003,-2.380371e-003
1.075028e+003,-6.362915e-002
1.075992e+003,4.573059e-001
1.076956e+003,2.385590e+000
1.077920e+003,3.295868e+000
1.078885e+003,1.351898e+000
1.079849e+003,-1.699341e+000
1.080813e+003,-2.385574e+000
1.081777e+003,2.624969e-001
1.082741e+003,2.525513e+000
1.083706e+003,1.288452e+000
1.084670e+003,4.730225e-003
1.085634e+003,1.189941e+000
1.086598e+003,3.722366e+000
1.087563e+003,5.136185e+000
1.088527e+003,4.149826e+000
1.089491e+003,1.887131e+000
1.090455e+003,3.034668e-001
1.091420e+003,-5.999908e-001
1.092384e+003,-1.055359e+000
1.093348e+003,-1.081696e+000
1.094312e+003,-8.224945e-001
1.095276e+003,-5.705261e-002
1.096241e+003,1.055420e+000
1.097205e+003,1.985596e+000
1.098169e+003,2.978592e+000
1.099133e+003,2.590347e+000
1.100098e+003,-2.104874e+000
1.101062e+003,-5.966324e+000
1.102026e+003,-4.700928e+000
1.102990e+003,9.278870e-002
1.103955e+003,4.200851e+000
1.104919e+003,5.025482e+000
1.105883e+003,3.515030e+000
1.106847e+003,1.396683e+000
1.107812e+003,-1.305939e+000
1.108776e+003,-2.734238e+000
1.109740e+003,-2.317474e+000
1.110704e+003,-1.651749e+000
1.111668e+003,-1.982346e+000
1.112633e+003,-2.918655e+000
1.113597e+003,-2.945038e+000
1.114561e+003,-1.525970e+000
1.115525e+003,-3.451691e-001
1.116490e+003,-4.730225e-002
1.117454e+003,-3.120422e-002
1.118418e+003,1.253052e-001
1.119382e+003,4.641113e-001
1.120347e+003,7.740936e-001
1.121311e+003,8.389435e-001
1.122275e+003,6.263275e-001
1.123239e+003,2.413635e-001
1.124203e+003,-1.088257e-001
1.125168e+003,4.094238e-001
1.126132e+003,2.486755e+000
1.127096e+003,3.886734e+000
1.128060e+003,2.126556e+000
1.129025e+003,-1.986496e+000
1.129989e+003,-4.348389e+000
1.130953e+003,-4.253189e+000
1.131917e+003,-3.416718e+000
1.132882e+003,-1.847656e+000
1.133846e+003,-1.763153e-001
1.134810e+003,1.359940e+000
1.135774e+003,2.672958e+000
1.136739e+003,3.601059e+000
1.137703e+003,4.058868e+000
1.138667e+003,4.427902e+000
1.139631e+003,5.545883e+000
1.140595e+003,7.237869e+000
1.141560e+003,8.185944e+000
1.142524e+003,8.249649e+000
1.143488e+003,8.181732e+000
1.144452e+003,8.198044e+000
1.145417e+003,8.429520e+000
1.146381e+003,9.392044e+000
1.147345e+003,1.107080e+001
1.148309e+003,1.347220e+001
1.149274e+003,1.691331e+001
1.150238e+003,2.076920e+001
1.151202e+003,2.504497e+001
1.152166e+003,2.951678e+001
1.153130e+003,3.414937e+001
1.154095e+003,3.871901e+001
1.155059e+003,4.209483e+001
1.156023e+003,4.270671e+001
1.156987e+003,4.071077e+001
1.157952e+003,3.787987e+001
1.158916e+003,3.411555e+001
1.159880e+003,3.109367e+001
1.160844e+003,3.006142e+001
1.161809e+003,2.993329e+001
1.162773e+003,2.853786e+001
1.163737e+003,2.569868e+001
1.164701e+003,2.242226e+001
1.165666e+003,1.828372e+001
1.166630e+003,1.458749e+001
1.167594e+003,1.187482e+001
1.168558e+003,9.853104e+000
1.169522e+003,8.262238e+000
1.170487e+003,6.918625e+000
1.171451e+003,5.365387e+000
1.172415e+003,2.773605e+000
1.173379e+003,-1.425476e-001
1.174344e+003,1.475586e+000
1.175308e+003,8.084900e+000
1.176272e+003,1.195914e+001
1.177236e+003,8.597534e+000
1.178201e+003,2.913895e+000
1.179165e+003,1.638260e+000
1.180129e+003,4.757416e+000
1.181093e+003,5.991608e+000
1.182057e+003,2.698929e+000
1.183022e+003,-5.199890e-001
1.183986e+003,-2.555298e+000
1.184950e+003,-3.297684e+000
1.185914e+003,-1.853729e+000
1.186879e+003,1.142288e+000
1.187843e+003,3.359055e+000
1.188807e+003,2.833054e+000
1.189771e+003,6.543427e-001
1.190736e+003,2.996216e-001
1.191700e+003,1.984451e+000
1.192664e+003,3.277573e+000
1.193628e+003,4.351105e+000
1.194593e+003,4.641922e+000
1.195557e+003,3.335159e+000
1.196521e+003,8.617554e-001
1.197485e+003,-1.246887e+000
1.198449e+003,-2.763901e+000
1.199414e+003,-3.836334e+000
1.200378e+003,-4.726746e+000
1.201342e+003,-5.015198e+000
1.202306e+003,-3.937302e+000
1.203271e+003,-2.160782e+000
1.204235e+003,-9.319153e-001
1.205199e+003,-8.537598e-001
1.206163e+003,-1.497131e+000
1.207128e+003,-2.182861e+000
1.208092e+003,-2.890060e+000
1.209056e+003,-4.096313e+000
1.210020e+003,-5.981720e+000
1.210984e+003,-7.876465e+000
1.211949e+003,-9.982849e+000
1.212913e+003,-1.180591e+001
1.213877e+003,-1.244666e+001
1.214841e+003,-1.187071e+001
1.215806e+003,-1.146875e+001
1.216770e+003,-1.191547e+001
1.217734e+003,-1.249203e+001
1.218698e+003,-1.289345e+001
1.219663e+003,-1.309164e+001
1.220627e+003,-1.279437e+001
1.221591e+003,-1.213597e+001
1.222555e+003,-1.194667e+001
1.223520e+003,-1.302461e+001
1.224484e+003,-1.483784e+001
1.225448e+003,-1.499963e+001
1.226412e+003,-1.213876e+001
1.227376e+003,-1.077858e+001
1.228341e+003,-1.198999e+001
1.229305e+003,-1.350616e+001
1.230269e+003,-1.422081e+001
1.231233e+003,-1.434727e+001
1.232198e+003,-1.432913e+001
1.233162e+003,-1.421933e+001
1.234126e+003,-1.418600e+001
1.235090e+003,-1.470648e+001
1.236055e+003,-1.513956e+001
1.237019e+003,-1.457591e+001
1.237983e+003,-1.339418e+001
1.238947e+003,-1.253494e+001
1.239911e+003,-1.234274e+001
1.240876e+003,-1.245596e+001
1.241840e+003,-1.237631e+001
1.242804e+003,-1.207059e+001
1.243768e+003,-1.206712e+001
1.244733e+003,-1.291939e+001
1.245697e+003,-1.331537e+001
1.246661e+003,-1.275230e+001
1.247625e+003,-1.224844e+001
1.248590e+003,-1.292249e+001
1.249554e+003,-1.420978e+001
1.250518e+003,-1.418484e+001
1.251482e+003,-1.190161e+001
1.252447e+003,-9.564606e+000
1.253411e+003,-1.007600e+001
1.254375e+003,-1.217068e+001
1.255339e+003,-1.319003e+001
1.256303e+003,-1.300551e+001
1.257268e+003,-1.276744e+001
1.258232e+003,-1.333458e+001
1.259196e+003,-1.417758e+001
1.260160e+003,-1.397737e+001
1.261125e+003,-1.246326e+001
1.262089e+003,-1.104799e+001
1.263053e+003,-9.978577e+000
1.264017e+003,-9.092636e+000
1.264982e+003,-8.051163e+000
1.265946e+003,-7.313095e+000
1.266910e+003,-7.432068e+000
1.267874e+003,-8.303757e+000
1.268839e+003,-9.435760e+000
1.269803e+003,-1.050493e+001
1.270767e+003,-1.133330e+001
1.271731e+003,-1.146648e+001
1.272695e+003,-1.087810e+001
1.273660e+003,-1.055721e+001
1.274624e+003,-1.083267e+001
1.275588e+003,-1.097200e+001
1.276552e+003,-1.011938e+001
1.277517e+003,-8.903458e+000
1.278481e+003,-8.776428e+000
1.279445e+003,-9.939102e+000
1.280409e+003,-1.085649e+001
1.281374e+003,-1.102168e+001
1.282338e+003,-1.079967e+001
1.283302e+003,-1.009230e+001
1.284266e+003,-9.344818e+000
1.285230e+003,-8.818924e+000
1.286195e+003,-8.757431e+000
1.287159e+003,-9.830475e+000
1.288123e+003,-1.256429e+001
1.289087e+003,-1.584277e+001
1.290052e+003,-1.632610e+001
1.291016e+003,-1.287395e+001
1.291980e+003,-1.093153e+001
1.292944e+003,-1.170483e+001
1.293909e+003,-1.244698e+001
1.294873e+003,-1.146304e+001
1.295837e+003,-1.005328e+001
1.296801e+003,-1.051068e+001
1.297766e+003,-1.293539e+001
1.298730e+003,-1.455212e+001
1.299694e+003,-1.366620e+001
1.300658e+003,-1.201695e+001
1.301622e+003,-1.120178e+001
1.302587e+003,-1.100586e+001
1.303551e+003,-1.141331e+001
1.304515e+003,-1.229012e+001
1.305479e+003,-1.282651e+001
1.306444e+003,-1.231259e+001
1.307408e+003,-1.120621e+001
1.308372e+003,-1.089221e+001
1.309336e+003,-1.144684e+001
1.310301e+003,-1.262155e+001
1.311265e+003,-1.610820e+001
1.312229e+003,-1.797766e+001
1.313193e+003,-1.574275e+001
1.314157e+003,-1.223341e+001
1.315122e+003,-1.047430e+001
1.316086e+003,-1.074254e+001
1.317050e+003,-1.134398e+001
1.318014e+003,-1.114693e+001
1.318979e+003,-1.051247e+001
1.319943e+003,-1.005634e+001
1.320907e+003,-9.764771e+000
1.321871e+003,-9.827652e+000
1.322836e+003,-1.052156e+001
1.323800e+003,-1.106297e+001
1.324764e+003,-1.072356e+001
1.325728e+003,-1.009605e+001
1.326693e+003,-1.035338e+001
1.327657e+003,-1.159393e+001
1.328621e+003,-1.270071e+001
1.329585e+003,-1.340024e+001
1.330549e+003,-1.332851e+001
1.331514e+003,-1.184825e+001
1.332478e+003,-1.037312e+001
1.333442e+003,-1.041071e+001
1.334406e+003,-1.168047e+001
1.335371e+003,-1.291942e+001
1.336335e+003,-1.333672e+001
1.337299e+003,-1.295525e+001
1.338263e+003,-1.174055e+001
1.339228e+003,-9.464172e+000
1.340192e+003,-8.489960e+000
1.341156e+003,-1.016380e+001
1.342120e+003,-1.107466e+001
1.343084e+003,-1.005920e+001
1.344049e+003,-8.892960e+000
1.345013e+003,-9.162598e+000
1.345977e+003,-1.042725e+001
1.346941e+003,-1.114142e+001
1.347906e+003,-1.074425e+001
1.348870e+003,-1.001700e+001
1.349834e+003,-9.682129e+000
1.350798e+003,-9.552689e+000
1.351763e+003,-8.957748e+000
1.352727e+003,-8.034332e+000
1.353691e+003,-7.870758e+000
1.354655e+003,-9.072311e+000
1.355620e+003,-1.036423e+001
1.356584e+003,-9.923340e+000
1.357548e+003,-7.994904e+000
1.358512e+003,-7.191162e+000
1.359476e+003,-8.220444e+000
1.360441e+003,-9.073166e+000
1.361405e+003,-9.150299e+000
1.362369e+003,-8.938873e+000
1.363333e+003,-8.817856e+000
1.364298e+003,-8.476929e+000
1.365262e+003,-6.785828e+000
1.366226e+003,-4.034943e+000
1.367190e+003,-2.800690e+000
1.368155e+003,-5.448730e+000
1.369119e+003,-1.035864e+001
1.370083e+003,-1.231018e+001
1.371047e+003,-1.030173e+001
1.372011e+003,-9.187729e+000
1.372976e+003,-1.006779e+001
1.373940e+003,-1.055655e+001
1.374904e+003,-9.059814e+000
1.375868e+003,-7.076660e+000
1.376833e+003,-6.940186e+000
1.377797e+003,-8.527267e+000
1.378761e+003,-9.135727e+000
1.379725e+003,-7.281128e+000
1.380690e+003,-5.164032e+000
1.381654e+003,-5.249390e+000
1.382618e+003,-6.359207e+000
1.383582e+003,-6.929123e+000
1.384547e+003,-6.931992e+000
1.385511e+003,-7.215271e+000
1.386475e+003,-8.417099e+000
1.387439e+003,-9.507080e+000
1.388403e+003,-8.448441e+000
1.389368e+003,-5.262527e+000
1.390332e+003,-3.543961e+000
1.391296e+003,-3.680374e+000
1.392260e+003,-4.634048e+000
1.393225e+003,-7.198807e+000
1.394189e+003,-9.367508e+000
1.395153e+003,-9.828659e+000
1.396117e+003,-9.196594e+000
1.397082e+003,-8.339340e+000
1.398046e+003,-7.621628e+000
1.399010e+003,-7.162201e+000
1.399974e+003,-7.140671e+000
1.400938e+003,-7.512527e+000
1.401903e+003,-7.847946e+000
1.402867e+003,-7.934998e+000
1.403831e+003,-7.672684e+000
1.404795e+003,-7.147171e+000
1.405760e+003,-6.420502e+000
1.406724e+003,-5.389648e+000
1.407688e+003,-4.574844e+000
1.408652e+003,-4.558105e+000
1.409617e+003,-5.116165e+000
1.410581e+003,-5.354324e+000
1.411545e+003,-4.871826e+000
1.412509e+003,-4.272903e+000
1.413474e+003,-4.071991e+000
1.414438e+003,-4.357742e+000
1.415402e+003,-5.193787e+000
1.416366e+003,-6.400604e+000
1.417330e+003,-7.567108e+000
1.418295e+003,-8.699631e+000
1.419259e+003,-9.102478e+000
1.420223e+003,-7.476944e+000
1.421187e+003,-4.336060e+000
1.422152e+003,-2.606155e+000
1.423116e+003,-2.551819e+000
1.424080e+003,-2.871094e+000
1.425044e+003,-4.252106e+000
1.426009e+003,-5.001419e+000
1.426973e+003,-3.585526e+000
1.427937e+003,-1.644974e+000
1.428901e+003,-1.336914e+000
1.429865e+003,-2.573715e+000
1.430830e+003,-3.603683e+000
1.431794e+003,-3.308884e+000
1.432758e+003,-2.255905e+000
1.433722e+003,-1.425964e+000
1.434687e+003,-6.910553e-001
1.435651e+003,1.228943e-001
1.436615e+003,1.351990e+000
1.437579e+003,1.477203e+000
1.438544e+003,-6.026154e-001
1.439508e+003,-2.746811e+000
1.440472e+003,-3.422272e+000
1.441436e+003,-3.029266e+000
1.442401e+003,-2.535965e+000
1.443365e+003,-2.247208e+000
1.444329e+003,-1.969742e+000
1.445293e+003,-1.477631e+000
1.446257e+003,-1.029465e+000
1.447222e+003,-1.377045e+000
1.448186e+003,-2.329178e+000
1.449150e+003,-2.629669e+000
1.450114e+003,-1.970062e+000
1.451079e+003,-1.623047e+000
1.452043e+003,-2.538666e+000
1.453007e+003,-3.783096e+000
1.453971e+003,-4.160507e+000
1.454936e+003,-3.764359e+000
1.455900e+003,-3.003830e+000
1.456864e+003,-1.644196e+000
1.457828e+003,-8.627319e-001
1.458792e+003,-1.916595e+000
1.459757e+003,-3.461624e+000
1.460721e+003,-4.973373e+000
1.461685e+003,-5.971451e+000
1.462649e+003,-5.139816e+000
1.463614e+003,-2.336731e+000
1.464578e+003,1.637268e-001
1.465542e+003,2.337189e-001
1.466506e+003,-1.373093e+000
1.467471e+003,-2.246048e+000
1.468435e+003,-1.972168e+000
1.469399e+003,-2.526489e+000
1.470363e+003,-5.784363e+000
1.471328e+003,-7.523315e+000
1.472292e+003,-5.883423e+000
1.473256e+003,-3.550064e+000
1.474220e+003,-1.818985e+000
1.475184e+003,-9.171143e-001
1.476149e+003,-1.130554e+000
1.477113e+003,-2.399368e+000
1.478077e+003,-3.850266e+000
1.479041e+003,-4.568039e+000
1.480006e+003,-4.574875e+000
1.480970e+003,-4.107635e+000
1.481934e+003,-3.182785e+000
1.482898e+003,-2.106186e+000
1.483863e+003,-5.221100e-001
1.484827e+003,6.457214e-001
1.485791e+003,1.194504e+000
1.486755e+003,1.354340e+000
1.487719e+003,1.046448e+000
1.488684e+003,4.629669e-001
1.489648e+003,2.008057e-002
1.490612e+003,-8.229065e-002
1.491576e+003,5.204010e-001
1.492541e+003,2.343323e+000
1.493505e+003,4.557861e+000
1.494469e+003,5.039185e+000
1.495433e+003,4.050095e+000
1.496398e+003,3.990433e+000
1.497362e+003,5.619949e+000
1.498326e+003,7.172928e+000
1.499290e+003,7.693970e+000
1.500255e+003,7.618973e+000
1.501219e+003,6.985443e+000
1.502183e+003,6.100876e+000
1.503147e+003,6.967010e+000
1.504111e+003,1.037175e+001
1.505076e+003,1.371574e+001
1.506040e+003,1.534984e+001
1.507004e+003,1.643503e+001
1.507968e+003,1.813455e+001
1.508933e+003,2.021144e+001
1.509897e+003,2.208299e+001
1.510861e+003,2.379318e+001
1.511825e+003,2.611780e+001
1.512790e+003,2.957613e+001
1.513754e+003,3.365623e+001
1.514718e+003,3.756432e+001
1.515682e+003,4.122754e+001
1.516646e+003,4.491772e+001
1.517611e+003,4.915689e+001
1.518575e+003,5.250998e+001
1.519539e+003,5.430714e+001
1.520503e+003,5.550270e+001
1.521468e+003,5.616895e+001
1.522432e+003,5.664714e+001
1.523396e+003,5.759602e+001
1.524360e+003,5.885995e+001
1.525325e+003,5.956642e+001
1.526289e+003,5.915840e+001
1.527253e+003,5.768053e+001
1.528217e+003,5.508873e+001
1.529182e+003,5.143718e+001
1.530146e+003,4.779630e+001
1.531110e+003,4.411607e+001
1.532074e+003,4.039835e+001
1.533039e+003,3.632491e+001
1.534003e+003,3.218015e+001
1.534967e+003,2.847794e+001
1.535931e+003,2.485796e+001
1.536896e+003,2.038391e+001
1.537860e+003,1.552121e+001
1.538824e+003,1.199881e+001
1.539788e+003,1.058485e+001
1.540752e+003,9.833572e+000
1.541717e+003,7.856918e+000
1.542681e+003,5.109222e+000
1.543645e+003,4.238297e+000
1.544609e+003,6.627884e+000
1.545573e+003,7.615921e+000
1.546538e+003,5.511047e+000
1.547502e+003,3.983795e+000
1.548466e+003,5.136642e+000
1.549430e+003,7.120819e+000
1.550395e+003,7.971024e+000
1.551359e+003,7.774841e+000
1.552323e+003,7.659760e+000
1.553287e+003,8.011398e+000
1.554252e+003,8.034180e+000
1.555216e+003,6.925415e+000
1.556180e+003,5.275269e+000
1.557144e+003,4.707397e+000
1.558109e+003,5.297729e+000
1.559073e+003,4.232315e+000
1.560037e+003,-5.017090e-002
1.561001e+003,-3.103882e+000
1.561966e+003,-2.677872e+000
1.562930e+003,-9.068298e-001
1.563894e+003,5.777588e-001
1.564858e+003,1.620209e+000
1.565823e+003,2.111145e+000
1.566787e+003,2.049835e+000
1.567751e+003,1.861771e+000
1.568715e+003,1.766891e+000
1.569679e+003,1.831146e+000
1.570644e+003,2.221848e+000
1.571608e+003,2.695679e+000
1.572572e+003,2.593613e+000
1.573536e+003,1.937866e+000
1.574500e+003,1.907410e+000
1.575465e+003,3.126907e+000
1.576429e+003,4.618393e+000
1.577393e+003,5.740372e+000
1.578357e+003,6.448257e+000
1.579322e+003,6.462326e+000
1.580286e+003,5.907822e+000
1.581250e+003,6.151016e+000
1.582214e+003,7.829453e+000
1.583179e+003,9.562210e+000
1.584143e+003,1.059572e+001
1.585107e+003,1.075548e+001
1.586071e+003,9.421616e+000
1.587036e+003,7.354858e+000
1.588000e+003,6.786636e+000
1.588964e+003,8.205551e+000
1.589928e+003,9.616333e+000
1.590893e+003,9.575439e+000
1.591857e+003,8.949600e+000
1.592821e+003,9.071747e+000
1.593785e+003,9.823135e+000
1.594750e+003,1.046065e+001
1.595714e+003,1.089374e+001
1.596678e+003,1.082304e+001
1.597642e+003,9.492508e+000
1.598606e+003,8.605942e+000
1.599571e+003,1.027484e+001
1.600535e+003,1.277487e+001
1.601499e+003,1.378993e+001
1.602463e+003,1.332771e+001
1.603427e+003,1.262558e+001
1.604392e+003,1.215076e+001
1.605356e+003,1.190002e+001
1.606320e+003,1.193605e+001
1.607284e+003,1.217882e+001
1.608249e+003,1.243213e+001
1.609213e+003,1.270151e+001
1.610177e+003,1.277512e+001
1.611141e+003,1.258725e+001
1.612106e+003,1.228922e+001
1.613070e+003,1.196082e+001
1.614034e+003,1.150909e+001
1.614998e+003,1.058685e+001
1.615963e+003,9.617584e+000
1.616927e+003,9.236069e+000
1.617891e+003,9.539215e+000
1.618855e+003,1.039728e+001
1.619820e+003,1.174124e+001
1.620784e+003,1.323065e+001
1.621748e+003,1.465898e+001
1.622712e+003,1.611314e+001
1.623677e+003,1.729219e+001
1.624641e+003,1.827240e+001
1.625605e+003,1.852646e+001
1.626569e+003,1.705893e+001
1.627533e+003,1.579320e+001
1.628498e+003,1.633087e+001
1.629462e+003,1.710771e+001
1.630426e+003,1.651767e+001
1.631390e+003,1.511530e+001
1.632354e+003,1.435277e+001
1.633319e+003,1.454437e+001
1.634283e+003,1.489134e+001
1.635247e+003,1.478554e+001
1.636211e+003,1.448486e+001
1.637176e+003,1.462340e+001
1.638140e+003,1.518652e+001
1.639104e+003,1.516455e+001
1.640068e+003,1.428897e+001
1.641033e+003,1.356247e+001
1.641997e+003,1.332487e+001
1.642961e+003,1.325900e+001
1.643925e+003,1.312271e+001
1.644890e+003,1.310373e+001
1.645854e+003,1.327382e+001
1.646818e+003,1.370833e+001
1.647782e+003,1.481606e+001
1.648747e+003,1.661494e+001
1.649711e+003,1.790944e+001
1.650675e+003,1.771526e+001
1.651639e+003,1.661382e+001
1.652604e+003,1.564742e+001
1.653568e+003,1.474535e+001
1.654532e+003,1.332678e+001
1.655496e+003,1.086926e+001
1.656460e+003,9.727005e+000
1.657425e+003,1.157042e+001
1.658389e+003,1.363234e+001
1.659353e+003,1.451228e+001
1.660317e+003,1.475180e+001
1.661281e+003,1.475493e+001
1.662246e+003,1.463817e+001
1.663210e+003,1.465347e+001
1.664174e+003,1.489977e+001
1.665138e+003,1.498157e+001
1.666103e+003,1.461528e+001
1.667067e+003,1.365408e+001
1.668031e+003,1.127171e+001
1.668995e+003,7.723465e+000
1.669960e+003,6.614258e+000
1.670924e+003,8.897598e+000
1.671888e+003,1.078552e+001
1.672852e+003,1.089569e+001
1.673817e+003,1.054825e+001
1.674781e+003,1.078816e+001
1.675745e+003,1.088628e+001
1.676709e+003,9.435959e+000
1.677674e+003,7.138657e+000
1.678638e+003,6.485672e+000
1.679602e+003,8.237686e+000
1.680566e+003,1.018985e+001
1.681531e+003,1.083521e+001
1.682495e+003,1.054385e+001
1.683459e+003,9.558075e+000
1.684423e+003,7.985352e+000
1.685387e+003,6.873077e+000
1.686352e+003,6.361298e+000
1.687316e+003,6.260712e+000
1.688280e+003,6.840988e+000
1.689244e+003,7.182846e+000
1.690208e+003,5.875000e+000
1.691173e+003,4.423889e+000
1.692137e+003,4.949890e+000
1.693101e+003,6.883301e+000
1.694065e+003,7.992783e+000
1.695030e+003,7.644745e+000
1.695994e+003,6.708786e+000
1.696958e+003,5.406052e+000
1.697922e+003,4.280289e+000
1.698887e+003,4.209869e+000
1.699851e+003,4.856949e+000
1.700815e+003,4.899078e+000
1.701779e+003,4.214859e+000
1.702744e+003,4.617935e+000
1.703708e+003,7.247833e+000
1.704672e+003,9.176956e+000
1.705636e+003,7.618530e+000
1.706601e+003,4.576431e+000
1.707565e+003,3.181915e+000
1.708529e+003,3.029495e+000
1.709493e+003,2.530685e+000
1.710458e+003,1.376328e+000
1.711422e+003,9.549408e-001
1.712386e+003,2.516129e+000
1.713350e+003,4.337265e+000
1.714314e+003,5.025024e+000
1.715279e+003,4.921936e+000
1.716243e+003,4.515640e+000
1.717207e+003,3.964111e+000
1.718171e+003,3.835022e+000
1.719135e+003,4.306396e+000
1.720100e+003,3.924057e+000
1.721064e+003,1.279175e+000
1.722028e+003,-1.514053e+000
1.722992e+003,-9.514008e-001
1.723957e+003,2.306458e+000
1.724921e+003,3.862152e+000
1.725885e+003,3.416351e+000
1.726849e+003,2.445862e+000
1.727814e+003,5.735321e-001
1.728778e+003,-6.240234e-001
1.729742e+003,-7.083130e-002
1.730706e+003,1.028290e+000
1.731671e+003,1.564224e+000
1.732635e+003,1.514236e+000
1.733599e+003,1.004456e+000
1.734563e+003,3.585968e-001
1.735528e+003,6.190338e-001
1.736492e+003,2.285553e+000
1.737456e+003,3.932053e+000
1.738420e+003,3.840775e+000
1.739385e+003,2.369308e+000
1.740349e+003,1.021896e+000
1.741313e+003,-3.497925e-001
1.742277e+003,-4.504089e-001
1.743241e+003,2.470947e+000
1.744206e+003,4.001984e+000
1.745170e+003,2.401459e+000
1.746134e+003,5.590057e-001
1.747098e+003,-6.742859e-002
1.748063e+003,8.666992e-003
1.749027e+003,2.465363e-001
1.749991e+003,5.092773e-001
1.750955e+003,7.900391e-001
1.751919e+003,1.052002e+000
1.752884e+003,1.252228e+000
1.753848e+003,1.362900e+000
1.754812e+003,1.164978e+000
1.755776e+003,1.408234e-001
1.756741e+003,-1.572769e+000
1.757705e+003,-2.011292e+000
1.758669e+003,-7.994690e-001
1.759633e+003,3.847809e-001
1.760598e+003,1.748901e+000
1.761562e+003,2.362656e+000
1.762526e+003,1.471603e+000
1.763490e+003,4.259338e-001
1.764455e+003,2.035980e-001
1.765419e+003,4.745178e-001
1.766383e+003,5.893860e-001
1.767347e+003,4.283600e-001
1.768312e+003,2.646484e-001
1.769276e+003,2.025452e-001
1.770240e+003,7.633972e-002
1.771204e+003,-1.304169e-001
1.772168e+003,-3.984070e-001
1.773133e+003,-1.174713e+000
1.774097e+003,-2.315384e+000
1.775061e+003,-2.127075e+000
1.776025e+003,-3.438263e-001
1.776990e+003,1.386414e+000
1.777954e+003,2.916351e+000
1.778918e+003,3.694046e+000
1.779882e+003,2.597351e+000
1.780846e+003,9.226532e-001
1.781811e+003,8.328094e-001
1.782775e+003,1.756683e+000
1.783739e+003,1.623596e+000
1.784703e+003,9.461975e-002
1.785668e+003,-1.529251e+000
1.786632e+003,-3.446838e+000
1.787596e+003,-4.539597e+000
1.788560e+003,-3.254837e+000
1.789525e+003,-9.362640e-001
1.790489e+003,7.613525e-001
1.791453e+003,1.597443e+000
1.792417e+003,1.355759e+000
1.793382e+003,9.179688e-002
1.794346e+003,-1.605957e+000
1.795310e+003,-3.524185e+000
1.796274e+003,-4.741364e+000
1.797239e+003,-3.957016e+000
1.798203e+003,-1.876648e+000
1.799167e+003,-1.211273e+000
1.800131e+003,-2.538177e+000
1.801095e+003,-2.646759e+000
1.802060e+003,-3.795319e-001
1.803024e+003,1.482986e+000
1.803988e+003,2.883331e+000
1.804952e+003,3.444244e+000
1.805917e+003,2.604370e+000
1.806881e+003,1.159409e+000
1.807845e+003,-5.193634e-001
1.808809e+003,-1.937592e+000
1.809773e+003,-2.336792e+000
1.810738e+003,-1.684341e+000
1.811702e+003,-7.215118e-001
1.812666e+003,7.098389e-002
1.813630e+003,8.028717e-001
1.814595e+003,1.662476e+000
1.815559e+003,2.507782e+000
1.816523e+003,2.874390e+000
1.817487e+003,2.781235e+000
1.818452e+003,2.110291e+000
1.819416e+003,4.496765e-001
1.820380e+003,-2.814789e-001
1.821344e+003,1.298355e+000
1.822309e+003,2.502838e+000
1.823273e+003,1.383469e+000
1.824237e+003,-4.329681e-001
1.825201e+003,-1.703583e+000
1.826166e+003,-2.305969e+000
1.827130e+003,-1.967346e+000
1.828094e+003,-7.086945e-001
1.829058e+003,5.485382e-001
1.830022e+003,1.484253e+000
1.830987e+003,2.189850e+000
1.831951e+003,2.830383e+000
1.832915e+003,3.224792e+000
1.833879e+003,2.971130e+000
1.834844e+003,2.250305e+000
1.835808e+003,1.283279e+000
1.836772e+003,3.107910e-001
1.837736e+003,1.072647e+000
1.838700e+003,4.381409e+000
1.839665e+003,6.976868e+000
1.840629e+003,5.676941e+000
1.841593e+003,2.461365e+000
1.842557e+003,1.576996e+000
1.843522e+003,2.971786e+000
1.844486e+003,2.863190e+000
1.845450e+003,-3.067169e-001
1.846414e+003,-1.717560e+000
1.847379e+003,-4.164124e-001
1.848343e+003,1.026978e+000
1.849307e+003,2.028687e+000
1.850271e+003,2.857071e+000
1.851236e+003,4.304230e+000
1.852200e+003,5.455841e+000
1.853164e+003,4.229034e+000
1.854128e+003,1.357361e+000
1.855093e+003,9.822083e-002
1.856057e+003,1.592514e+000
1.857021e+003,3.388382e+000
1.857985e+003,3.354004e+000
1.858949e+003,2.575989e+000
1.859914e+003,3.126358e+000
1.860878e+003,4.699112e+000
1.861842e+003,5.331238e+000
1.862806e+003,4.956482e+000
1.863771e+003,4.785904e+000
1.864735e+003,5.175262e+000
1.865699e+003,4.705612e+000
1.866663e+003,2.142303e+000
1.867627e+003,-1.012878e-001
1.868592e+003,5.083313e-001
1.869556e+003,2.414230e+000
1.870520e+003,2.949081e+000
1.871484e+003,2.225891e+000
1.872449e+003,8.005371e-001
1.873413e+003,-1.566925e+000
1.874377e+003,-2.508545e+000
1.875341e+003,-9.952850e-001
1.876306e+003,1.199524e+000
1.877270e+003,4.062622e+000
1.878234e+003,6.262497e+000
1.879198e+003,6.197891e+000
1.880163e+003,4.671021e+000
1.881127e+003,2.731750e+000
1.882091e+003,1.036667e+000
1.883055e+003,8.992310e-001
1.884020e+003,2.650192e+000
1.884984e+003,4.269608e+000
1.885948e+003,3.891235e+000
1.886912e+003,2.719742e+000
1.887876e+003,3.332092e+000
1.888841e+003,5.508850e+000
1.889805e+003,6.233932e+000
1.890769e+003,5.140503e+000
1.891733e+003,4.625488e+000
1.892698e+003,5.168152e+000
1.893662e+003,5.479645e+000
1.894626e+003,4.955902e+000
1.895590e+003,4.371704e+000
1.896554e+003,4.418900e+000
1.897519e+003,4.681107e+000
1.898483e+003,4.366272e+000
1.899447e+003,3.691437e+000
1.900411e+003,3.979477e+000
1.901376e+003,5.580978e+000
1.902340e+003,6.231842e+000
1.903304e+003,4.410629e+000
1.904268e+003,2.461899e+000
1.905233e+003,1.471222e+000
1.906197e+003,1.426239e+000
1.907161e+003,3.141968e+000
1.908125e+003,5.407150e+000
1.909090e+003,5.810242e+000
1.910054e+003,4.489197e+000
1.911018e+003,3.255890e+000
1.911982e+003,2.847412e+000
1.912947e+003,3.187546e+000
1.913911e+003,4.195709e+000
1.914875e+003,5.122208e+000
1.915839e+003,4.663528e+000
1.916803e+003,3.168839e+000
1.917768e+003,2.982651e+000
1.918732e+003,4.565521e+000
1.919696e+003,4.566010e+000
1.920660e+003,1.664520e+000
1.921625e+003,1.164825e+000
1.922589e+003,6.325470e+000
1.923553e+003,1.049704e+001
1.924517e+003,8.947556e+000
1.925481e+003,6.003433e+000
1.926446e+003,5.421310e+000
1.927410e+003,6.222153e+000
1.928374e+003,6.181122e+000
1.929338e+003,5.194046e+000
1.930303e+003,5.006927e+000
1.931267e+003,6.542984e+000
1.932231e+003,7.778137e+000
1.933195e+003,7.425491e+000
1.934160e+003,6.713196e+000
1.935124e+003,6.771347e+000
1.936088e+003,6.735641e+000
1.937052e+003,5.287735e+000
1.938017e+003,3.097748e+000
1.938981e+003,1.415970e+000
1.939945e+003,6.414032e-001
1.940909e+003,1.238129e+000
1.941874e+003,3.225464e+000
1.942838e+003,5.103317e+000
1.943802e+003,5.552948e+000
1.944766e+003,5.186020e+000
1.945730e+003,4.852768e+000
1.946695e+003,4.617813e+000
1.947659e+003,5.955200e+000
1.948623e+003,9.146561e+000
1.949587e+003,1.027618e+001
1.950552e+003,8.511841e+000
1.951516e+003,6.541931e+000
1.952480e+003,4.865967e+000
1.953444e+003,4.012024e+000
1.954408e+003,4.713562e+000
1.955373e+003,5.973862e+000
1.956337e+003,6.629837e+000
1.957301e+003,6.843231e+000
1.958265e+003,6.781433e+000
1.959230e+003,6.404938e+000
1.960194e+003,6.234253e+000
1.961158e+003,6.106949e+000
1.962122e+003,6.243042e+000
1.963087e+003,6.946472e+000
1.964051e+003,7.675369e+000
1.965015e+003,8.360123e+000
1.965979e+003,8.878708e+000
1.966944e+003,8.814697e+000
1.967908e+003,8.480652e+000
1.968872e+003,8.677017e+000
1.969836e+003,9.343063e+000
1.970801e+003,9.610382e+000
1.971765e+003,9.122452e+000
1.972729e+003,8.237152e+000
1.973693e+003,7.072739e+000
1.974657e+003,6.188065e+000
1.975622e+003,6.450623e+000
1.976586e+003,7.578018e+000
1.977550e+003,9.433502e+000
1.978514e+003,1.165041e+001
1.979479e+003,1.174147e+001
1.980443e+003,9.494232e+000
1.981407e+003,8.218445e+000
1.982371e+003,9.228119e+000
1.983335e+003,1.032372e+001
1.984300e+003,9.699188e+000
1.985264e+003,8.770599e+000
1.986228e+003,9.963669e+000
1.987192e+003,1.260896e+001
1.988157e+003,1.312946e+001
1.989121e+003,1.097244e+001
1.990085e+003,9.756241e+000
1.991049e+003,1.020642e+001
1.992014e+003,1.023392e+001
1.992978e+003,9.066422e+000
1.993942e+003,8.064484e+000
1.994906e+003,7.579117e+000
1.995871e+003,7.538177e+000
1.996835e+003,7.914566e+000
1.997799e+003,8.747406e+000
1.998763e+003,1.050603e+001
1.999728e+003,1.272264e+001
