5.003444e+002,2.896417e+001
5.013087e+002,2.943506e+001
5.022729e+002,2.815344e+001
5.032371e+002,2.612720e+001
5.042014e+002,2.561346e+001
5.051656e+002,2.645258e+001
5.061298e+002,2.755621e+001
5.070941e+002,2.785370e+001
5.080583e+002,2.695251e+001
5.090225e+002,2.633026e+001
5.099868e+002,2.590607e+001
5.109510e+002,2.569989e+001
5.119152e+002,2.574066e+001
5.128795e+002,2.605884e+001
5.138437e+002,2.669885e+001
5.148079e+002,2.874420e+001
5.157722e+002,3.032996e+001
5.167364e+002,3.026440e+001
5.177006e+002,2.850244e+001
5.186649e+002,2.612091e+001
5.196291e+002,2.457245e+001
5.205933e+002,2.375360e+001
5.215576e+002,2.312115e+001
5.225218e+002,2.232452e+001
5.234860e+002,2.120190e+001
5.244503e+002,1.981561e+001
5.254145e+002,1.852808e+001
5.263787e+002,1.731635e+001
5.273430e+002,1.598914e+001
5.283072e+002,1.485938e+001
5.292714e+002,1.422955e+001
5.302357e+002,1.371008e+001
5.311999e+002,1.358496e+001
5.321641e+002,1.531110e+001
5.331284e+002,1.712201e+001
5.340926e+002,1.708716e+001
5.350568e+002,1.417932e+001
5.360211e+002,1.107458e+001
5.369853e+002,1.147565e+001
5.379495e+002,1.287207e+001
5.389138e+002,1.285095e+001
5.398780e+002,1.054272e+001
5.408422e+002,7.062195e+000
5.418065e+002,5.514404e+000
5.427707e+002,5.703308e+000
5.437349e+002,7.025452e+000
5.446992e+002,9.717896e+000
5.456634e+002,1.311774e+001
5.466276e+002,1.501685e+001
5.475919e+002,1.389398e+001
5.485561e+002,1.324097e+001
5.495203e+002,1.351227e+001
5.504846e+002,1.394281e+001
5.514488e+002,1.345947e+001
5.524130e+002,1.147198e+001
5.533773e+002,9.571838e+000
5.543415e+002,8.342346e+000
5.553057e+002,7.702209e+000
5.562700e+002,7.581604e+000
5.572342e+002,7.887573e+000
5.581984e+002,8.406738e+000
5.591627e+002,9.218262e+000
5.601269e+002,1.026569e+001
5.610911e+002,1.092505e+001
5.620554e+002,1.078149e+001
5.630196e+002,9.717285e+000
5.639838e+002,7.790771e+000
5.649481e+002,3.987549e+000
5.659123e+002,8.377075e-001
5.668765e+002,-8.883057e-001
5.678408e+002,-1.202515e+000
5.688050e+002,-5.778809e-001
5.697692e+002,1.345947e+000
5.707335e+002,2.510559e+000
5.716977e+002,1.927246e+000
5.726619e+002,6.456909e-001
5.736262e+002,2.598877e-001
5.745904e+002,2.092896e+000
5.755546e+002,4.448120e+000
5.765189e+002,3.821106e+000
5.774831e+002,1.341248e+000
5.784473e+002,-4.273682e-001
5.794116e+002,3.912964e-001
5.803758e+002,3.653992e+000
5.813400e+002,4.404175e+000
5.823043e+002,1.290894e+000
5.832685e+002,-1.337463e+000
5.842327e+002,-1.356873e+000
5.851970e+002,1.029724e+000
5.861612e+002,3.034668e+000
5.871254e+002,3.144958e+000
5.880897e+002,3.678223e+000
5.890539e+002,5.442627e+000
5.900181e+002,7.656433e+000
5.909824e+002,9.152161e+000
5.919466e+002,9.343018e+000
5.929108e+002,8.491882e+000
5.938751e+002,6.492493e+000
5.948393e+002,4.057983e+000
5.958035e+002,2.402222e+000
5.967678e+002,2.443726e+000
5.977320e+002,4.040833e+000
5.986962e+002,5.221436e+000
5.996605e+002,5.712952e+000
6.006247e+002,5.548157e+000
6.015889e+002,4.399658e+000
6.025532e+002,2.420959e+000
6.035174e+002,1.253906e+000
6.044816e+002,2.605591e+000
6.054459e+002,3.033203e+000
6.064101e+002,1.172485e+000
6.073743e+002,-1.849304e+000
6.083386e+002,-4.068787e+000
6.093028e+002,-4.633789e+000
6.102670e+002,-3.380005e+000
6.112313e+002,9.531860e-001
6.121955e+002,6.146240e+000
6.131597e+002,8.997131e+000
6.141240e+002,7.365112e+000
6.150882e+002,2.686890e+000
6.160524e+002,1.614441e+000
6.170167e+002,3.655823e+000
6.179809e+002,5.722473e+000
6.189451e+002,6.131531e+000
6.199094e+002,5.013245e+000
6.208736e+002,4.657227e+000
6.218378e+002,7.563904e+000
6.228021e+002,9.003052e+000
6.237663e+002,8.012695e+000
6.247305e+002,5.557983e+000
6.256948e+002,2.884094e+000
6.266590e+002,-2.617798e-001
6.276232e+002,-2.702209e+000
6.285875e+002,-3.653137e+000
6.295517e+002,-3.364868e+000
6.305159e+002,-1.728027e+000
6.314802e+002,1.080017e+000
6.324444e+002,3.939392e+000
6.334086e+002,3.539001e+000
6.343729e+002,1.177429e+000
6.353371e+002,-6.053467e-001
6.363013e+002,-9.570923e-001
6.372656e+002,-3.594971e-001
6.382298e+002,-2.385864e-001
6.391940e+002,-1.008667e+000
6.401583e+002,-2.064758e+000
6.411225e+002,-3.170410e+000
6.420867e+002,-3.963806e+000
6.430510e+002,-4.299561e+000
6.440152e+002,-4.418518e+000
6.449794e+002,-4.334473e+000
6.459437e+002,-3.521545e+000
6.469079e+002,-2.871399e+000
6.478721e+002,-3.270081e+000
6.488364e+002,-4.799561e+000
6.498006e+002,-6.378601e+000
6.507648e+002,-5.992554e+000
6.517291e+002,-4.433105e+000
6.526933e+002,-3.362671e+000
6.536575e+002,-3.128418e+000
6.546218e+002,-3.308960e+000
6.555860e+002,-3.021423e+000
6.565502e+002,-1.667847e+000
6.575145e+002,-1.366699e+000
6.584787e+002,-3.646912e+000
6.594429e+002,-5.594055e+000
6.604072e+002,-4.214417e+000
6.613714e+002,1.354126e+000
6.623356e+002,5.704224e+000
6.632999e+002,5.612366e+000
6.642641e+002,3.813721e+000
6.652283e+002,9.750977e-001
6.661926e+002,-2.048523e+000
6.671568e+002,-4.162842e+000
6.681210e+002,-4.024231e+000
6.690853e+002,-2.337891e+000
6.700495e+002,-5.051880e-001
6.710137e+002,1.361938e+000
6.719780e+002,2.344971e+000
6.729422e+002,1.203674e+000
6.739064e+002,-2.957703e+000
6.748707e+002,-4.435669e+000
6.758349e+002,-1.166260e+000
6.767991e+002,1.454285e+000
6.777634e+002,7.149658e-001
6.787276e+002,-2.633972e+000
6.796918e+002,-4.339539e+000
6.806561e+002,-1.814758e+000
6.816203e+002,9.602051e-001
6.825845e+002,3.091187e+000
6.835488e+002,4.296936e+000
6.845130e+002,4.373779e+000
6.854772e+002,3.176575e+000
6.864415e+002,1.255615e+000
6.874057e+002,-1.412903e+000
6.883699e+002,-4.590698e+000
6.893342e+002,-6.276184e+000
6.902984e+002,-5.074341e+000
6.912626e+002,-1.525757e+000
6.922269e+002,-1.074219e-001
6.931911e+002,-2.837585e+000
6.941553e+002,-3.958618e+000
6.951196e+002,-2.628540e+000
6.960838e+002,-1.854858e-001
6.970480e+002,1.556213e+000
6.980123e+002,2.243469e+000
6.989765e+002,2.609802e+000
6.999407e+002,2.585632e+000
7.009050e+002,2.606873e+000
7.018692e+002,3.327026e+000
7.028334e+002,4.750366e+000
7.037977e+002,5.777100e+000
7.047619e+002,4.245667e+000
7.057261e+002,1.601929e+000
7.066904e+002,3.578491e-001
7.076546e+002,8.932495e-001
7.086188e+002,2.349487e+000
7.095831e+002,3.492554e+000
7.105473e+002,4.555420e+000
7.115115e+002,3.540649e+000
7.124758e+002,-1.926147e+000
7.134400e+002,-6.932007e+000
7.144042e+002,-7.731323e+000
7.153685e+002,-4.201843e+000
7.163327e+002,-1.371704e+000
7.172969e+002,-2.938416e+000
7.182612e+002,-4.270203e+000
7.192254e+002,-3.035217e+000
7.201896e+002,-2.481689e-001
7.211539e+002,1.759888e+000
7.221181e+002,1.021240e+000
7.230823e+002,-1.441040e+000
7.240466e+002,-3.154602e+000
7.250108e+002,-3.851440e+000
7.259750e+002,-2.878296e+000
7.269393e+002,1.753540e-001
7.279035e+002,4.497437e+000
7.288677e+002,6.277039e+000
7.298320e+002,4.181641e+000
7.307962e+002,2.451660e+000
7.317604e+002,9.711914e-001
7.327247e+002,2.321167e-001
7.336889e+002,9.308472e-001
7.346531e+002,3.276611e+000
7.356174e+002,4.732361e+000
7.365816e+002,4.816650e+000
7.375458e+002,4.205322e+000
7.385101e+002,2.947754e+000
7.394743e+002,1.281494e+000
7.404385e+002,-2.379150e-001
7.414028e+002,-9.263916e-001
7.423670e+002,-1.434631e+000
7.433312e+002,-1.655457e+000
7.442955e+002,-1.011536e+000
7.452597e+002,1.057129e-001
7.462239e+002,1.017151e+000
7.471882e+002,1.528687e+000
7.481524e+002,1.899170e+000
7.491166e+002,1.173645e+000
7.500809e+002,4.176636e-001
7.510451e+002,1.953125e-003
7.520093e+002,-7.073975e-002
7.529736e+002,2.224121e-001
7.539378e+002,1.955505e+000
7.549020e+002,3.238953e+000
7.558663e+002,1.943787e+000
7.568306e+002,-2.689819e-001
7.577948e+002,-9.506836e-001
7.587590e+002,1.152405e+000
7.597233e+002,4.473145e+000
7.606875e+002,4.638977e+000
7.616517e+002,2.333740e+000
7.626160e+002,1.015259e+000
7.635802e+002,1.741882e+000
7.645444e+002,3.864014e+000
7.655087e+002,6.062561e+000
7.664729e+002,8.582031e+000
7.674371e+002,1.028162e+001
7.684014e+002,1.240448e+001
7.693656e+002,1.273639e+001
7.703298e+002,7.975159e+000
7.712941e+002,-1.263550e+000
7.722583e+002,-7.622742e+000
7.732225e+002,-2.720886e+000
7.741868e+002,4.508911e+000
7.751510e+002,6.749390e+000
7.761152e+002,5.147522e+000
7.770795e+002,4.051208e+000
7.780437e+002,7.281372e+000
7.790079e+002,1.382281e+001
7.799722e+002,1.500586e+001
7.809364e+002,1.058954e+001
7.819006e+002,6.367188e+000
7.828649e+002,4.710022e+000
7.838291e+002,5.252136e+000
7.847933e+002,6.426880e+000
7.857576e+002,9.295288e+000
7.867218e+002,9.545776e+000
7.876860e+002,4.390015e+000
7.886503e+002,-1.161377e+000
7.896145e+002,-2.603027e+000
7.905787e+002,1.065552e+000
7.915430e+002,6.075684e+000
7.925072e+002,8.704834e+000
7.934714e+002,9.581055e+000
7.944357e+002,9.531189e+000
7.953999e+002,8.967285e+000
7.963641e+002,8.150757e+000
7.973284e+002,7.202087e+000
7.982926e+002,6.099854e+000
7.992568e+002,5.535522e+000
8.002211e+002,4.850403e+000
8.011853e+002,4.032776e+000
8.021495e+002,3.685364e+000
8.031138e+002,4.190430e+000
8.040780e+002,5.378296e+000
8.050422e+002,7.226196e+000
8.060065e+002,8.659485e+000
8.069707e+002,8.670776e+000
8.079349e+002,8.135437e+000
8.088992e+002,8.419922e+000
8.098634e+002,9.985535e+000
8.108276e+002,1.141846e+001
8.117919e+002,9.592102e+000
8.127561e+002,5.652100e+000
8.137203e+002,3.102539e+000
8.146846e+002,2.723206e+000
8.156488e+002,3.828674e+000
8.166130e+002,5.484680e+000
8.175773e+002,7.850891e+000
8.185415e+002,9.164429e+000
8.195057e+002,7.343567e+000
8.204700e+002,6.516663e+000
8.214342e+002,9.660461e+000
8.223984e+002,1.485724e+001
8.233627e+002,1.665039e+001
8.243269e+002,1.153412e+001
8.252911e+002,6.343079e+000
8.262554e+002,5.115723e+000
8.272196e+002,5.743469e+000
8.281838e+002,6.048523e+000
8.291481e+002,5.225098e+000
8.301123e+002,4.170959e+000
8.310765e+002,4.574219e+000
8.320408e+002,6.227783e+000
8.330050e+002,7.328979e+000
8.339692e+002,7.880859e+000
8.349335e+002,7.877869e+000
8.358977e+002,7.243958e+000
8.368619e+002,6.042358e+000
8.378262e+002,5.265076e+000
8.387904e+002,3.937134e+000
8.397546e+002,3.629822e+000
8.407189e+002,5.796570e+000
8.416831e+002,9.076172e+000
8.426473e+002,1.094427e+001
8.436116e+002,1.002026e+001
8.445758e+002,8.862854e+000
8.455400e+002,1.026019e+001
8.465043e+002,1.221527e+001
8.474685e+002,1.276093e+001
8.484327e+002,1.173962e+001
8.493970e+002,1.062482e+001
8.503612e+002,1.151678e+001
8.513254e+002,1.478522e+001
8.522897e+002,1.585858e+001
8.532539e+002,1.339984e+001
8.542181e+002,1.033984e+001
8.551824e+002,8.148865e+000
8.561466e+002,7.275513e+000
8.571108e+002,8.724121e+000
8.580751e+002,1.424927e+001
8.590393e+002,1.831500e+001
8.600035e+002,1.858582e+001
8.609678e+002,1.745795e+001
8.619320e+002,1.767712e+001
8.628962e+002,2.025757e+001
8.638605e+002,2.357111e+001
8.648247e+002,2.521387e+001
8.657889e+002,2.569342e+001
8.667532e+002,2.644141e+001
8.677174e+002,2.762781e+001
8.686816e+002,2.820782e+001
8.696459e+002,2.685968e+001
8.706101e+002,2.337201e+001
8.715743e+002,2.107141e+001
8.725386e+002,2.039453e+001
8.735028e+002,2.026941e+001
8.744670e+002,1.978882e+001
8.754313e+002,1.932947e+001
8.763955e+002,2.010425e+001
8.773597e+002,2.298596e+001
8.783240e+002,2.622351e+001
8.792882e+002,2.917108e+001
8.802524e+002,3.117798e+001
8.812167e+002,3.121021e+001
8.821809e+002,2.941876e+001
8.831451e+002,2.709296e+001
8.841094e+002,2.593127e+001
8.850736e+002,2.622125e+001
8.860378e+002,2.727753e+001
8.870021e+002,2.904327e+001
8.879663e+002,3.085022e+001
8.889305e+002,3.273889e+001
8.898948e+002,3.429541e+001
8.908590e+002,3.371619e+001
8.918232e+002,2.908032e+001
8.927875e+002,2.589996e+001
8.937517e+002,2.555719e+001
8.947159e+002,2.677838e+001
8.956802e+002,2.881012e+001
8.966444e+002,3.100366e+001
8.976086e+002,3.233258e+001
8.985729e+002,3.158777e+001
8.995371e+002,3.023895e+001
9.005013e+002,3.032501e+001
9.014656e+002,3.190106e+001
9.024298e+002,3.432019e+001
9.033940e+002,3.700208e+001
9.043583e+002,3.952307e+001
9.053225e+002,4.072351e+001
9.062867e+002,3.942761e+001
9.072510e+002,3.765521e+001
9.082152e+002,3.535162e+001
9.091794e+002,3.343994e+001
9.101437e+002,3.288849e+001
9.111079e+002,3.382788e+001
9.120721e+002,3.486548e+001
9.130364e+002,3.530603e+001
9.140006e+002,3.482159e+001
9.149648e+002,3.258386e+001
9.159291e+002,2.979694e+001
9.168933e+002,2.845703e+001
9.178575e+002,2.978510e+001
9.188218e+002,3.291351e+001
9.197860e+002,3.587085e+001
9.207502e+002,3.862579e+001
9.217145e+002,3.895953e+001
9.226787e+002,3.542664e+001
9.236429e+002,3.106122e+001
9.246072e+002,2.992865e+001
9.255714e+002,3.252313e+001
9.265356e+002,3.430908e+001
9.274999e+002,3.460406e+001
9.284641e+002,3.361615e+001
9.294283e+002,3.032739e+001
9.303926e+002,2.630145e+001
9.313568e+002,2.409180e+001
9.323210e+002,2.505042e+001
9.332853e+002,2.735553e+001
9.342495e+002,2.851532e+001
9.352137e+002,2.886871e+001
9.361780e+002,2.906958e+001
9.371422e+002,2.952667e+001
9.381064e+002,3.016077e+001
9.390707e+002,3.050952e+001
9.400349e+002,3.015302e+001
9.409991e+002,2.982172e+001
9.419634e+002,2.887915e+001
9.429276e+002,2.856854e+001
9.438918e+002,2.974042e+001
9.448561e+002,3.172351e+001
9.458203e+002,3.336963e+001
9.467845e+002,3.440564e+001
9.477488e+002,3.552185e+001
9.487130e+002,3.751019e+001
9.496772e+002,3.944153e+001
9.506415e+002,4.045911e+001
9.516057e+002,4.060437e+001
9.525699e+002,4.044250e+001
9.535342e+002,4.048102e+001
9.544984e+002,4.055756e+001
9.554626e+002,4.051886e+001
9.564269e+002,4.090741e+001
9.573911e+002,4.126984e+001
9.583553e+002,4.126373e+001
9.593196e+002,4.102863e+001
9.602838e+002,4.089703e+001
9.612480e+002,4.088098e+001
9.622123e+002,4.040967e+001
9.631765e+002,3.875928e+001
9.641407e+002,3.743304e+001
9.651050e+002,3.789355e+001
9.660692e+002,3.890149e+001
9.670334e+002,3.774286e+001
9.679977e+002,3.285754e+001
9.689619e+002,2.696802e+001
9.699261e+002,2.547778e+001
9.708904e+002,2.697278e+001
9.718546e+002,2.882532e+001
9.728188e+002,3.030304e+001
9.737831e+002,3.204187e+001
9.747473e+002,3.569037e+001
9.757115e+002,4.232202e+001
9.766758e+002,4.556134e+001
9.776400e+002,4.335742e+001
9.786042e+002,4.083789e+001
9.795685e+002,3.862384e+001
9.805327e+002,3.651581e+001
9.814969e+002,3.423236e+001
9.824612e+002,3.190704e+001
9.834254e+002,3.027386e+001
9.843896e+002,2.950720e+001
9.853539e+002,2.963660e+001
9.863181e+002,3.139850e+001
9.872823e+002,3.422443e+001
9.882466e+002,3.646381e+001
9.892108e+002,3.699823e+001
9.901750e+002,3.673938e+001
9.911393e+002,3.874133e+001
9.921035e+002,4.377887e+001
9.930677e+002,4.788422e+001
9.940320e+002,5.135339e+001
9.949962e+002,5.422571e+001
9.959604e+002,5.584515e+001
9.969247e+002,5.639862e+001
9.978889e+002,5.850433e+001
9.988531e+002,6.389221e+001
9.998174e+002,6.948523e+001
1.000782e+003,7.495636e+001
1.001746e+003,7.946069e+001
1.002710e+003,8.123145e+001
1.003674e+003,7.974951e+001
1.004639e+003,7.685950e+001
1.005603e+003,7.576715e+001
1.006567e+003,7.656110e+001
1.007531e+003,7.855017e+001
1.008495e+003,8.328040e+001
1.009460e+003,8.633246e+001
1.010424e+003,8.379419e+001
1.011388e+003,7.737054e+001
1.012352e+003,7.395605e+001
1.013317e+003,7.614264e+001
1.014281e+003,7.722943e+001
1.015245e+003,7.434418e+001
1.016209e+003,7.019568e+001
1.017174e+003,6.719751e+001
1.018138e+003,6.521063e+001
1.019102e+003,6.202905e+001
1.020066e+003,5.576807e+001
1.021031e+003,4.791498e+001
1.021995e+003,4.186963e+001
1.022959e+003,3.698004e+001
1.023923e+003,3.281763e+001
1.024887e+003,2.935065e+001
1.025852e+003,2.619592e+001
1.026816e+003,2.271887e+001
1.027780e+003,1.888690e+001
1.028744e+003,1.628888e+001
1.029709e+003,1.511530e+001
1.030673e+003,1.492407e+001
1.031637e+003,1.663025e+001
1.032601e+003,1.860986e+001
1.033566e+003,1.823175e+001
1.034530e+003,1.479675e+001
1.035494e+003,1.186212e+001
1.036458e+003,1.398901e+001
1.037422e+003,1.853101e+001
1.038387e+003,2.140277e+001
1.039351e+003,2.233319e+001
1.040315e+003,2.194922e+001
1.041279e+003,2.068359e+001
1.042244e+003,1.893732e+001
1.043208e+003,1.798969e+001
1.044172e+003,1.800616e+001
1.045136e+003,1.788184e+001
1.046101e+003,1.796936e+001
1.047065e+003,1.790863e+001
1.048029e+003,1.673853e+001
1.048993e+003,1.496423e+001
1.049958e+003,1.501733e+001
1.050922e+003,1.914233e+001
1.051886e+003,2.314850e+001
1.052850e+003,2.146625e+001
1.053814e+003,1.757916e+001
1.054779e+003,1.616986e+001
1.055743e+003,1.804669e+001
1.056707e+003,2.065289e+001
1.057671e+003,2.094550e+001
1.058636e+003,1.883368e+001
1.059600e+003,1.659949e+001
1.060564e+003,1.351447e+001
1.061528e+003,1.224158e+001
1.062493e+003,1.399902e+001
1.063457e+003,1.650714e+001
1.064421e+003,1.746082e+001
1.065385e+003,1.675836e+001
1.066349e+003,1.601752e+001
1.067314e+003,1.607074e+001
1.068278e+003,1.635187e+001
1.069242e+003,1.688733e+001
1.070206e+003,1.740515e+001
1.071171e+003,1.687946e+001
1.072135e+003,1.498169e+001
1.073099e+003,1.316675e+001
1.074063e+003,1.429584e+001
1.075028e+003,1.891425e+001
1.075992e+003,2.146985e+001
1.076956e+003,2.171985e+001
1.077920e+003,2.028979e+001
1.078885e+003,1.631085e+001
1.079849e+003,1.167474e+001
1.080813e+003,9.760193e+000
1.081777e+003,1.139661e+001
1.082741e+003,1.393817e+001
1.083706e+003,1.549469e+001
1.084670e+003,1.741797e+001
1.085634e+003,2.195490e+001
1.086598e+003,2.720172e+001
1.087563e+003,2.937335e+001
1.088527e+003,2.668530e+001
1.089491e+003,2.159082e+001
1.090455e+003,1.815234e+001
1.091420e+003,1.629596e+001
1.092384e+003,1.637598e+001
1.093348e+003,1.972125e+001
1.094312e+003,2.203534e+001
1.095276e+003,1.991272e+001
1.096241e+003,1.530524e+001
1.097205e+003,1.385175e+001
1.098169e+003,1.709247e+001
1.099133e+003,2.005151e+001
1.100098e+003,2.175085e+001
1.101062e+003,2.215509e+001
1.102026e+003,1.972607e+001
1.102990e+003,1.613684e+001
1.103955e+003,1.508374e+001
1.104919e+003,1.868268e+001
1.105883e+003,2.429443e+001
1.106847e+003,2.625806e+001
1.107812e+003,2.444708e+001
1.108776e+003,2.474908e+001
1.109740e+003,2.904163e+001
1.110704e+003,3.208752e+001
1.111668e+003,2.853143e+001
1.112633e+003,2.071246e+001
1.113597e+003,1.855292e+001
1.114561e+003,2.570203e+001
1.115525e+003,3.137695e+001
1.116490e+003,3.105682e+001
1.117454e+003,2.942279e+001
1.118418e+003,2.923340e+001
1.119382e+003,3.083008e+001
1.120347e+003,3.351208e+001
1.121311e+003,3.655640e+001
1.122275e+003,3.902917e+001
1.123239e+003,3.974463e+001
1.124203e+003,3.933014e+001
1.125168e+003,3.999042e+001
1.126132e+003,4.234113e+001
1.127096e+003,4.488776e+001
1.128060e+003,4.612292e+001
1.129025e+003,4.626447e+001
1.129989e+003,4.696198e+001
1.130953e+003,4.829333e+001
1.131917e+003,4.990302e+001
1.132882e+003,5.115106e+001
1.133846e+003,5.338000e+001
1.134810e+003,5.832013e+001
1.135774e+003,6.490137e+001
1.136739e+003,7.046167e+001
1.137703e+003,7.349542e+001
1.138667e+003,7.542554e+001
1.139631e+003,7.839691e+001
1.140595e+003,8.262164e+001
1.141560e+003,8.928070e+001
1.142524e+003,9.871796e+001
1.143488e+003,1.106802e+002
1.144452e+003,1.256432e+002
1.145417e+003,1.428984e+002
1.146381e+003,1.597226e+002
1.147345e+003,1.754742e+002
1.148309e+003,1.920550e+002
1.149274e+003,2.117520e+002
1.150238e+003,2.309100e+002
1.151202e+003,2.485126e+002
1.152166e+003,2.643259e+002
1.153130e+003,2.782075e+002
1.154095e+003,2.897310e+002
1.155059e+003,2.981803e+002
1.156023e+003,3.035472e+002
1.156987e+003,3.053425e+002
1.157952e+003,3.010374e+002
1.158916e+003,2.906655e+002
1.159880e+003,2.785565e+002
1.160844e+003,2.665845e+002
1.161809e+003,2.531996e+002
1.162773e+003,2.354560e+002
1.163737e+003,2.121956e+002
1.164701e+003,1.899680e+002
1.165666e+003,1.681186e+002
1.166630e+003,1.507515e+002
1.167594e+003,1.408083e+002
1.168558e+003,1.356570e+002
1.169522e+003,1.324294e+002
1.170487e+003,1.298511e+002
1.171451e+003,1.277681e+002
1.172415e+003,1.258751e+002
1.173379e+003,1.242341e+002
1.174344e+003,1.243204e+002
1.175308e+003,1.265351e+002
1.176272e+003,1.268736e+002
1.177236e+003,1.235704e+002
1.178201e+003,1.183937e+002
1.179165e+003,1.127678e+002
1.180129e+003,1.063776e+002
1.181093e+003,1.012510e+002
1.182057e+003,9.871576e+001
1.183022e+003,9.662103e+001
1.183986e+003,9.377594e+001
1.184950e+003,9.123346e+001
1.185914e+003,9.012518e+001
1.186879e+003,9.057361e+001
1.187843e+003,9.193921e+001
1.188807e+003,9.359717e+001
1.189771e+003,9.546948e+001
1.190736e+003,9.801385e+001
1.191700e+003,1.013611e+002
1.192664e+003,1.033657e+002
1.193628e+003,1.042355e+002
1.194593e+003,1.037040e+002
1.195557e+003,1.012988e+002
1.196521e+003,9.719379e+001
1.197485e+003,9.192059e+001
1.198449e+003,8.509033e+001
1.199414e+003,7.883704e+001
1.200378e+003,7.433234e+001
1.201342e+003,7.058716e+001
1.202306e+003,6.633667e+001
1.203271e+003,6.228326e+001
1.204235e+003,6.074188e+001
1.205199e+003,6.258252e+001
1.206163e+003,6.504858e+001
1.207128e+003,6.328101e+001
1.208092e+003,5.703217e+001
1.209056e+003,5.231067e+001
1.210020e+003,5.003876e+001
1.210984e+003,4.725006e+001
1.211949e+003,4.291699e+001
1.212913e+003,3.755927e+001
1.213877e+003,3.167139e+001
1.214841e+003,2.544299e+001
1.215806e+003,1.976324e+001
1.216770e+003,1.411774e+001
1.217734e+003,1.044458e+001
1.218698e+003,1.088635e+001
1.219663e+003,1.284985e+001
1.220627e+003,1.322296e+001
1.221591e+003,1.152466e+001
1.222555e+003,9.266296e+000
1.223520e+003,7.897766e+000
1.224484e+003,7.365112e+000
1.225448e+003,6.723511e+000
1.226412e+003,5.998169e+000
1.227376e+003,4.850464e+000
1.228341e+003,2.395996e+000
1.229305e+003,2.796021e-001
1.230269e+003,-1.090393e+000
1.231233e+003,-1.398193e+000
1.232198e+003,5.065918e-001
1.233162e+003,5.212769e+000
1.234126e+003,9.922668e+000
1.235090e+003,1.277783e+001
1.236055e+003,1.391443e+001
1.237019e+003,1.303583e+001
1.237983e+003,1.071539e+001
1.238947e+003,8.727783e+000
1.239911e+003,7.975281e+000
1.240876e+003,7.571228e+000
1.241840e+003,5.814209e+000
1.242804e+003,2.547119e+000
1.243768e+003,1.176270e+000
1.244733e+003,3.482300e+000
1.245697e+003,5.485596e+000
1.246661e+003,5.620239e+000
1.247625e+003,5.860413e+000
1.248590e+003,8.687378e+000
1.249554e+003,1.337024e+001
1.250518e+003,1.675018e+001
1.251482e+003,1.716846e+001
1.252447e+003,1.635077e+001
1.253411e+003,1.660760e+001
1.254375e+003,1.749023e+001
1.255339e+003,1.747687e+001
1.256303e+003,1.672504e+001
1.257268e+003,1.672864e+001
1.258232e+003,1.807709e+001
1.259196e+003,2.019659e+001
1.260160e+003,2.275702e+001
1.261125e+003,2.628290e+001
1.262089e+003,2.883099e+001
1.263053e+003,2.834418e+001
1.264017e+003,2.849420e+001
1.264982e+003,3.165125e+001
1.265946e+003,3.498016e+001
1.266910e+003,3.542389e+001
1.267874e+003,3.324915e+001
1.268839e+003,3.117627e+001
1.269803e+003,3.104089e+001
1.270767e+003,3.149542e+001
1.271731e+003,2.962897e+001
1.272695e+003,2.575885e+001
1.273660e+003,2.434564e+001
1.274624e+003,2.638263e+001
1.275588e+003,2.701056e+001
1.276552e+003,2.236273e+001
1.277517e+003,1.572333e+001
1.278481e+003,1.344647e+001
1.279445e+003,1.613733e+001
1.280409e+003,1.754022e+001
1.281374e+003,1.430597e+001
1.282338e+003,1.132056e+001
1.283302e+003,1.176501e+001
1.284266e+003,1.333154e+001
1.285230e+003,1.350806e+001
1.286195e+003,1.180768e+001
1.287159e+003,8.860901e+000
1.288123e+003,5.309448e+000
1.289087e+003,2.263428e+000
1.290052e+003,2.675537e+000
1.291016e+003,8.152710e+000
1.291980e+003,1.020728e+001
1.292944e+003,5.910828e+000
1.293909e+003,1.721008e+000
1.294873e+003,7.541504e-001
1.295837e+003,1.476196e+000
1.296801e+003,1.304993e+000
1.297766e+003,3.369141e-002
1.298730e+003,1.146851e-001
1.299694e+003,3.474243e+000
1.300658e+003,6.937988e+000
1.301622e+003,6.611694e+000
1.302587e+003,4.510254e+000
1.303551e+003,3.926208e+000
1.304515e+003,5.387512e+000
1.305479e+003,6.367859e+000
1.306444e+003,4.296631e+000
1.307408e+003,4.872437e-001
1.308372e+003,3.234863e-001
1.309336e+003,5.711182e+000
1.310301e+003,8.750305e+000
1.311265e+003,8.071350e+000
1.312229e+003,6.653320e+000
1.313193e+003,4.084473e+000
1.314157e+003,1.867676e+000
1.315122e+003,2.210510e+000
1.316086e+003,4.554993e+000
1.317050e+003,5.541809e+000
1.318014e+003,2.968323e+000
1.318979e+003,-5.936279e-001
1.319943e+003,-5.568848e-001
1.320907e+003,2.831726e+000
1.321871e+003,5.590637e+000
1.322836e+003,7.317078e+000
1.323800e+003,7.735413e+000
1.324764e+003,5.626526e+000
1.325728e+003,2.795837e+000
1.326693e+003,2.641907e+000
1.327657e+003,5.131653e+000
1.328621e+003,6.205872e+000
1.329585e+003,4.200623e+000
1.330549e+003,3.587036e+000
1.331514e+003,7.069885e+000
1.332478e+003,1.109662e+001
1.333442e+003,1.284491e+001
1.334406e+003,1.223291e+001
1.335371e+003,9.991150e+000
1.336335e+003,6.659729e+000
1.337299e+003,3.292847e+000
1.338263e+003,1.799744e+000
1.339228e+003,2.360901e+000
1.340192e+003,3.273499e+000
1.341156e+003,5.070068e+000
1.342120e+003,6.389954e+000
1.343084e+003,6.241089e+000
1.344049e+003,5.661865e+000
1.345013e+003,5.811646e+000
1.345977e+003,6.731995e+000
1.346941e+003,7.965942e+000
1.347906e+003,9.381592e+000
1.348870e+003,1.003888e+001
1.349834e+003,7.917236e+000
1.350798e+003,5.149719e+000
1.351763e+003,7.043762e+000
1.352727e+003,1.266522e+001
1.353691e+003,1.570032e+001
1.354655e+003,1.347369e+001
1.355620e+003,9.524292e+000
1.356584e+003,8.252563e+000
1.357548e+003,9.353638e+000
1.358512e+003,8.856934e+000
1.359476e+003,5.271301e+000
1.360441e+003,2.498718e+000
1.361405e+003,2.762817e+000
1.362369e+003,3.075928e+000
1.363333e+003,1.896973e+000
1.364298e+003,-8.880615e-002
1.365262e+003,-2.082214e+000
1.366226e+003,-3.634155e+000
1.367190e+003,-4.274475e+000
1.368155e+003,-3.580261e+000
1.369119e+003,-1.764282e+000
1.370083e+003,6.837158e-001
1.371047e+003,4.429993e+000
1.372011e+003,6.511475e+000
1.372976e+003,5.568665e+000
1.373940e+003,4.121582e+000
1.374904e+003,2.525818e+000
1.375868e+003,1.582214e+000
1.376833e+003,2.698059e+000
1.377797e+003,5.513672e+000
1.378761e+003,7.432617e+000
1.379725e+003,7.248169e+000
1.380690e+003,6.557312e+000
1.381654e+003,7.379944e+000
1.382618e+003,8.661743e+000
1.383582e+003,8.642700e+000
1.384547e+003,7.412048e+000
1.385511e+003,6.343628e+000
1.386475e+003,5.943604e+000
1.387439e+003,6.088806e+000
1.388403e+003,7.156372e+000
1.389368e+003,9.102173e+000
1.390332e+003,9.133423e+000
1.391296e+003,6.318542e+000
1.392260e+003,3.746948e+000
1.393225e+003,7.195435e-001
1.394189e+003,-6.433716e-001
1.395153e+003,2.552490e+000
1.396117e+003,7.523193e+000
1.397082e+003,9.956055e+000
1.398046e+003,8.938477e+000
1.399010e+003,6.917358e+000
1.399974e+003,5.893066e+000
1.400938e+003,5.350952e+000
1.401903e+003,4.790100e+000
1.402867e+003,5.085022e+000
1.403831e+003,5.698669e+000
1.404795e+003,5.876892e+000
1.405760e+003,6.506592e+000
1.406724e+003,7.445923e+000
1.407688e+003,8.177612e+000
1.408652e+003,9.052917e+000
1.409617e+003,1.019897e+001
1.410581e+003,1.029517e+001
1.411545e+003,8.446167e+000
1.412509e+003,7.402405e+000
1.413474e+003,1.095160e+001
1.414438e+003,1.567938e+001
1.415402e+003,1.631152e+001
1.416366e+003,1.357684e+001
1.417330e+003,1.074854e+001
1.418295e+003,8.894043e+000
1.419259e+003,8.142212e+000
1.420223e+003,8.949036e+000
1.421187e+003,1.078497e+001
1.422152e+003,1.154468e+001
1.423116e+003,1.117444e+001
1.424080e+003,1.105481e+001
1.425044e+003,1.093744e+001
1.426009e+003,1.114435e+001
1.426973e+003,1.203894e+001
1.427937e+003,1.317133e+001
1.428901e+003,1.409778e+001
1.429865e+003,1.494098e+001
1.430830e+003,1.629651e+001
1.431794e+003,1.836713e+001
1.432758e+003,2.000421e+001
1.433722e+003,1.917029e+001
1.434687e+003,1.597388e+001
1.435651e+003,1.563300e+001
1.436615e+003,1.854181e+001
1.437579e+003,2.136273e+001
1.438544e+003,2.556714e+001
1.439508e+003,2.812653e+001
1.440472e+003,2.569641e+001
1.441436e+003,2.106152e+001
1.442401e+003,1.962286e+001
1.443365e+003,2.231665e+001
1.444329e+003,2.501190e+001
1.445293e+003,2.473535e+001
1.446257e+003,2.298828e+001
1.447222e+003,2.236365e+001
1.448186e+003,2.255847e+001
1.449150e+003,2.220667e+001
1.450114e+003,2.100110e+001
1.451079e+003,1.955261e+001
1.452043e+003,1.787659e+001
1.453007e+003,1.680127e+001
1.453971e+003,1.756085e+001
1.454936e+003,1.976428e+001
1.455900e+003,2.139417e+001
1.456864e+003,2.195074e+001
1.457828e+003,2.290997e+001
1.458792e+003,2.627362e+001
1.459757e+003,2.883777e+001
1.460721e+003,2.717163e+001
1.461685e+003,2.292267e+001
1.462649e+003,1.967065e+001
1.463614e+003,1.847351e+001
1.464578e+003,1.777020e+001
1.465542e+003,1.596088e+001
1.466506e+003,1.360028e+001
1.467471e+003,1.267407e+001
1.468435e+003,1.361353e+001
1.469399e+003,1.587604e+001
1.470363e+003,2.076318e+001
1.471328e+003,2.419745e+001
1.472292e+003,2.451294e+001
1.473256e+003,2.318561e+001
1.474220e+003,2.100470e+001
1.475184e+003,1.894073e+001
1.476149e+003,1.785968e+001
1.477113e+003,1.784637e+001
1.478077e+003,1.853491e+001
1.479041e+003,1.988580e+001
1.480006e+003,2.182281e+001
1.480970e+003,2.328961e+001
1.481934e+003,2.362738e+001
1.482898e+003,2.474615e+001
1.483863e+003,2.712207e+001
1.484827e+003,2.934021e+001
1.485791e+003,3.121704e+001
1.486755e+003,3.320746e+001
1.487719e+003,3.599036e+001
1.488684e+003,3.881561e+001
1.489648e+003,3.955481e+001
1.490612e+003,3.782166e+001
1.491576e+003,3.719409e+001
1.492541e+003,4.075134e+001
1.493505e+003,4.654419e+001
1.494469e+003,5.054529e+001
1.495433e+003,5.267096e+001
1.496398e+003,5.437616e+001
1.497362e+003,5.587183e+001
1.498326e+003,5.871783e+001
1.499290e+003,6.414441e+001
1.500255e+003,7.094434e+001
1.501219e+003,7.755133e+001
1.502183e+003,8.385162e+001
1.503147e+003,8.955768e+001
1.504111e+003,9.397162e+001
1.505076e+003,1.011033e+002
1.506040e+003,1.143051e+002
1.507004e+003,1.305208e+002
1.507968e+003,1.473692e+002
1.508933e+003,1.644329e+002
1.509897e+003,1.801059e+002
1.510861e+003,1.949294e+002
1.511825e+003,2.133112e+002
1.512790e+003,2.383323e+002
1.513754e+003,2.675280e+002
1.514718e+003,2.978212e+002
1.515682e+003,3.288122e+002
1.516646e+003,3.562772e+002
1.517611e+003,3.795344e+002
1.518575e+003,4.011344e+002
1.519539e+003,4.274315e+002
1.520503e+003,4.472156e+002
1.521468e+003,4.511019e+002
1.522432e+003,4.460828e+002
1.523396e+003,4.419072e+002
1.524360e+003,4.399478e+002
1.525325e+003,4.359915e+002
1.526289e+003,4.273697e+002
1.527253e+003,4.144692e+002
1.528217e+003,3.977947e+002
1.529182e+003,3.776598e+002
1.530146e+003,3.528683e+002
1.531110e+003,3.208773e+002
1.532074e+003,2.880261e+002
1.533039e+003,2.522988e+002
1.534003e+003,2.173574e+002
1.534967e+003,1.843088e+002
1.535931e+003,1.546632e+002
1.536896e+003,1.296271e+002
1.537860e+003,1.093849e+002
1.538824e+003,9.391809e+001
1.539788e+003,8.282782e+001
1.540752e+003,7.400018e+001
1.541717e+003,6.487500e+001
1.542681e+003,5.602753e+001
1.543645e+003,4.987244e+001
1.544609e+003,4.817706e+001
1.545573e+003,4.577716e+001
1.546538e+003,4.077173e+001
1.547502e+003,3.653546e+001
1.548466e+003,3.538104e+001
1.549430e+003,3.560120e+001
1.550395e+003,3.526495e+001
1.551359e+003,3.420813e+001
1.552323e+003,3.334503e+001
1.553287e+003,3.297760e+001
1.554252e+003,3.178937e+001
1.555216e+003,2.833728e+001
1.556180e+003,2.390057e+001
1.557144e+003,2.159418e+001
1.558109e+003,2.165833e+001
1.559073e+003,2.176288e+001
1.560037e+003,2.161615e+001
1.561001e+003,2.084393e+001
1.561966e+003,1.949689e+001
1.562930e+003,1.829932e+001
1.563894e+003,1.725269e+001
1.564858e+003,1.658582e+001
1.565823e+003,1.750568e+001
1.566787e+003,2.003210e+001
1.567751e+003,2.139386e+001
1.568715e+003,1.974762e+001
1.569679e+003,1.766699e+001
1.570644e+003,1.859955e+001
1.571608e+003,2.117139e+001
1.572572e+003,2.182068e+001
1.573536e+003,2.062836e+001
1.574500e+003,2.028021e+001
1.575465e+003,2.202106e+001
1.576429e+003,2.397351e+001
1.577393e+003,2.453864e+001
1.578357e+003,2.405493e+001
1.579322e+003,2.337762e+001
1.580286e+003,2.268677e+001
1.581250e+003,2.176129e+001
1.582214e+003,2.027814e+001
1.583179e+003,1.946649e+001
1.584143e+003,2.058917e+001
1.585107e+003,2.219922e+001
1.586071e+003,2.290503e+001
1.587036e+003,2.317981e+001
1.588000e+003,2.330713e+001
1.588964e+003,2.310199e+001
1.589928e+003,2.237543e+001
1.590893e+003,2.048480e+001
1.591857e+003,1.863934e+001
1.592821e+003,1.882379e+001
1.593785e+003,2.083081e+001
1.594750e+003,2.316333e+001
1.595714e+003,2.555804e+001
1.596678e+003,2.773291e+001
1.597642e+003,2.954248e+001
1.598606e+003,3.124347e+001
1.599571e+003,3.386975e+001
1.600535e+003,3.627588e+001
1.601499e+003,3.626056e+001
1.602463e+003,3.416357e+001
1.603427e+003,3.289581e+001
1.604392e+003,3.377948e+001
1.605356e+003,3.483435e+001
1.606320e+003,3.404242e+001
1.607284e+003,3.191278e+001
1.608249e+003,2.974310e+001
1.609213e+003,2.754279e+001
1.610177e+003,2.505957e+001
1.611141e+003,2.143707e+001
1.612106e+003,1.959772e+001
1.613070e+003,2.288904e+001
1.614034e+003,2.667041e+001
1.614998e+003,2.769958e+001
1.615963e+003,2.687750e+001
1.616927e+003,2.584619e+001
1.617891e+003,2.477698e+001
1.618855e+003,2.253271e+001
1.619820e+003,1.797546e+001
1.620784e+003,1.326300e+001
1.621748e+003,1.270270e+001
1.622712e+003,1.591626e+001
1.623677e+003,1.747070e+001
1.624641e+003,1.709583e+001
1.625605e+003,1.654425e+001
1.626569e+003,1.432599e+001
1.627533e+003,1.337097e+001
1.628498e+003,1.801477e+001
1.629462e+003,2.270618e+001
1.630426e+003,2.132611e+001
1.631390e+003,1.638367e+001
1.632354e+003,1.420184e+001
1.633319e+003,1.613147e+001
1.634283e+003,1.849280e+001
1.635247e+003,1.854596e+001
1.636211e+003,1.731689e+001
1.637176e+003,1.657996e+001
1.638140e+003,1.650684e+001
1.639104e+003,1.765588e+001
1.640068e+003,2.048254e+001
1.641033e+003,2.221155e+001
1.641997e+003,2.218091e+001
1.642961e+003,2.120496e+001
1.643925e+003,1.862671e+001
1.644890e+003,1.617523e+001
1.645854e+003,1.588177e+001
1.646818e+003,1.702673e+001
1.647782e+003,1.733807e+001
1.648747e+003,1.617346e+001
1.649711e+003,1.538226e+001
1.650675e+003,1.674823e+001
1.651639e+003,1.958020e+001
1.652604e+003,2.266296e+001
1.653568e+003,2.571912e+001
1.654532e+003,2.543268e+001
1.655496e+003,2.052148e+001
1.656460e+003,1.624048e+001
1.657425e+003,1.392230e+001
1.658389e+003,1.310468e+001
1.659353e+003,1.473883e+001
1.660317e+003,1.664111e+001
1.661281e+003,1.618781e+001
1.662246e+003,1.380151e+001
1.663210e+003,1.134393e+001
1.664174e+003,9.608032e+000
1.665138e+003,9.121887e+000
1.666103e+003,1.070636e+001
1.667067e+003,1.274286e+001
1.668031e+003,1.168121e+001
1.668995e+003,7.897827e+000
1.669960e+003,5.785706e+000
1.670924e+003,6.017822e+000
1.671888e+003,6.819336e+000
1.672852e+003,7.741577e+000
1.673817e+003,8.611267e+000
1.674781e+003,9.406128e+000
1.675745e+003,9.975098e+000
1.676709e+003,9.951416e+000
1.677674e+003,9.531921e+000
1.678638e+003,9.498962e+000
1.679602e+003,1.009143e+001
1.680566e+003,1.025793e+001
1.681531e+003,9.103821e+000
1.682495e+003,7.603516e+000
1.683459e+003,7.023193e+000
1.684423e+003,7.094849e+000
1.685387e+003,7.675171e+000
1.686352e+003,9.104431e+000
1.687316e+003,8.892822e+000
1.688280e+003,5.043762e+000
1.689244e+003,1.613281e+000
1.690208e+003,1.944641e+000
1.691173e+003,3.902710e+000
1.692137e+003,5.939453e+000
1.693101e+003,7.963623e+000
1.694065e+003,9.262695e+000
1.695030e+003,9.345703e+000
1.695994e+003,8.760071e+000
1.696958e+003,7.985168e+000
1.697922e+003,6.907410e+000
1.698887e+003,5.110901e+000
1.699851e+003,3.013672e+000
1.700815e+003,1.413757e+000
1.701779e+003,2.550659e-001
1.702744e+003,2.581787e-001
1.703708e+003,2.216980e+000
1.704672e+003,4.632141e+000
1.705636e+003,5.864380e+000
1.706601e+003,6.555786e+000
1.707565e+003,9.273682e+000
1.708529e+003,1.295917e+001
1.709493e+003,1.265558e+001
1.710458e+003,7.210632e+000
1.711422e+003,2.875793e+000
1.712386e+003,3.120605e+000
1.713350e+003,4.797058e+000
1.714314e+003,5.380249e+000
1.715279e+003,5.140198e+000
1.716243e+003,4.622742e+000
1.717207e+003,4.058289e+000
1.718171e+003,4.150818e+000
1.719135e+003,5.164185e+000
1.720100e+003,5.959961e+000
1.721064e+003,5.660706e+000
1.722028e+003,4.550171e+000
1.722992e+003,3.002869e+000
1.723957e+003,1.611694e+000
1.724921e+003,1.875671e+000
1.725885e+003,3.522949e+000
1.726849e+003,4.659546e+000
1.727814e+003,5.649597e+000
1.728778e+003,6.442566e+000
1.729742e+003,7.176941e+000
1.730706e+003,7.318176e+000
1.731671e+003,5.423828e+000
1.732635e+003,2.229309e+000
1.733599e+003,2.001343e-001
1.734563e+003,-1.292725e-001
1.735528e+003,-6.811523e-001
1.736492e+003,-2.622375e+000
1.737456e+003,-4.377380e+000
1.738420e+003,-4.052734e+000
1.739385e+003,-2.286560e+000
1.740349e+003,-2.989502e-001
1.741313e+003,2.583374e+000
1.742277e+003,3.485535e+000
1.743241e+003,1.403687e+000
1.744206e+003,-3.753052e-001
1.745170e+003,-2.265625e+000
1.746134e+003,-3.174072e+000
1.747098e+003,-1.446289e+000
1.748063e+003,7.413940e-001
1.749027e+003,5.830688e-001
1.749991e+003,-1.268921e+000
1.750955e+003,-2.467102e+000
1.751919e+003,-2.208557e+000
1.752884e+003,-9.984741e-001
1.753848e+003,7.857056e-001
1.754812e+003,2.129089e+000
1.755776e+003,9.232178e-001
1.756741e+003,-2.406189e+000
1.757705e+003,-3.225037e+000
1.758669e+003,-5.306396e-001
1.759633e+003,9.129028e-001
1.760598e+003,-4.185791e-001
1.761562e+003,-2.066589e+000
1.762526e+003,-3.269287e+000
1.763490e+003,-3.936279e+000
1.764455e+003,-4.032715e+000
1.765419e+003,-3.464539e+000
1.766383e+003,-1.998718e+000
1.767347e+003,-3.161621e-002
1.768312e+003,1.697266e+000
1.769276e+003,2.780701e+000
1.770240e+003,2.005737e+000
1.771204e+003,-2.601318e+000
1.772168e+003,-8.261536e+000
1.773133e+003,-8.514160e+000
1.774097e+003,-4.048950e+000
1.775061e+003,-2.000916e+000
1.776025e+003,-3.777466e+000
1.776990e+003,-5.016235e+000
1.777954e+003,-3.557495e+000
1.778918e+003,-1.730774e+000
1.779882e+003,-2.020142e+000
1.780846e+003,-2.841675e+000
1.781811e+003,-5.659790e-001
1.782775e+003,3.352844e+000
1.783739e+003,2.866699e+000
1.784703e+003,-3.334656e+000
1.785668e+003,-6.994629e+000
1.786632e+003,-3.475159e+000
1.787596e+003,1.110657e+000
1.788560e+003,3.754883e+000
1.789525e+003,4.627502e+000
1.790489e+003,2.122009e+000
1.791453e+003,-2.370789e+000
1.792417e+003,-3.817444e+000
1.793382e+003,-1.468445e+000
1.794346e+003,2.716675e-001
1.795310e+003,-1.003906e+000
1.796274e+003,-3.635986e+000
1.797239e+003,-5.867188e+000
1.798203e+003,-6.803650e+000
1.799167e+003,-4.440918e+000
1.800131e+003,1.535400e+000
1.801095e+003,3.899292e+000
1.802060e+003,9.714355e-001
1.803024e+003,-1.202820e+000
1.803988e+003,-2.110107e+000
1.804952e+003,-2.563354e+000
1.805917e+003,-2.882202e+000
1.806881e+003,-3.009399e+000
1.807845e+003,-2.641418e+000
1.808809e+003,-1.868652e+000
1.809773e+003,-8.154297e-001
1.810738e+003,2.932129e-001
1.811702e+003,6.505737e-001
1.812666e+003,-2.344360e-001
1.813630e+003,-9.156494e-001
1.814595e+003,7.969971e-001
1.815559e+003,3.936890e+000
1.816523e+003,4.808289e+000
1.817487e+003,3.298401e+000
1.818452e+003,1.598450e+000
1.819416e+003,-1.910400e-001
1.820380e+003,-1.186829e+000
1.821344e+003,-1.017090e+000
1.822309e+003,-8.782959e-001
1.823273e+003,-2.244690e+000
1.824237e+003,-2.907104e+000
1.825201e+003,7.088623e-001
1.826166e+003,6.371704e+000
1.827130e+003,7.828003e+000
1.828094e+003,3.997314e+000
1.829058e+003,2.311401e-001
1.830022e+003,-7.865601e-001
1.830987e+003,-7.674561e-001
1.831951e+003,-7.857666e-001
1.832915e+003,-8.622437e-001
1.833879e+003,-1.319946e+000
1.834844e+003,-1.860168e+000
1.835808e+003,-1.253845e+000
1.836772e+003,5.238037e-001
1.837736e+003,1.475037e+000
1.838700e+003,5.433960e-001
1.839665e+003,-8.862915e-001
1.840629e+003,-1.463440e+000
1.841593e+003,-1.313354e+000
1.842557e+003,-8.236694e-001
1.843522e+003,-2.752686e-002
1.844486e+003,-1.579590e-001
1.845450e+003,-1.852417e+000
1.846414e+003,-2.383240e+000
1.847379e+003,-2.026245e+000
1.848343e+003,-1.241394e+000
1.849307e+003,1.385193e+000
1.850271e+003,3.173767e+000
1.851236e+003,1.252136e+000
1.852200e+003,-1.761902e+000
1.853164e+003,-1.980042e+000
1.854128e+003,-2.482910e-001
1.855093e+003,-6.565552e-001
1.856057e+003,-4.145447e+000
1.857021e+003,-6.719055e+000
1.857985e+003,-5.114380e+000
1.858949e+003,-1.525391e+000
1.859914e+003,4.547729e-001
1.860878e+003,1.242432e+000
1.861842e+003,3.042114e+000
1.862806e+003,5.802856e+000
1.863771e+003,6.501099e+000
1.864735e+003,4.014954e+000
1.865699e+003,1.553223e+000
1.866663e+003,4.864502e-001
1.867627e+003,5.654297e-001
1.868592e+003,2.422424e+000
1.869556e+003,4.084900e+000
1.870520e+003,1.356079e+000
1.871484e+003,-4.822632e+000
1.872449e+003,-7.596069e+000
1.873413e+003,-4.526611e+000
1.874377e+003,-1.196533e+000
1.875341e+003,-2.882690e-001
1.876306e+003,2.853394e-001
1.877270e+003,1.768311e+000
1.878234e+003,3.106873e+000
1.879198e+003,3.683044e+000
1.880163e+003,3.323181e+000
1.881127e+003,1.387512e+000
1.882091e+003,-1.599976e+000
1.883055e+003,-4.031738e+000
1.884020e+003,-5.187500e+000
1.884984e+003,-4.927734e+000
1.885948e+003,-3.031677e+000
1.886912e+003,-6.835938e-001
1.887876e+003,-3.211060e-001
1.888841e+003,-1.719421e+000
1.889805e+003,-2.812378e+000
1.890769e+003,-3.895935e+000
1.891733e+003,-2.754517e+000
1.892698e+003,2.140930e+000
1.893662e+003,5.378784e+000
1.894626e+003,4.769165e+000
1.895590e+003,2.672791e+000
1.896554e+003,-2.155151e-001
1.897519e+003,-2.670593e+000
1.898483e+003,-3.664978e+000
1.899447e+003,-3.438721e+000
1.900411e+003,-1.559570e+000
1.901376e+003,2.336853e+000
1.902340e+003,4.770996e+000
1.903304e+003,3.559448e+000
1.904268e+003,1.839661e+000
1.905233e+003,1.404785e+000
1.906197e+003,1.747375e+000
1.907161e+003,2.950256e+000
1.908125e+003,4.370667e+000
1.909090e+003,4.803711e+000
1.910054e+003,3.920288e+000
1.911018e+003,1.121765e+000
1.911982e+003,-3.047546e+000
1.912947e+003,-4.419861e+000
1.913911e+003,-2.947998e-002
1.914875e+003,6.480774e+000
1.915839e+003,9.453979e+000
1.916803e+003,9.003418e+000
1.917768e+003,6.452698e+000
1.918732e+003,1.279541e+000
1.919696e+003,-8.477783e-001
1.920660e+003,1.487732e+000
1.921625e+003,3.697205e+000
1.922589e+003,5.122803e+000
1.923553e+003,5.262512e+000
1.924517e+003,1.578308e+000
1.925481e+003,-1.391174e+000
1.926446e+003,1.875549e+000
1.927410e+003,8.198486e+000
1.928374e+003,1.129242e+001
1.929338e+003,1.058929e+001
1.930303e+003,8.563354e+000
1.931267e+003,5.615906e+000
1.932231e+003,3.732544e+000
1.933195e+003,3.963684e+000
1.934160e+003,4.620117e+000
1.935124e+003,4.559082e+000
1.936088e+003,3.967773e+000
1.937052e+003,3.134583e+000
1.938017e+003,2.556091e+000
1.938981e+003,3.028503e+000
1.939945e+003,4.343689e+000
1.940909e+003,5.474792e+000
1.941874e+003,5.780090e+000
1.942838e+003,4.670166e+000
1.943802e+003,1.745361e+000
1.944766e+003,-1.352173e+000
1.945730e+003,-1.991272e+000
1.946695e+003,-5.979614e-001
1.947659e+003,1.587402e+000
1.948623e+003,4.696594e+000
1.949587e+003,5.969910e+000
1.950552e+003,4.806641e+000
1.951516e+003,3.764404e+000
1.952480e+003,3.370850e+000
1.953444e+003,3.999268e+000
1.954408e+003,6.923828e+000
1.955373e+003,9.597778e+000
1.956337e+003,7.781433e+000
1.957301e+003,3.415955e+000
1.958265e+003,2.420105e+000
1.959230e+003,5.408936e+000
1.960194e+003,8.002014e+000
1.961158e+003,8.945068e+000
1.962122e+003,9.321838e+000
1.963087e+003,9.027100e+000
1.964051e+003,8.867065e+000
1.965015e+003,1.035669e+001
1.965979e+003,1.190656e+001
1.966944e+003,1.072595e+001
1.967908e+003,8.270813e+000
1.968872e+003,8.291260e+000
1.969836e+003,1.064111e+001
1.970801e+003,1.148956e+001
1.971765e+003,9.329346e+000
1.972729e+003,6.877136e+000
1.973693e+003,6.451721e+000
1.974657e+003,6.785583e+000
1.975622e+003,5.336182e+000
1.976586e+003,3.145691e+000
1.977550e+003,4.054871e+000
1.978514e+003,7.511230e+000
1.979479e+003,9.270447e+000
1.980443e+003,8.692688e+000
1.981407e+003,7.775269e+000
1.982371e+003,7.387329e+000
1.983335e+003,6.681458e+000
1.984300e+003,4.627319e+000
1.985264e+003,2.736206e+000
1.986228e+003,3.856812e+000
1.987192e+003,7.069641e+000
1.988157e+003,7.455627e+000
1.989121e+003,4.185730e+000
1.990085e+003,3.145569e+000
1.991049e+003,6.120361e+000
1.992014e+003,8.105164e+000
1.992978e+003,7.640991e+000
1.993942e+003,6.912109e+000
1.994906e+003,5.840332e+000
1.995871e+003,5.629150e+000
1.996835e+003,8.387024e+000
1.997799e+003,1.205261e+001
1.998763e+003,1.299225e+001
1.999728e+003,1.158356e+001
