5.003444e+002,1.816084e+002
5.013087e+002,1.798671e+002
5.022729e+002,1.785448e+002
5.032371e+002,1.778024e+002
5.042014e+002,1.753829e+002
5.051656e+002,1.717115e+002
5.061298e+002,1.679425e+002
5.070941e+002,1.649369e+002
5.080583e+002,1.624666e+002
5.090225e+002,1.598335e+002
5.099868e+002,1.569501e+002
5.109510e+002,1.540016e+002
5.119152e+002,1.507491e+002
5.128795e+002,1.471516e+002
5.138437e+002,1.450625e+002
5.148079e+002,1.467655e+002
5.157722e+002,1.489180e+002
5.167364e+002,1.505603e+002
5.177006e+002,1.509624e+002
5.186649e+002,1.493835e+002
5.196291e+002,1.439323e+002
5.205933e+002,1.380529e+002
5.215576e+002,1.348649e+002
5.225218e+002,1.340045e+002
5.234860e+002,1.336287e+002
5.244503e+002,1.311138e+002
5.254145e+002,1.264868e+002
5.263787e+002,1.235344e+002
5.273430e+002,1.231544e+002
5.283072e+002,1.238274e+002
5.292714e+002,1.231992e+002
5.302357e+002,1.196027e+002
5.311999e+002,1.158990e+002
5.321641e+002,1.131526e+002
5.331284e+002,1.114877e+002
5.340926e+002,1.109086e+002
5.350568e+002,1.111362e+002
5.360211e+002,1.107267e+002
5.369853e+002,1.093668e+002
5.379495e+002,1.076812e+002
5.389138e+002,1.057673e+002
5.398780e+002,1.035752e+002
5.408422e+002,1.010404e+002
5.418065e+002,9.834143e+001
5.427707e+002,9.542297e+001
5.437349e+002,9.114795e+001
5.446992e+002,8.418286e+001
5.456634e+002,7.609924e+001
5.466276e+002,7.276917e+001
5.475919e+002,8.154358e+001
5.485561e+002,8.674438e+001
5.495203e+002,8.559290e+001
5.504846e+002,8.073987e+001
5.514488e+002,7.598743e+001
5.524130e+002,7.241174e+001
5.533773e+002,7.077209e+001
5.543415e+002,7.265112e+001
5.553057e+002,7.550378e+001
5.562700e+002,7.652979e+001
5.572342e+002,7.393115e+001
5.581984e+002,6.905176e+001
5.591627e+002,6.500732e+001
5.601269e+002,6.211731e+001
5.610911e+002,6.082361e+001
5.620554e+002,6.131677e+001
5.630196e+002,6.294067e+001
5.639838e+002,6.202490e+001
5.649481e+002,5.579541e+001
5.659123e+002,5.114587e+001
5.668765e+002,5.087671e+001
5.678408e+002,5.396692e+001
5.688050e+002,5.645081e+001
5.697692e+002,5.605469e+001
5.707335e+002,5.458289e+001
5.716977e+002,5.267017e+001
5.726619e+002,5.061548e+001
5.736262e+002,4.872290e+001
5.745904e+002,4.731274e+001
5.755546e+002,4.629175e+001
5.765189e+002,4.464294e+001
5.774831e+002,4.229651e+001
5.784473e+002,3.994556e+001
5.794116e+002,3.835193e+001
5.803758e+002,3.789319e+001
5.813400e+002,3.787134e+001
5.823043e+002,3.755188e+001
5.832685e+002,3.679639e+001
5.842327e+002,3.577051e+001
5.851970e+002,3.505896e+001
5.861612e+002,3.571497e+001
5.871254e+002,3.920801e+001
5.880897e+002,4.165845e+001
5.890539e+002,4.180896e+001
5.900181e+002,4.014343e+001
5.909824e+002,3.773035e+001
5.919466e+002,3.530212e+001
5.929108e+002,3.278235e+001
5.938751e+002,2.909753e+001
5.948393e+002,2.538123e+001
5.958035e+002,2.405762e+001
5.967678e+002,2.690417e+001
5.977320e+002,3.314001e+001
5.986962e+002,3.387708e+001
5.996605e+002,2.849011e+001
6.006247e+002,2.296375e+001
6.015889e+002,1.977100e+001
6.025532e+002,1.891296e+001
6.035174e+002,1.897632e+001
6.044816e+002,2.070374e+001
6.054459e+002,2.295190e+001
6.064101e+002,2.730774e+001
6.073743e+002,3.173083e+001
6.083386e+002,3.227490e+001
6.093028e+002,2.504480e+001
6.102670e+002,1.762720e+001
6.112313e+002,1.544629e+001
6.121955e+002,1.664819e+001
6.131597e+002,1.924060e+001
6.141240e+002,2.176929e+001
6.150882e+002,2.384204e+001
6.160524e+002,2.332458e+001
6.170167e+002,2.100928e+001
6.179809e+002,2.054468e+001
6.189451e+002,2.415503e+001
6.199094e+002,3.063391e+001
6.208736e+002,3.304016e+001
6.218378e+002,2.781177e+001
6.228021e+002,2.360535e+001
6.237663e+002,2.170569e+001
6.247305e+002,2.133423e+001
6.256948e+002,2.073828e+001
6.266590e+002,1.832886e+001
6.276232e+002,1.626636e+001
6.285875e+002,1.748096e+001
6.295517e+002,1.975610e+001
6.305159e+002,2.006519e+001
6.314802e+002,1.673364e+001
6.324444e+002,1.155957e+001
6.334086e+002,1.131458e+001
6.343729e+002,1.473767e+001
6.353371e+002,1.705688e+001
6.363013e+002,1.626624e+001
6.372656e+002,1.311487e+001
6.382298e+002,1.082715e+001
6.391940e+002,1.004285e+001
6.401583e+002,8.931396e+000
6.411225e+002,8.697510e+000
6.420867e+002,8.844360e+000
6.430510e+002,7.879517e+000
6.440152e+002,4.131226e+000
6.449794e+002,1.398804e+000
6.459437e+002,3.149658e+000
6.469079e+002,5.540161e+000
6.478721e+002,5.593384e+000
6.488364e+002,2.517822e+000
6.498006e+002,-1.726807e+000
6.507648e+002,-4.745117e+000
6.517291e+002,-6.518188e+000
6.526933e+002,-5.571533e+000
6.536575e+002,-1.457642e+000
6.546218e+002,3.368530e+000
6.555860e+002,4.044434e+000
6.565502e+002,-2.916504e+000
6.575145e+002,-6.817017e+000
6.584787e+002,-5.401367e+000
6.594429e+002,-3.062012e+000
6.604072e+002,-3.843628e+000
6.613714e+002,-8.729858e+000
6.623356e+002,-1.183081e+001
6.632999e+002,-9.414429e+000
6.642641e+002,-6.165894e+000
6.652283e+002,-3.391846e+000
6.661926e+002,-1.401855e+000
6.671568e+002,-1.569824e-001
6.681210e+002,-3.356934e-001
6.690853e+002,-1.498657e+000
6.700495e+002,-1.687134e+000
6.710137e+002,-8.560791e-001
6.719780e+002,5.748291e-001
6.729422e+002,2.182861e+000
6.739064e+002,3.939087e+000
6.748707e+002,4.424561e+000
6.758349e+002,3.242554e+000
6.767991e+002,1.426147e+000
6.777634e+002,-1.621094e-001
6.787276e+002,-1.167603e+000
6.796918e+002,-2.052979e+000
6.806561e+002,-4.837158e+000
6.816203e+002,-6.541626e+000
6.825845e+002,-4.666748e+000
6.835488e+002,-1.148560e+000
6.845130e+002,5.938721e-001
6.854772e+002,-2.112793e+000
6.864415e+002,-6.149902e+000
6.874057e+002,-4.990723e+000
6.883699e+002,-8.653564e-001
6.893342e+002,2.334839e+000
6.902984e+002,2.591553e+000
6.912626e+002,5.249023e-001
6.922269e+002,-8.681641e-001
6.931911e+002,1.078857e+000
6.941553e+002,1.774048e+000
6.951196e+002,-1.876221e+000
6.960838e+002,-7.169434e+000
6.970480e+002,-8.872681e+000
6.980123e+002,-3.884277e+000
6.989765e+002,4.449463e-001
6.999407e+002,1.583252e-001
7.009050e+002,-1.471313e+000
7.018692e+002,-1.906006e+000
7.028334e+002,-3.757324e-001
7.037977e+002,1.777344e+000
7.047619e+002,3.414795e+000
7.057261e+002,4.489380e+000
7.066904e+002,3.446533e+000
7.076546e+002,-9.155273e-003
7.086188e+002,-4.402954e+000
7.095831e+002,-7.497925e+000
7.105473e+002,-9.593262e+000
7.115115e+002,-1.001367e+001
7.124758e+002,-7.786499e+000
7.134400e+002,-5.613647e+000
7.144042e+002,-4.924683e+000
7.153685e+002,-5.536133e+000
7.163327e+002,-6.016479e+000
7.172969e+002,-5.469482e+000
7.182612e+002,-4.751709e+000
7.192254e+002,-4.018799e+000
7.201896e+002,-3.740356e+000
7.211539e+002,-4.900269e+000
7.221181e+002,-8.572998e+000
7.230823e+002,-1.280847e+001
7.240466e+002,-1.221167e+001
7.250108e+002,-7.291016e+000
7.259750e+002,-1.114258e+000
7.269393e+002,4.365967e+000
7.279035e+002,8.305176e+000
7.288677e+002,9.071289e+000
7.298320e+002,5.248535e+000
7.307962e+002,2.375977e+000
7.317604e+002,9.411621e-001
7.327247e+002,7.379150e-001
7.336889e+002,1.175781e+000
7.346531e+002,1.482666e+000
7.356174e+002,5.966797e-001
7.365816e+002,-1.818237e+000
7.375458e+002,-3.496826e+000
7.385101e+002,-2.069214e+000
7.394743e+002,2.547363e+000
7.404385e+002,7.738403e+000
7.414028e+002,9.027588e+000
7.423670e+002,6.048218e+000
7.433312e+002,4.005859e+000
7.442955e+002,4.274414e+000
7.452597e+002,5.382813e+000
7.462239e+002,4.690063e+000
7.471882e+002,6.201172e-001
7.481524e+002,6.312256e-001
7.491166e+002,7.561890e+000
7.500809e+002,1.280615e+001
7.510451e+002,1.293542e+001
7.520093e+002,8.657471e+000
7.529736e+002,3.055054e+000
7.539378e+002,-3.404785e+000
7.549020e+002,-7.576172e+000
7.558663e+002,-7.227783e+000
7.568306e+002,-4.120605e+000
7.577948e+002,-2.108154e-001
7.587590e+002,2.952515e+000
7.597233e+002,4.459839e+000
7.606875e+002,1.313965e+000
7.616517e+002,-5.283813e+000
7.626160e+002,-7.872925e+000
7.635802e+002,-3.196289e+000
7.645444e+002,5.394531e+000
7.655087e+002,1.077100e+001
7.664729e+002,1.143774e+001
7.674371e+002,1.129919e+001
7.684014e+002,1.029126e+001
7.693656e+002,8.954712e+000
7.703298e+002,6.972656e+000
7.712941e+002,4.740234e+000
7.722583e+002,4.537720e+000
7.732225e+002,1.015356e+001
7.741868e+002,1.645679e+001
7.751510e+002,1.973218e+001
7.761152e+002,2.021631e+001
7.770795e+002,1.879956e+001
7.780437e+002,1.613000e+001
7.790079e+002,1.253027e+001
7.799722e+002,1.332971e+001
7.809364e+002,1.898499e+001
7.819006e+002,2.312585e+001
7.828649e+002,2.303174e+001
7.838291e+002,2.021899e+001
7.847933e+002,1.867859e+001
7.857576e+002,1.802063e+001
7.867218e+002,1.780444e+001
7.876860e+002,2.002100e+001
7.886503e+002,2.231042e+001
7.896145e+002,2.198132e+001
7.905787e+002,1.858215e+001
7.915430e+002,1.552979e+001
7.925072e+002,1.703223e+001
7.934714e+002,1.951086e+001
7.944357e+002,1.961438e+001
7.953999e+002,1.772375e+001
7.963641e+002,1.583008e+001
7.973284e+002,1.590735e+001
7.982926e+002,1.806140e+001
7.992568e+002,2.089771e+001
8.002211e+002,2.508582e+001
8.011853e+002,2.612842e+001
8.021495e+002,2.133472e+001
8.031138e+002,1.356665e+001
8.040780e+002,1.051111e+001
8.050422e+002,1.548291e+001
8.060065e+002,2.041235e+001
8.069707e+002,2.242603e+001
8.079349e+002,2.253467e+001
8.088992e+002,2.176929e+001
8.098634e+002,2.088940e+001
8.108276e+002,2.044360e+001
8.117919e+002,2.096790e+001
8.127561e+002,2.098254e+001
8.137203e+002,1.931018e+001
8.146846e+002,1.651709e+001
8.156488e+002,1.417322e+001
8.166130e+002,1.379443e+001
8.175773e+002,1.552173e+001
8.185415e+002,1.733923e+001
8.195057e+002,1.977271e+001
8.204700e+002,2.054492e+001
8.214342e+002,1.766052e+001
8.223984e+002,1.256702e+001
8.233627e+002,8.819580e+000
8.243269e+002,7.176270e+000
8.252911e+002,8.863281e+000
8.262554e+002,1.702808e+001
8.272196e+002,2.636890e+001
8.281838e+002,3.084204e+001
8.291481e+002,2.858704e+001
8.301123e+002,2.311011e+001
8.310765e+002,2.022864e+001
8.320408e+002,1.983984e+001
8.330050e+002,2.043921e+001
8.339692e+002,2.243298e+001
8.349335e+002,2.449329e+001
8.358977e+002,2.544177e+001
8.368619e+002,2.551062e+001
8.378262e+002,2.545837e+001
8.387904e+002,2.517468e+001
8.397546e+002,2.389539e+001
8.407189e+002,1.997607e+001
8.416831e+002,1.538660e+001
8.426473e+002,1.343945e+001
8.436116e+002,1.588501e+001
8.445758e+002,2.060327e+001
8.455400e+002,2.565430e+001
8.465043e+002,3.000305e+001
8.474685e+002,3.343896e+001
8.484327e+002,3.626404e+001
8.493970e+002,3.855530e+001
8.503612e+002,3.963049e+001
8.513254e+002,3.900500e+001
8.522897e+002,3.775928e+001
8.532539e+002,3.457544e+001
8.542181e+002,3.170483e+001
8.551824e+002,3.137866e+001
8.561466e+002,3.391724e+001
8.571108e+002,3.679944e+001
8.580751e+002,3.694287e+001
8.590393e+002,3.782642e+001
8.600035e+002,4.227576e+001
8.609678e+002,4.820850e+001
8.619320e+002,5.299475e+001
8.628962e+002,5.552893e+001
8.638605e+002,5.726050e+001
8.648247e+002,6.050232e+001
8.657889e+002,6.447253e+001
8.667532e+002,6.826025e+001
8.677174e+002,7.171558e+001
8.686816e+002,7.351892e+001
8.696459e+002,7.176147e+001
8.706101e+002,6.585938e+001
8.715743e+002,6.356335e+001
8.725386e+002,6.809924e+001
8.735028e+002,7.190015e+001
8.744670e+002,7.101172e+001
8.754313e+002,6.769983e+001
8.763955e+002,6.731421e+001
8.773597e+002,7.273340e+001
8.783240e+002,7.849683e+001
8.792882e+002,8.017273e+001
8.802524e+002,8.012646e+001
8.812167e+002,7.974939e+001
8.821809e+002,7.984802e+001
8.831451e+002,8.131116e+001
8.841094e+002,8.551270e+001
8.850736e+002,9.279749e+001
8.860378e+002,9.976746e+001
8.870021e+002,1.068099e+002
8.879663e+002,1.113196e+002
8.889305e+002,1.096479e+002
8.898948e+002,1.032604e+002
8.908590e+002,1.010659e+002
8.918232e+002,1.076219e+002
8.927875e+002,1.130055e+002
8.937517e+002,1.142445e+002
8.947159e+002,1.142876e+002
8.956802e+002,1.150178e+002
8.966444e+002,1.166493e+002
8.976086e+002,1.184543e+002
8.985729e+002,1.205081e+002
8.995371e+002,1.229563e+002
9.005013e+002,1.254421e+002
9.014656e+002,1.281364e+002
9.024298e+002,1.308027e+002
9.033940e+002,1.329451e+002
9.043583e+002,1.339747e+002
9.053225e+002,1.331813e+002
9.062867e+002,1.262151e+002
9.072510e+002,1.223652e+002
9.082152e+002,1.252823e+002
9.091794e+002,1.305441e+002
9.101437e+002,1.337905e+002
9.111079e+002,1.342668e+002
9.120721e+002,1.337593e+002
9.130364e+002,1.317898e+002
9.140006e+002,1.292379e+002
9.149648e+002,1.269725e+002
9.159291e+002,1.253984e+002
9.168933e+002,1.244785e+002
9.178575e+002,1.238961e+002
9.188218e+002,1.233052e+002
9.197860e+002,1.225225e+002
9.207502e+002,1.212279e+002
9.217145e+002,1.203738e+002
9.226787e+002,1.210264e+002
9.236429e+002,1.228394e+002
9.246072e+002,1.252169e+002
9.255714e+002,1.281770e+002
9.265356e+002,1.290642e+002
9.274999e+002,1.260510e+002
9.284641e+002,1.218901e+002
9.294283e+002,1.171747e+002
9.303926e+002,1.125231e+002
9.313568e+002,1.084246e+002
9.323210e+002,1.050688e+002
9.332853e+002,1.022664e+002
9.342495e+002,1.002610e+002
9.352137e+002,9.836548e+001
9.361780e+002,9.567371e+001
9.371422e+002,9.248633e+001
9.381064e+002,9.054163e+001
9.390707e+002,9.186780e+001
9.400349e+002,9.661304e+001
9.409991e+002,9.911304e+001
9.419634e+002,9.804565e+001
9.429276e+002,9.646570e+001
9.438918e+002,9.607031e+001
9.448561e+002,9.561218e+001
9.458203e+002,9.210083e+001
9.467845e+002,8.395435e+001
9.477488e+002,7.758276e+001
9.487130e+002,7.956250e+001
9.496772e+002,8.376062e+001
9.506415e+002,8.527258e+001
9.516057e+002,8.403345e+001
9.525699e+002,8.305798e+001
9.535342e+002,8.526123e+001
9.544984e+002,8.988452e+001
9.554626e+002,9.252454e+001
9.564269e+002,9.424536e+001
9.573911e+002,9.460413e+001
9.583553e+002,9.201501e+001
9.593196e+002,8.821216e+001
9.602838e+002,8.643982e+001
9.612480e+002,8.734875e+001
9.622123e+002,8.707043e+001
9.631765e+002,8.355273e+001
9.641407e+002,7.999390e+001
9.651050e+002,7.729639e+001
9.660692e+002,7.541162e+001
9.670334e+002,7.408093e+001
9.679977e+002,7.345947e+001
9.689619e+002,7.437878e+001
9.699261e+002,7.816870e+001
9.708904e+002,8.357483e+001
9.718546e+002,8.854724e+001
9.728188e+002,9.222510e+001
9.737831e+002,9.601782e+001
9.747473e+002,1.021278e+002
9.757115e+002,1.110920e+002
9.766758e+002,1.207253e+002
9.776400e+002,1.370585e+002
9.786042e+002,1.477195e+002
9.795685e+002,1.476141e+002
9.805327e+002,1.400724e+002
9.814969e+002,1.291472e+002
9.824612e+002,1.165521e+002
9.834254e+002,1.046337e+002
9.843896e+002,9.462793e+001
9.853539e+002,8.610901e+001
9.863181e+002,7.904956e+001
9.872823e+002,7.303723e+001
9.882466e+002,6.802063e+001
9.892108e+002,6.463977e+001
9.901750e+002,6.333875e+001
9.911393e+002,6.142322e+001
9.921035e+002,5.417688e+001
9.930677e+002,5.095618e+001
9.940320e+002,5.463232e+001
9.949962e+002,6.171521e+001
9.959604e+002,7.041516e+001
9.969247e+002,8.035657e+001
9.978889e+002,8.765222e+001
9.988531e+002,8.719934e+001
9.998174e+002,8.565918e+001
1.000782e+003,8.845129e+001
1.001746e+003,9.345544e+001
1.002710e+003,9.677954e+001
1.003674e+003,9.678394e+001
1.004639e+003,9.555237e+001
1.005603e+003,9.701563e+001
1.006567e+003,1.012623e+002
1.007531e+003,1.021869e+002
1.008495e+003,9.864307e+001
1.009460e+003,9.452393e+001
1.010424e+003,9.196265e+001
1.011388e+003,9.091797e+001
1.012352e+003,9.106030e+001
1.013317e+003,9.368384e+001
1.014281e+003,9.383044e+001
1.015245e+003,8.900208e+001
1.016209e+003,8.210217e+001
1.017174e+003,7.478821e+001
1.018138e+003,6.775623e+001
1.019102e+003,6.121777e+001
1.020066e+003,5.548682e+001
1.021031e+003,5.077954e+001
1.021995e+003,4.680042e+001
1.022959e+003,4.285059e+001
1.023923e+003,3.849854e+001
1.024887e+003,3.340759e+001
1.025852e+003,2.792615e+001
1.026816e+003,2.276294e+001
1.027780e+003,1.832166e+001
1.028744e+003,1.453625e+001
1.029709e+003,1.007581e+001
1.030673e+003,7.539917e+000
1.031637e+003,9.375610e+000
1.032601e+003,1.258215e+001
1.033566e+003,1.320496e+001
1.034530e+003,1.004956e+001
1.035494e+003,5.398193e+000
1.036458e+003,-3.659668e-001
1.037422e+003,-5.002808e+000
1.038387e+003,-3.539795e+000
1.039351e+003,3.336670e+000
1.040315e+003,1.005688e+001
1.041279e+003,1.264661e+001
1.042244e+003,1.220081e+001
1.043208e+003,1.291479e+001
1.044172e+003,1.500720e+001
1.045136e+003,1.678528e+001
1.046101e+003,1.902539e+001
1.047065e+003,2.074548e+001
1.048029e+003,2.097791e+001
1.048993e+003,1.982324e+001
1.049958e+003,1.813416e+001
1.050922e+003,1.622827e+001
1.051886e+003,1.513159e+001
1.052850e+003,1.573438e+001
1.053814e+003,1.747449e+001
1.054779e+003,2.025720e+001
1.055743e+003,2.367017e+001
1.056707e+003,2.632751e+001
1.057671e+003,2.658557e+001
1.058636e+003,2.430750e+001
1.059600e+003,2.132349e+001
1.060564e+003,1.790491e+001
1.061528e+003,1.488416e+001
1.062493e+003,1.041980e+001
1.063457e+003,6.580444e+000
1.064421e+003,6.869019e+000
1.065385e+003,1.177734e+001
1.066349e+003,1.634094e+001
1.067314e+003,1.835059e+001
1.068278e+003,1.885791e+001
1.069242e+003,1.791443e+001
1.070206e+003,1.667725e+001
1.071171e+003,1.695227e+001
1.072135e+003,1.904834e+001
1.073099e+003,2.085303e+001
1.074063e+003,1.901758e+001
1.075028e+003,1.313745e+001
1.075992e+003,1.272107e+001
1.076956e+003,2.159558e+001
1.077920e+003,2.766443e+001
1.078885e+003,2.592432e+001
1.079849e+003,1.955322e+001
1.080813e+003,1.337402e+001
1.081777e+003,7.814697e+000
1.082741e+003,4.172241e+000
1.083706e+003,3.317383e+000
1.084670e+003,3.363892e+000
1.085634e+003,3.792664e+000
1.086598e+003,4.308472e+000
1.087563e+003,4.762329e+000
1.088527e+003,5.336365e+000
1.089491e+003,6.554688e+000
1.090455e+003,8.738037e+000
1.091420e+003,1.156097e+001
1.092384e+003,1.338281e+001
1.093348e+003,1.385791e+001
1.094312e+003,1.318378e+001
1.095276e+003,1.108423e+001
1.096241e+003,8.618530e+000
1.097205e+003,8.213318e+000
1.098169e+003,1.040356e+001
1.099133e+003,1.259155e+001
1.100098e+003,1.529462e+001
1.101062e+003,1.688293e+001
1.102026e+003,1.552649e+001
1.102990e+003,1.228510e+001
1.103955e+003,9.315796e+000
1.104919e+003,7.829041e+000
1.105883e+003,7.518860e+000
1.106847e+003,8.326904e+000
1.107812e+003,1.016278e+001
1.108776e+003,1.079541e+001
1.109740e+003,9.394043e+000
1.110704e+003,8.341370e+000
1.111668e+003,1.023816e+001
1.112633e+003,1.467932e+001
1.113597e+003,1.843951e+001
1.114561e+003,2.111658e+001
1.115525e+003,2.209021e+001
1.116490e+003,1.904132e+001
1.117454e+003,1.633093e+001
1.118418e+003,1.777600e+001
1.119382e+003,2.262482e+001
1.120347e+003,2.774158e+001
1.121311e+003,3.074536e+001
1.122275e+003,3.119952e+001
1.123239e+003,2.883594e+001
1.124203e+003,2.483630e+001
1.125168e+003,2.447723e+001
1.126132e+003,2.921741e+001
1.127096e+003,3.531104e+001
1.128060e+003,4.065472e+001
1.129025e+003,4.472400e+001
1.129989e+003,4.539246e+001
1.130953e+003,4.006097e+001
1.131917e+003,3.636182e+001
1.132882e+003,3.623853e+001
1.133846e+003,3.860773e+001
1.134810e+003,4.426294e+001
1.135774e+003,5.177368e+001
1.136739e+003,5.803876e+001
1.137703e+003,6.131750e+001
1.138667e+003,6.405194e+001
1.139631e+003,7.140570e+001
1.140595e+003,8.244897e+001
1.141560e+003,8.927716e+001
1.142524e+003,9.008923e+001
1.143488e+003,9.356006e+001
1.144452e+003,1.059467e+002
1.145417e+003,1.254755e+002
1.146381e+003,1.461787e+002
1.147345e+003,1.686168e+002
1.148309e+003,1.895691e+002
1.149274e+003,2.059696e+002
1.150238e+003,2.237048e+002
1.151202e+003,2.478964e+002
1.152166e+003,2.757615e+002
1.153130e+003,3.019665e+002
1.154095e+003,3.233871e+002
1.155059e+003,3.400551e+002
1.156023e+003,3.534887e+002
1.156987e+003,3.628514e+002
1.157952e+003,3.636710e+002
1.158916e+003,3.564228e+002
1.159880e+003,3.447820e+002
1.160844e+003,3.289382e+002
1.161809e+003,3.085526e+002
1.162773e+003,2.835061e+002
1.163737e+003,2.522557e+002
1.164701e+003,2.237343e+002
1.165666e+003,2.014022e+002
1.166630e+003,1.818844e+002
1.167594e+003,1.631740e+002
1.168558e+003,1.467775e+002
1.169522e+003,1.354635e+002
1.170487e+003,1.297045e+002
1.171451e+003,1.270771e+002
1.172415e+003,1.249471e+002
1.173379e+003,1.231636e+002
1.174344e+003,1.219139e+002
1.175308e+003,1.214113e+002
1.176272e+003,1.209155e+002
1.177236e+003,1.215576e+002
1.178201e+003,1.214333e+002
1.179165e+003,1.170973e+002
1.180129e+003,1.080739e+002
1.181093e+003,9.933722e+001
1.182057e+003,9.225830e+001
1.183022e+003,8.565735e+001
1.183986e+003,7.803546e+001
1.184950e+003,7.138000e+001
1.185914e+003,6.758997e+001
1.186879e+003,6.700006e+001
1.187843e+003,6.936951e+001
1.188807e+003,7.444128e+001
1.189771e+003,8.048199e+001
1.190736e+003,8.265894e+001
1.191700e+003,8.045789e+001
1.192664e+003,7.879193e+001
1.193628e+003,7.862195e+001
1.194593e+003,7.903564e+001
1.195557e+003,8.083099e+001
1.196521e+003,8.258765e+001
1.197485e+003,7.853320e+001
1.198449e+003,6.551459e+001
1.199414e+003,5.433875e+001
1.200378e+003,5.229150e+001
1.201342e+003,5.158954e+001
1.202306e+003,4.701025e+001
1.203271e+003,3.959070e+001
1.204235e+003,3.259601e+001
1.205199e+003,2.784265e+001
1.206163e+003,2.494257e+001
1.207128e+003,2.337860e+001
1.208092e+003,2.336597e+001
1.209056e+003,1.990692e+001
1.210020e+003,1.163861e+001
1.210984e+003,3.466675e+000
1.211949e+003,-3.829529e+000
1.212913e+003,-1.016669e+001
1.213877e+003,-1.489819e+001
1.214841e+003,-1.791650e+001
1.215806e+003,-2.098016e+001
1.216770e+003,-2.575500e+001
1.217734e+003,-2.930505e+001
1.218698e+003,-2.850586e+001
1.219663e+003,-2.663586e+001
1.220627e+003,-2.762885e+001
1.221591e+003,-3.206604e+001
1.222555e+003,-3.833221e+001
1.223520e+003,-4.496814e+001
1.224484e+003,-5.113928e+001
1.225448e+003,-5.388684e+001
1.226412e+003,-5.184534e+001
1.227376e+003,-4.925494e+001
1.228341e+003,-4.541467e+001
1.229305e+003,-4.218732e+001
1.230269e+003,-4.034973e+001
1.231233e+003,-3.997394e+001
1.232198e+003,-4.119659e+001
1.233162e+003,-4.389825e+001
1.234126e+003,-4.663519e+001
1.235090e+003,-4.898181e+001
1.236055e+003,-5.096210e+001
1.237019e+003,-5.293597e+001
1.237983e+003,-5.464459e+001
1.238947e+003,-5.454608e+001
1.239911e+003,-5.180011e+001
1.240876e+003,-4.852637e+001
1.241840e+003,-4.822681e+001
1.242804e+003,-5.104211e+001
1.243768e+003,-5.358057e+001
1.244733e+003,-5.763110e+001
1.245697e+003,-5.868774e+001
1.246661e+003,-5.558716e+001
1.247625e+003,-5.106934e+001
1.248590e+003,-4.564807e+001
1.249554e+003,-4.005731e+001
1.250518e+003,-3.637756e+001
1.251482e+003,-3.588617e+001
1.252447e+003,-3.701587e+001
1.253411e+003,-3.764172e+001
1.254375e+003,-3.793988e+001
1.255339e+003,-3.975830e+001
1.256303e+003,-4.269397e+001
1.257268e+003,-4.180835e+001
1.258232e+003,-3.311731e+001
1.259196e+003,-2.179376e+001
1.260160e+003,-1.866931e+001
1.261125e+003,-2.532642e+001
1.262089e+003,-2.756793e+001
1.263053e+003,-2.072852e+001
1.264017e+003,-1.419873e+001
1.264982e+003,-8.870178e+000
1.265946e+003,-5.387878e+000
1.266910e+003,-4.727295e+000
1.267874e+003,-6.422119e+000
1.268839e+003,-8.972595e+000
1.269803e+003,-1.137006e+001
1.270767e+003,-1.352930e+001
1.271731e+003,-1.502277e+001
1.272695e+003,-1.570831e+001
1.273660e+003,-1.745380e+001
1.274624e+003,-2.134998e+001
1.275588e+003,-2.564465e+001
1.276552e+003,-2.966412e+001
1.277517e+003,-3.249957e+001
1.278481e+003,-3.223987e+001
1.279445e+003,-2.859998e+001
1.280409e+003,-2.692267e+001
1.281374e+003,-3.031726e+001
1.282338e+003,-3.406390e+001
1.283302e+003,-3.576025e+001
1.284266e+003,-3.653149e+001
1.285230e+003,-3.757123e+001
1.286195e+003,-3.921021e+001
1.287159e+003,-4.131232e+001
1.288123e+003,-4.356860e+001
1.289087e+003,-4.521014e+001
1.290052e+003,-4.469360e+001
1.291016e+003,-4.125983e+001
1.291980e+003,-3.985101e+001
1.292944e+003,-4.158704e+001
1.293909e+003,-4.452704e+001
1.294873e+003,-4.845972e+001
1.295837e+003,-5.211609e+001
1.296801e+003,-5.386377e+001
1.297766e+003,-5.355298e+001
1.298730e+003,-5.253424e+001
1.299694e+003,-5.157050e+001
1.300658e+003,-5.076917e+001
1.301622e+003,-4.991980e+001
1.302587e+003,-4.898486e+001
1.303551e+003,-4.824109e+001
1.304515e+003,-4.752460e+001
1.305479e+003,-4.620544e+001
1.306444e+003,-4.389063e+001
1.307408e+003,-4.118286e+001
1.308372e+003,-3.943665e+001
1.309336e+003,-3.882111e+001
1.310301e+003,-3.881323e+001
1.311265e+003,-3.962427e+001
1.312229e+003,-4.017218e+001
1.313193e+003,-4.021240e+001
1.314157e+003,-3.999994e+001
1.315122e+003,-3.950153e+001
1.316086e+003,-3.913751e+001
1.317050e+003,-3.992432e+001
1.318014e+003,-4.238831e+001
1.318979e+003,-4.554718e+001
1.319943e+003,-4.878784e+001
1.320907e+003,-5.136987e+001
1.321871e+003,-4.889783e+001
1.322836e+003,-3.975940e+001
1.323800e+003,-3.300385e+001
1.324764e+003,-3.565619e+001
1.325728e+003,-4.233453e+001
1.326693e+003,-4.328369e+001
1.327657e+003,-3.837445e+001
1.328621e+003,-3.638214e+001
1.329585e+003,-4.091498e+001
1.330549e+003,-4.370721e+001
1.331514e+003,-4.080621e+001
1.332478e+003,-3.625989e+001
1.333442e+003,-3.280084e+001
1.334406e+003,-3.084113e+001
1.335371e+003,-3.046136e+001
1.336335e+003,-3.163062e+001
1.337299e+003,-3.315588e+001
1.338263e+003,-3.284613e+001
1.339228e+003,-3.037689e+001
1.340192e+003,-2.893402e+001
1.341156e+003,-2.850708e+001
1.342120e+003,-2.906390e+001
1.343084e+003,-3.218176e+001
1.344049e+003,-3.573212e+001
1.345013e+003,-3.801599e+001
1.345977e+003,-3.851746e+001
1.346941e+003,-3.623492e+001
1.347906e+003,-3.059192e+001
1.348870e+003,-2.633618e+001
1.349834e+003,-2.927100e+001
1.350798e+003,-3.582434e+001
1.351763e+003,-3.823956e+001
1.352727e+003,-3.704388e+001
1.353691e+003,-3.642322e+001
1.354655e+003,-3.796130e+001
1.355620e+003,-4.008801e+001
1.356584e+003,-4.112671e+001
1.357548e+003,-4.094843e+001
1.358512e+003,-3.970935e+001
1.359476e+003,-3.773047e+001
1.360441e+003,-3.550989e+001
1.361405e+003,-3.133734e+001
1.362369e+003,-2.841425e+001
1.363333e+003,-2.909167e+001
1.364298e+003,-3.160010e+001
1.365262e+003,-3.384711e+001
1.366226e+003,-3.495709e+001
1.367190e+003,-3.444946e+001
1.368155e+003,-3.183600e+001
1.369119e+003,-2.813629e+001
1.370083e+003,-2.648572e+001
1.371047e+003,-2.705780e+001
1.372011e+003,-2.826654e+001
1.372976e+003,-3.239594e+001
1.373940e+003,-3.519141e+001
1.374904e+003,-3.425519e+001
1.375868e+003,-3.126318e+001
1.376833e+003,-2.765198e+001
1.377797e+003,-2.414630e+001
1.378761e+003,-2.313690e+001
1.379725e+003,-2.629279e+001
1.380690e+003,-2.965009e+001
1.381654e+003,-2.896057e+001
1.382618e+003,-2.574548e+001
1.383582e+003,-2.114624e+001
1.384547e+003,-1.573547e+001
1.385511e+003,-1.206268e+001
1.386475e+003,-1.176361e+001
1.387439e+003,-1.343011e+001
1.388403e+003,-1.536530e+001
1.389368e+003,-1.761169e+001
1.390332e+003,-1.779938e+001
1.391296e+003,-1.359937e+001
1.392260e+003,-1.130688e+001
1.393225e+003,-1.384412e+001
1.394189e+003,-1.704199e+001
1.395153e+003,-1.910620e+001
1.396117e+003,-1.997919e+001
1.397082e+003,-1.957935e+001
1.398046e+003,-1.808057e+001
1.399010e+003,-1.630798e+001
1.399974e+003,-1.527228e+001
1.400938e+003,-1.567950e+001
1.401903e+003,-1.846240e+001
1.402867e+003,-2.358008e+001
1.403831e+003,-2.486969e+001
1.404795e+003,-2.041614e+001
1.405760e+003,-1.614819e+001
1.406724e+003,-1.508270e+001
1.407688e+003,-1.618555e+001
1.408652e+003,-1.785046e+001
1.409617e+003,-1.913519e+001
1.410581e+003,-1.873492e+001
1.411545e+003,-1.577911e+001
1.412509e+003,-1.309589e+001
1.413474e+003,-1.459052e+001
1.414438e+003,-1.820654e+001
1.415402e+003,-1.918347e+001
1.416366e+003,-1.752045e+001
1.417330e+003,-1.657452e+001
1.418295e+003,-1.796606e+001
1.419259e+003,-1.923267e+001
1.420223e+003,-1.724023e+001
1.421187e+003,-1.292419e+001
1.422152e+003,-1.024182e+001
1.423116e+003,-8.907288e+000
1.424080e+003,-8.601868e+000
1.425044e+003,-1.232666e+001
1.426009e+003,-1.468640e+001
1.426973e+003,-1.164001e+001
1.427937e+003,-7.095337e+000
1.428901e+003,-6.085327e+000
1.429865e+003,-8.352051e+000
1.430830e+003,-9.514893e+000
1.431794e+003,-6.948120e+000
1.432758e+003,-3.494324e+000
1.433722e+003,-4.506775e+000
1.434687e+003,-1.003662e+001
1.435651e+003,-9.812866e+000
1.436615e+003,6.508179e-001
1.437579e+003,6.802979e+000
1.438544e+003,4.792725e+000
1.439508e+003,1.202087e+000
1.440472e+003,5.607910e-001
1.441436e+003,2.160034e+000
1.442401e+003,3.675415e+000
1.443365e+003,4.306824e+000
1.444329e+003,4.407349e+000
1.445293e+003,4.321594e+000
1.446257e+003,4.243103e+000
1.447222e+003,4.193787e+000
1.448186e+003,4.129211e+000
1.449150e+003,4.184082e+000
1.450114e+003,4.175476e+000
1.451079e+003,4.373352e+000
1.452043e+003,5.551208e+000
1.453007e+003,7.230408e+000
1.453971e+003,8.934082e+000
1.454936e+003,1.018878e+001
1.455900e+003,8.607971e+000
1.456864e+003,2.770996e+000
1.457828e+003,-1.702515e+000
1.458792e+003,-3.894043e-001
1.459757e+003,1.944214e+000
1.460721e+003,1.274597e+000
1.461685e+003,-1.313904e+000
1.462649e+003,-3.268860e+000
1.463614e+003,-3.688965e+000
1.464578e+003,-3.169678e+000
1.465542e+003,-2.335144e+000
1.466506e+003,-1.435059e+000
1.467471e+003,-5.825195e-001
1.468435e+003,8.179932e-001
1.469399e+003,2.029846e+000
1.470363e+003,1.005310e+000
1.471328e+003,1.536499e+000
1.472292e+003,6.433350e+000
1.473256e+003,1.028540e+001
1.474220e+003,8.861816e+000
1.475184e+003,4.584717e+000
1.476149e+003,1.657837e+000
1.477113e+003,1.372803e+000
1.478077e+003,2.820496e+000
1.479041e+003,5.628723e+000
1.480006e+003,9.197083e+000
1.480970e+003,1.021564e+001
1.481934e+003,6.659363e+000
1.482898e+003,7.166443e+000
1.483863e+003,1.537946e+001
1.484827e+003,2.181714e+001
1.485791e+003,2.353986e+001
1.486755e+003,2.368231e+001
1.487719e+003,2.419061e+001
1.488684e+003,2.520190e+001
1.489648e+003,2.686707e+001
1.490612e+003,2.945026e+001
1.491576e+003,3.270068e+001
1.492541e+003,3.634570e+001
1.493505e+003,3.999109e+001
1.494469e+003,4.246484e+001
1.495433e+003,4.359583e+001
1.496398e+003,4.589465e+001
1.497362e+003,5.058203e+001
1.498326e+003,5.616455e+001
1.499290e+003,6.105420e+001
1.500255e+003,6.679907e+001
1.501219e+003,7.610840e+001
1.502183e+003,8.816290e+001
1.503147e+003,9.829968e+001
1.504111e+003,1.047483e+002
1.505076e+003,1.131772e+002
1.506040e+003,1.278368e+002
1.507004e+003,1.452653e+002
1.507968e+003,1.614691e+002
1.508933e+003,1.776910e+002
1.509897e+003,1.965397e+002
1.510861e+003,2.192369e+002
1.511825e+003,2.452791e+002
1.512790e+003,2.735919e+002
1.513754e+003,3.046304e+002
1.514718e+003,3.416217e+002
1.515682e+003,3.840167e+002
1.516646e+003,4.216471e+002
1.517611e+003,4.540591e+002
1.518575e+003,4.823571e+002
1.519539e+003,5.085223e+002
1.520503e+003,5.299686e+002
1.521468e+003,5.436854e+002
1.522432e+003,5.520704e+002
1.523396e+003,5.596614e+002
1.524360e+003,5.659323e+002
1.525325e+003,5.659113e+002
1.526289e+003,5.564293e+002
1.527253e+003,5.392033e+002
1.528217e+003,5.167710e+002
1.529182e+003,4.895278e+002
1.530146e+003,4.587294e+002
1.531110e+003,4.221866e+002
1.532074e+003,3.850529e+002
1.533039e+003,3.478679e+002
1.534003e+003,3.078816e+002
1.534967e+003,2.609459e+002
1.535931e+003,2.146207e+002
1.536896e+003,1.762648e+002
1.537860e+003,1.469015e+002
1.538824e+003,1.245308e+002
1.539788e+003,1.076121e+002
1.540752e+003,9.431726e+001
1.541717e+003,8.264911e+001
1.542681e+003,7.294934e+001
1.543645e+003,6.558887e+001
1.544609e+003,6.180853e+001
1.545573e+003,5.884344e+001
1.546538e+003,5.590680e+001
1.547502e+003,5.331610e+001
1.548466e+003,5.174164e+001
1.549430e+003,5.141296e+001
1.550395e+003,5.214380e+001
1.551359e+003,5.366174e+001
1.552323e+003,5.709491e+001
1.553287e+003,6.247272e+001
1.554252e+003,6.407367e+001
1.555216e+003,5.601166e+001
1.556180e+003,4.287665e+001
1.557144e+003,3.524939e+001
1.558109e+003,3.361346e+001
1.559073e+003,3.309735e+001
1.560037e+003,3.372284e+001
1.561001e+003,3.355243e+001
1.561966e+003,3.275830e+001
1.562930e+003,3.154938e+001
1.563894e+003,2.841486e+001
1.564858e+003,2.477191e+001
1.565823e+003,2.497485e+001
1.566787e+003,2.954486e+001
1.567751e+003,3.376898e+001
1.568715e+003,3.537543e+001
1.569679e+003,3.506030e+001
1.570644e+003,3.195978e+001
1.571608e+003,2.754907e+001
1.572572e+003,2.767065e+001
1.573536e+003,3.294147e+001
1.574500e+003,3.691492e+001
1.575465e+003,3.697778e+001
1.576429e+003,3.554901e+001
1.577393e+003,3.337134e+001
1.578357e+003,3.122870e+001
1.579322e+003,3.131244e+001
1.580286e+003,3.376611e+001
1.581250e+003,3.659235e+001
1.582214e+003,3.944055e+001
1.583179e+003,4.148260e+001
1.584143e+003,4.103412e+001
1.585107e+003,3.988745e+001
1.586071e+003,4.182971e+001
1.587036e+003,4.608667e+001
1.588000e+003,4.812317e+001
1.588964e+003,4.645538e+001
1.589928e+003,4.487360e+001
1.590893e+003,4.608826e+001
1.591857e+003,4.877197e+001
1.592821e+003,5.146613e+001
1.593785e+003,5.405701e+001
1.594750e+003,5.501318e+001
1.595714e+003,5.354529e+001
1.596678e+003,5.270636e+001
1.597642e+003,5.322479e+001
1.598606e+003,5.566650e+001
1.599571e+003,6.298108e+001
1.600535e+003,7.118622e+001
1.601499e+003,7.414923e+001
1.602463e+003,7.232330e+001
1.603427e+003,7.123480e+001
1.604392e+003,7.333716e+001
1.605356e+003,7.534967e+001
1.606320e+003,7.344141e+001
1.607284e+003,6.909119e+001
1.608249e+003,6.611963e+001
1.609213e+003,6.453766e+001
1.610177e+003,6.494061e+001
1.611141e+003,6.850421e+001
1.612106e+003,7.141394e+001
1.613070e+003,7.194867e+001
1.614034e+003,7.085657e+001
1.614998e+003,6.713690e+001
1.615963e+003,6.280817e+001
1.616927e+003,6.143433e+001
1.617891e+003,6.313477e+001
1.618855e+003,6.476886e+001
1.619820e+003,6.424493e+001
1.620784e+003,6.246124e+001
1.621748e+003,6.130804e+001
1.622712e+003,6.141907e+001
1.623677e+003,6.256787e+001
1.624641e+003,6.491797e+001
1.625605e+003,6.776245e+001
1.626569e+003,7.040131e+001
1.627533e+003,7.186865e+001
1.628498e+003,7.253418e+001
1.629462e+003,7.235480e+001
1.630426e+003,6.989099e+001
1.631390e+003,6.664337e+001
1.632354e+003,6.619061e+001
1.633319e+003,6.911340e+001
1.634283e+003,7.244574e+001
1.635247e+003,7.411249e+001
1.636211e+003,7.425800e+001
1.637176e+003,7.300018e+001
1.638140e+003,7.069318e+001
1.639104e+003,6.936041e+001
1.640068e+003,6.899347e+001
1.641033e+003,6.892700e+001
1.641997e+003,6.949420e+001
1.642961e+003,7.014844e+001
1.643925e+003,7.096545e+001
1.644890e+003,7.137012e+001
1.645854e+003,6.999609e+001
1.646818e+003,6.768909e+001
1.647782e+003,6.677045e+001
1.648747e+003,6.789679e+001
1.649711e+003,7.014148e+001
1.650675e+003,7.349072e+001
1.651639e+003,7.680890e+001
1.652604e+003,7.663251e+001
1.653568e+003,7.284814e+001
1.654532e+003,6.982117e+001
1.655496e+003,6.795355e+001
1.656460e+003,6.623486e+001
1.657425e+003,6.440112e+001
1.658389e+003,6.307092e+001
1.659353e+003,6.293945e+001
1.660317e+003,6.307886e+001
1.661281e+003,6.220667e+001
1.662246e+003,6.056219e+001
1.663210e+003,5.988776e+001
1.664174e+003,6.081213e+001
1.665138e+003,6.059705e+001
1.666103e+003,5.600024e+001
1.667067e+003,4.962427e+001
1.668031e+003,4.758081e+001
1.668995e+003,4.961151e+001
1.669960e+003,4.960388e+001
1.670924e+003,4.635822e+001
1.671888e+003,4.515033e+001
1.672852e+003,4.942078e+001
1.673817e+003,5.291852e+001
1.674781e+003,5.048846e+001
1.675745e+003,4.609125e+001
1.676709e+003,4.423804e+001
1.677674e+003,4.429553e+001
1.678638e+003,4.272534e+001
1.679602e+003,3.849176e+001
1.680566e+003,3.522076e+001
1.681531e+003,3.632275e+001
1.682495e+003,3.985486e+001
1.683459e+003,4.268811e+001
1.684423e+003,4.439337e+001
1.685387e+003,4.358252e+001
1.686352e+003,3.995844e+001
1.687316e+003,3.633612e+001
1.688280e+003,3.264093e+001
1.689244e+003,3.092352e+001
1.690208e+003,3.488513e+001
1.691173e+003,3.991840e+001
1.692137e+003,4.096503e+001
1.693101e+003,3.918738e+001
1.694065e+003,3.788818e+001
1.695030e+003,3.745929e+001
1.695994e+003,3.657422e+001
1.696958e+003,3.427722e+001
1.697922e+003,3.180280e+001
1.698887e+003,3.089630e+001
1.699851e+003,3.114398e+001
1.700815e+003,3.084271e+001
1.701779e+003,2.964075e+001
1.702744e+003,2.827106e+001
1.703708e+003,2.732092e+001
1.704672e+003,2.700610e+001
1.705636e+003,2.720416e+001
1.706601e+003,2.709949e+001
1.707565e+003,2.630084e+001
1.708529e+003,2.517999e+001
1.709493e+003,2.360431e+001
1.710458e+003,2.135773e+001
1.711422e+003,1.984857e+001
1.712386e+003,2.036371e+001
1.713350e+003,2.169019e+001
1.714314e+003,2.305865e+001
1.715279e+003,2.365735e+001
1.716243e+003,2.202753e+001
1.717207e+003,1.870221e+001
1.718171e+003,1.626166e+001
1.719135e+003,1.551898e+001
1.720100e+003,1.539374e+001
1.721064e+003,1.497424e+001
1.722028e+003,1.478680e+001
1.722992e+003,1.651746e+001
1.723957e+003,1.993945e+001
1.724921e+003,2.083325e+001
1.725885e+003,1.804175e+001
1.726849e+003,1.534631e+001
1.727814e+003,1.356281e+001
1.728778e+003,1.333759e+001
1.729742e+003,1.612225e+001
1.730706e+003,1.920258e+001
1.731671e+003,1.967181e+001
1.732635e+003,1.759064e+001
1.733599e+003,1.403619e+001
1.734563e+003,1.006580e+001
1.735528e+003,6.927551e+000
1.736492e+003,5.063721e+000
1.737456e+003,5.059326e+000
1.738420e+003,8.005066e+000
1.739385e+003,1.217572e+001
1.740349e+003,1.232184e+001
1.741313e+003,7.551880e+000
1.742277e+003,5.021790e+000
1.743241e+003,6.847412e+000
1.744206e+003,8.177368e+000
1.745170e+003,7.737488e+000
1.746134e+003,6.961609e+000
1.747098e+003,6.190002e+000
1.748063e+003,5.774170e+000
1.749027e+003,6.415955e+000
1.749991e+003,7.771362e+000
1.750955e+003,8.977356e+000
1.751919e+003,9.491089e+000
1.752884e+003,8.565247e+000
1.753848e+003,5.527161e+000
1.754812e+003,1.991516e+000
1.755776e+003,1.810730e+000
1.756741e+003,5.213623e+000
1.757705e+003,6.610229e+000
1.758669e+003,4.757263e+000
1.759633e+003,3.480225e+000
1.760598e+003,3.609863e+000
1.761562e+003,2.992615e+000
1.762526e+003,-8.002319e-001
1.763490e+003,-2.921631e+000
1.764455e+003,2.270935e+000
1.765419e+003,1.040802e+001
1.766383e+003,1.426660e+001
1.767347e+003,1.307678e+001
1.768312e+003,1.041644e+001
1.769276e+003,7.801758e+000
1.770240e+003,5.664978e+000
1.771204e+003,5.339294e+000
1.772168e+003,6.277588e+000
1.773133e+003,6.267944e+000
1.774097e+003,5.364624e+000
1.775061e+003,4.085327e+000
1.776025e+003,1.846985e+000
1.776990e+003,6.145020e-001
1.777954e+003,2.024170e+000
1.778918e+003,3.880249e+000
1.779882e+003,3.848938e+000
1.780846e+003,3.157471e+000
1.781811e+003,4.289185e+000
1.782775e+003,6.683350e+000
1.783739e+003,7.937683e+000
1.784703e+003,7.745483e+000
1.785668e+003,7.949524e+000
1.786632e+003,9.848267e+000
1.787596e+003,1.054175e+001
1.788560e+003,7.330322e+000
1.789525e+003,3.224548e+000
1.790489e+003,1.490295e+000
1.791453e+003,1.908936e+000
1.792417e+003,4.129578e+000
1.793382e+003,7.777893e+000
1.794346e+003,1.057111e+001
1.795310e+003,1.125879e+001
1.796274e+003,1.029059e+001
1.797239e+003,8.167603e+000
1.798203e+003,6.021667e+000
1.799167e+003,5.890381e+000
1.800131e+003,7.271301e+000
1.801095e+003,7.685730e+000
1.802060e+003,6.718689e+000
1.803024e+003,7.274292e+000
1.803988e+003,1.137762e+001
1.804952e+003,1.426801e+001
1.805917e+003,1.346979e+001
1.806881e+003,1.054602e+001
1.807845e+003,5.689209e+000
1.808809e+003,9.541016e-001
1.809773e+003,-1.594849e-001
1.810738e+003,2.646729e+000
1.811702e+003,6.645996e+000
1.812666e+003,1.001611e+001
1.813630e+003,1.192633e+001
1.814595e+003,1.095715e+001
1.815559e+003,7.877869e+000
1.816523e+003,6.282227e+000
1.817487e+003,6.325989e+000
1.818452e+003,7.682495e+000
1.819416e+003,1.181055e+001
1.820380e+003,1.408435e+001
1.821344e+003,1.125793e+001
1.822309e+003,8.233521e+000
1.823273e+003,8.948181e+000
1.824237e+003,1.067908e+001
1.825201e+003,9.186646e+000
1.826166e+003,6.230164e+000
1.827130e+003,8.127502e+000
1.828094e+003,1.557721e+001
1.829058e+003,1.995007e+001
1.830022e+003,1.610138e+001
1.830987e+003,1.103455e+001
1.831951e+003,1.117120e+001
1.832915e+003,1.316833e+001
1.833879e+003,1.123853e+001
1.834844e+003,6.984985e+000
1.835808e+003,6.168152e+000
1.836772e+003,9.486938e+000
1.837736e+003,1.354315e+001
1.838700e+003,1.671393e+001
1.839665e+003,1.851740e+001
1.840629e+003,1.856354e+001
1.841593e+003,1.760944e+001
1.842557e+003,1.699579e+001
1.843522e+003,1.668323e+001
1.844486e+003,1.511353e+001
1.845450e+003,1.130023e+001
1.846414e+003,9.276428e+000
1.847379e+003,9.392151e+000
1.848343e+003,9.356934e+000
1.849307e+003,8.628418e+000
1.850271e+003,7.900940e+000
1.851236e+003,7.740479e+000
1.852200e+003,8.290039e+000
1.853164e+003,9.545776e+000
1.854128e+003,1.077350e+001
1.855093e+003,1.099493e+001
1.856057e+003,1.028217e+001
1.857021e+003,9.538940e+000
1.857985e+003,9.232849e+000
1.858949e+003,9.225891e+000
1.859914e+003,9.314819e+000
1.860878e+003,9.740234e+000
1.861842e+003,1.135229e+001
1.862806e+003,1.403046e+001
1.863771e+003,1.664899e+001
1.864735e+003,1.910010e+001
1.865699e+003,2.006024e+001
1.866663e+003,1.821228e+001
1.867627e+003,1.699945e+001
1.868592e+003,2.054553e+001
1.869556e+003,2.519879e+001
1.870520e+003,2.397260e+001
1.871484e+003,1.788245e+001
1.872449e+003,1.421039e+001
1.873413e+003,1.548193e+001
1.874377e+003,1.704175e+001
1.875341e+003,1.558026e+001
1.876306e+003,1.449097e+001
1.877270e+003,1.586450e+001
1.878234e+003,1.793701e+001
1.879198e+003,1.910553e+001
1.880163e+003,1.984100e+001
1.881127e+003,2.179846e+001
1.882091e+003,2.460736e+001
1.883055e+003,2.553571e+001
1.884020e+003,2.360675e+001
1.884984e+003,2.120563e+001
1.885948e+003,2.050348e+001
1.886912e+003,2.110114e+001
1.887876e+003,2.248242e+001
1.888841e+003,2.454272e+001
1.889805e+003,2.518732e+001
1.890769e+003,2.409747e+001
1.891733e+003,2.333759e+001
1.892698e+003,2.296094e+001
1.893662e+003,2.236359e+001
1.894626e+003,2.086621e+001
1.895590e+003,2.005963e+001
1.896554e+003,2.180627e+001
1.897519e+003,2.472174e+001
1.898483e+003,2.725641e+001
1.899447e+003,2.880994e+001
1.900411e+003,2.871777e+001
1.901376e+003,2.692474e+001
1.902340e+003,2.537701e+001
1.903304e+003,2.466870e+001
1.904268e+003,2.441187e+001
1.905233e+003,2.455841e+001
1.906197e+003,2.519391e+001
1.907161e+003,2.703522e+001
1.908125e+003,2.928931e+001
1.909090e+003,3.002258e+001
1.910054e+003,2.914838e+001
1.911018e+003,2.800281e+001
1.911982e+003,2.736578e+001
1.912947e+003,2.756067e+001
1.913911e+003,2.869733e+001
1.914875e+003,3.038428e+001
1.915839e+003,3.185657e+001
1.916803e+003,3.291327e+001
1.917768e+003,3.449005e+001
1.918732e+003,3.725067e+001
1.919696e+003,3.810272e+001
1.920660e+003,3.655615e+001
1.921625e+003,3.507007e+001
1.922589e+003,3.317291e+001
1.923553e+003,3.241229e+001
1.924517e+003,3.440466e+001
1.925481e+003,3.732440e+001
1.926446e+003,4.098065e+001
1.927410e+003,4.391986e+001
1.928374e+003,4.215802e+001
1.929338e+003,3.575604e+001
1.930303e+003,3.170111e+001
1.931267e+003,3.307660e+001
1.932231e+003,3.471075e+001
1.933195e+003,3.309747e+001
1.934160e+003,3.138440e+001
1.935124e+003,3.208539e+001
1.936088e+003,3.355267e+001
1.937052e+003,3.397253e+001
1.938017e+003,3.407385e+001
1.938981e+003,3.594037e+001
1.939945e+003,3.915320e+001
1.940909e+003,4.030438e+001
1.941874e+003,3.796649e+001
1.942838e+003,3.522235e+001
1.943802e+003,3.532275e+001
1.944766e+003,3.721765e+001
1.945730e+003,3.785461e+001
1.946695e+003,3.719495e+001
1.947659e+003,3.748785e+001
1.948623e+003,3.872546e+001
1.949587e+003,4.001471e+001
1.950552e+003,4.205426e+001
1.951516e+003,4.157593e+001
1.952480e+003,3.584344e+001
1.953444e+003,3.080762e+001
1.954408e+003,3.063721e+001
1.955373e+003,3.288959e+001
1.956337e+003,3.601691e+001
1.957301e+003,3.949438e+001
1.958265e+003,3.890314e+001
1.959230e+003,3.330157e+001
1.960194e+003,3.155157e+001
1.961158e+003,3.720166e+001
1.962122e+003,4.175763e+001
1.963087e+003,4.260760e+001
1.964051e+003,4.258173e+001
1.965015e+003,4.345142e+001
1.965979e+003,4.490948e+001
1.966944e+003,4.668390e+001
1.967908e+003,4.782227e+001
1.968872e+003,4.650323e+001
1.969836e+003,4.344739e+001
1.970801e+003,4.206171e+001
1.971765e+003,4.375543e+001
1.972729e+003,4.638904e+001
1.973693e+003,4.843091e+001
1.974657e+003,4.945630e+001
1.975622e+003,4.762708e+001
1.976586e+003,4.440485e+001
1.977550e+003,4.446979e+001
1.978514e+003,4.757965e+001
1.979479e+003,5.137744e+001
1.980443e+003,5.525049e+001
1.981407e+003,5.745966e+001
1.982371e+003,5.751483e+001
1.983335e+003,5.601514e+001
1.984300e+003,5.283215e+001
1.985264e+003,4.958087e+001
1.986228e+003,4.915106e+001
1.987192e+003,5.102924e+001
1.988157e+003,5.266681e+001
1.989121e+003,5.426331e+001
1.990085e+003,5.551990e+001
1.991049e+003,5.733667e+001
1.992014e+003,5.748419e+001
1.992978e+003,5.275952e+001
1.993942e+003,4.986505e+001
1.994906e+003,5.310303e+001
1.995871e+003,5.691650e+001
1.996835e+003,5.712500e+001
1.997799e+003,5.567773e+001
1.998763e+003,5.507135e+001
1.999728e+003,5.527789e+001
