5.003444e+002,2.914777e+001
5.013087e+002,3.070131e+001
5.022729e+002,3.091141e+001
5.032371e+002,3.026753e+001
5.042014e+002,3.018005e+001
5.051656e+002,3.056856e+001
5.061298e+002,3.071567e+001
5.070941e+002,2.983736e+001
5.080583e+002,2.745587e+001
5.090225e+002,2.636838e+001
5.099868e+002,2.750862e+001
5.109510e+002,2.852466e+001
5.119152e+002,2.788274e+001
5.128795e+002,2.539212e+001
5.138437e+002,2.379362e+001
5.148079e+002,2.478952e+001
5.157722e+002,2.622575e+001
5.167364e+002,2.761896e+001
5.177006e+002,2.858331e+001
5.186649e+002,2.866035e+001
5.196291e+002,2.673450e+001
5.205933e+002,2.423790e+001
5.215576e+002,2.237958e+001
5.225218e+002,2.125325e+001
5.234860e+002,2.077243e+001
5.244503e+002,2.099480e+001
5.254145e+002,2.247824e+001
5.263787e+002,2.294870e+001
5.273430e+002,2.169148e+001
5.283072e+002,1.990985e+001
5.292714e+002,1.928969e+001
5.302357e+002,2.041281e+001
5.311999e+002,2.098030e+001
5.321641e+002,2.107413e+001
5.331284e+002,2.074751e+001
5.340926e+002,1.956863e+001
5.350568e+002,1.718668e+001
5.360211e+002,1.532176e+001
5.369853e+002,1.670361e+001
5.379495e+002,1.894939e+001
5.389138e+002,1.995065e+001
5.398780e+002,1.892424e+001
5.408422e+002,1.674048e+001
5.418065e+002,1.584303e+001
5.427707e+002,1.604498e+001
5.437349e+002,1.616118e+001
5.446992e+002,1.586804e+001
5.456634e+002,1.525620e+001
5.466276e+002,1.468150e+001
5.475919e+002,1.350107e+001
5.485561e+002,1.346230e+001
5.495203e+002,1.593967e+001
5.504846e+002,1.902797e+001
5.514488e+002,1.985013e+001
5.524130e+002,1.650923e+001
5.533773e+002,1.302747e+001
5.543415e+002,1.159552e+001
5.553057e+002,1.111061e+001
5.562700e+002,1.015170e+001
5.572342e+002,7.849197e+000
5.581984e+002,5.464905e+000
5.591627e+002,6.687668e+000
5.601269e+002,1.028879e+001
5.610911e+002,1.403465e+001
5.620554e+002,1.683099e+001
5.630196e+002,1.852682e+001
5.639838e+002,1.813499e+001
5.649481e+002,1.382574e+001
5.659123e+002,1.013414e+001
5.668765e+002,8.017151e+000
5.678408e+002,7.243729e+000
5.688050e+002,6.967224e+000
5.697692e+002,7.169113e+000
5.707335e+002,7.185760e+000
5.716977e+002,6.962219e+000
5.726619e+002,6.521957e+000
5.736262e+002,5.772278e+000
5.745904e+002,4.550949e+000
5.755546e+002,3.585785e+000
5.765189e+002,3.917694e+000
5.774831e+002,4.992401e+000
5.784473e+002,6.169754e+000
5.794116e+002,7.070129e+000
5.803758e+002,7.783966e+000
5.813400e+002,8.063095e+000
5.823043e+002,7.791199e+000
5.832685e+002,7.019913e+000
5.842327e+002,5.494171e+000
5.851970e+002,3.514847e+000
5.861612e+002,2.421143e+000
5.871254e+002,2.742126e+000
5.880897e+002,3.492783e+000
5.890539e+002,5.165817e+000
5.900181e+002,6.934998e+000
5.909824e+002,7.389313e+000
5.919466e+002,5.146194e+000
5.929108e+002,2.601807e+000
5.938751e+002,2.233246e+000
5.948393e+002,3.300156e+000
5.958035e+002,4.910049e+000
5.967678e+002,6.409851e+000
5.977320e+002,7.760727e+000
5.986962e+002,7.972809e+000
5.996605e+002,6.909668e+000
6.006247e+002,5.767532e+000
6.015889e+002,5.182281e+000
6.025532e+002,5.113998e+000
6.035174e+002,4.672653e+000
6.044816e+002,2.956375e+000
6.054459e+002,1.922897e+000
6.064101e+002,2.317627e+000
6.073743e+002,3.501465e+000
6.083386e+002,4.371338e+000
6.093028e+002,4.443420e+000
6.102670e+002,3.932709e+000
6.112313e+002,2.679474e+000
6.121955e+002,1.192856e+000
6.131597e+002,1.586304e-001
6.141240e+002,3.419495e-002
6.150882e+002,5.535583e-001
6.160524e+002,4.290771e-001
6.170167e+002,-1.490936e-001
6.179809e+002,2.442627e-001
6.189451e+002,2.759659e+000
6.199094e+002,6.797287e+000
6.208736e+002,8.251862e+000
6.218378e+002,4.032913e+000
6.228021e+002,9.155121e-001
6.237663e+002,-1.835632e-001
6.247305e+002,1.244965e-001
6.256948e+002,7.920990e-001
6.266590e+002,1.476440e+000
6.276232e+002,2.041916e+000
6.285875e+002,2.585709e+000
6.295517e+002,3.117493e+000
6.305159e+002,3.634735e+000
6.314802e+002,4.083649e+000
6.324444e+002,4.319260e+000
6.334086e+002,4.047501e+000
6.343729e+002,3.503128e+000
6.353371e+002,2.807236e+000
6.363013e+002,1.890305e+000
6.372656e+002,8.776398e-001
6.382298e+002,3.693390e-001
6.391940e+002,1.558884e+000
6.401583e+002,1.471924e+000
6.411225e+002,-8.301697e-001
6.420867e+002,-3.658234e+000
6.430510e+002,-4.988724e+000
6.440152e+002,-4.003815e+000
6.449794e+002,-3.040939e+000
6.459437e+002,-3.519241e+000
6.469079e+002,-4.367172e+000
6.478721e+002,-4.582703e+000
6.488364e+002,-3.869156e+000
6.498006e+002,-2.996994e+000
6.507648e+002,-4.087875e+000
6.517291e+002,-6.036636e+000
6.526933e+002,-5.380356e+000
6.536575e+002,-1.297867e+000
6.546218e+002,3.838303e+000
6.555860e+002,5.386963e+000
6.565502e+002,8.404999e-001
6.575145e+002,-2.272278e+000
6.584787e+002,-3.530334e+000
6.594429e+002,-3.898804e+000
6.604072e+002,-3.943069e+000
6.613714e+002,-3.688660e+000
6.623356e+002,-3.516739e+000
6.632999e+002,-3.940918e+000
6.642641e+002,-4.394791e+000
6.652283e+002,-4.286118e+000
6.661926e+002,-3.675247e+000
6.671568e+002,-3.277435e+000
6.681210e+002,-4.398773e+000
6.690853e+002,-6.045944e+000
6.700495e+002,-5.175400e+000
6.710137e+002,-1.910202e+000
6.719780e+002,1.325394e+000
6.729422e+002,1.840897e+000
6.739064e+002,-1.117310e+000
6.748707e+002,-2.695038e+000
6.758349e+002,-2.388306e+000
6.767991e+002,-1.798203e+000
6.777634e+002,-1.473114e+000
6.787276e+002,-1.280472e+000
6.796918e+002,-7.127991e-001
6.806561e+002,7.184753e-001
6.816203e+002,1.950027e+000
6.825845e+002,2.452347e+000
6.835488e+002,2.507416e+000
6.845130e+002,2.764557e+000
6.854772e+002,3.819611e+000
6.864415e+002,4.951309e+000
6.874057e+002,4.045273e+000
6.883699e+002,1.625946e+000
6.893342e+002,-7.056122e-001
6.902984e+002,-2.013138e+000
6.912626e+002,-2.402481e+000
6.922269e+002,-2.935760e+000
6.931911e+002,-4.395569e+000
6.941553e+002,-4.456146e+000
6.951196e+002,-1.973190e+000
6.960838e+002,1.455734e+000
6.970480e+002,3.301270e+000
6.980123e+002,2.521912e+000
6.989765e+002,1.622910e+000
6.999407e+002,1.894577e+000
7.009050e+002,2.326813e+000
7.018692e+002,1.883423e+000
7.028334e+002,3.277893e-001
7.037977e+002,-1.374664e+000
7.047619e+002,-1.513626e+000
7.057261e+002,-4.967957e-001
7.066904e+002,8.874969e-001
7.076546e+002,2.500427e+000
7.086188e+002,3.838470e+000
7.095831e+002,4.068893e+000
7.105473e+002,2.791641e+000
7.115115e+002,1.221390e+000
7.124758e+002,-1.696915e+000
7.134400e+002,-3.942032e+000
7.144042e+002,-3.631897e+000
7.153685e+002,-7.733002e-001
7.163327e+002,1.241074e+000
7.172969e+002,-4.011536e-002
7.182612e+002,-1.685074e+000
7.192254e+002,-2.961060e+000
7.201896e+002,-3.699860e+000
7.211539e+002,-3.831146e+000
7.221181e+002,-3.212021e+000
7.230823e+002,-2.135498e+000
7.240466e+002,-1.268906e+000
7.250108e+002,-5.094299e-001
7.259750e+002,-1.012268e-001
7.269393e+002,-4.028473e-001
7.279035e+002,-1.404831e+000
7.288677e+002,-1.809174e+000
7.298320e+002,-3.034210e-001
7.307962e+002,7.486877e-001
7.317604e+002,1.047409e+000
7.327247e+002,9.047089e-001
7.336889e+002,5.560150e-001
7.346531e+002,-2.682953e-001
7.356174e+002,-1.087692e+000
7.365816e+002,-9.389191e-001
7.375458e+002,-6.679993e-001
7.385101e+002,-1.219406e+000
7.394743e+002,-2.656754e+000
7.404385e+002,-4.050339e+000
7.414028e+002,-4.015274e+000
7.423670e+002,-2.954163e+000
7.433312e+002,-1.743378e+000
7.442955e+002,-1.907806e-001
7.452597e+002,1.547043e+000
7.462239e+002,3.329346e+000
7.471882e+002,5.309570e+000
7.481524e+002,6.216751e+000
7.491166e+002,4.947021e+000
7.500809e+002,3.656372e+000
7.510451e+002,3.337997e+000
7.520093e+002,3.729904e+000
7.529736e+002,3.666504e+000
7.539378e+002,2.374969e+000
7.549020e+002,1.255234e+000
7.558663e+002,1.589005e+000
7.568306e+002,2.455750e+000
7.577948e+002,2.207611e+000
7.587590e+002,-7.061768e-002
7.597233e+002,-3.224152e+000
7.606875e+002,-2.793747e+000
7.616517e+002,7.947235e-001
7.626160e+002,2.898254e+000
7.635802e+002,2.016281e+000
7.645444e+002,-5.613556e-001
7.655087e+002,-2.370117e+000
7.664729e+002,-3.762192e+000
7.674371e+002,-3.399017e+000
7.684014e+002,4.796906e-001
7.693656e+002,4.225372e+000
7.703298e+002,5.351685e+000
7.712941e+002,3.707138e+000
7.722583e+002,1.478989e+000
7.732225e+002,-3.622131e-001
7.741868e+002,-1.559830e+000
7.751510e+002,-1.852768e+000
7.761152e+002,-1.330017e+000
7.770795e+002,-6.811523e-002
7.780437e+002,1.867767e+000
7.790079e+002,4.208191e+000
7.799722e+002,4.596832e+000
7.809364e+002,2.880432e+000
7.819006e+002,1.498535e+000
7.828649e+002,1.652557e+000
7.838291e+002,2.990280e+000
7.847933e+002,4.200531e+000
7.857576e+002,5.620117e+000
7.867218e+002,5.631454e+000
7.876860e+002,3.035202e+000
7.886503e+002,7.821655e-002
7.896145e+002,-1.433777e+000
7.905787e+002,-1.028992e+000
7.915430e+002,2.916870e-001
7.925072e+002,2.052856e+000
7.934714e+002,3.527634e+000
7.944357e+002,4.068634e+000
7.953999e+002,3.737411e+000
7.963641e+002,2.677109e+000
7.973284e+002,8.764343e-001
7.982926e+002,-1.827515e+000
7.992568e+002,-1.396637e+000
8.002211e+002,3.950287e+000
8.011853e+002,7.929779e+000
8.021495e+002,7.945908e+000
8.031138e+002,5.112930e+000
8.040780e+002,2.686172e+000
8.050422e+002,5.683441e-001
8.060065e+002,-2.458649e-001
8.069707e+002,1.106079e+000
8.079349e+002,3.183533e+000
8.088992e+002,4.755020e+000
8.098634e+002,5.408798e+000
8.108276e+002,5.662369e+000
8.117919e+002,6.425430e+000
8.127561e+002,6.803131e+000
8.137203e+002,4.894287e+000
8.146846e+002,7.142029e-001
8.156488e+002,-3.325348e+000
8.166130e+002,-4.245346e+000
8.175773e+002,-1.426956e+000
8.185415e+002,5.791321e-001
8.195057e+002,7.441254e-001
8.204700e+002,1.246780e+000
8.214342e+002,3.360458e+000
8.223984e+002,6.364624e+000
8.233627e+002,8.297974e+000
8.243269e+002,8.315094e+000
8.252911e+002,7.554993e+000
8.262554e+002,6.091141e+000
8.272196e+002,4.722412e+000
8.281838e+002,4.442780e+000
8.291481e+002,5.487549e+000
8.301123e+002,7.079315e+000
8.310765e+002,7.918655e+000
8.320408e+002,7.944092e+000
8.330050e+002,7.713577e+000
8.339692e+002,7.337799e+000
8.349335e+002,6.566788e+000
8.358977e+002,4.804764e+000
8.368619e+002,1.775589e+000
8.378262e+002,4.181213e-001
8.387904e+002,2.481033e+000
8.397546e+002,4.059906e+000
8.407189e+002,3.853149e+000
8.416831e+002,2.623383e+000
8.426473e+002,1.740891e+000
8.436116e+002,1.787140e+000
8.445758e+002,2.531494e+000
8.455400e+002,4.239792e+000
8.465043e+002,5.900620e+000
8.474685e+002,6.213226e+000
8.484327e+002,5.101608e+000
8.493970e+002,3.829788e+000
8.503612e+002,4.391418e+000
8.513254e+002,7.164276e+000
8.522897e+002,8.554733e+000
8.532539e+002,7.494492e+000
8.542181e+002,6.428513e+000
8.551824e+002,7.522812e+000
8.561466e+002,1.051228e+001
8.571108e+002,1.184047e+001
8.580751e+002,8.182938e+000
8.590393e+002,5.527679e+000
8.600035e+002,6.453033e+000
8.609678e+002,9.229233e+000
8.619320e+002,1.224841e+001
8.628962e+002,1.468124e+001
8.638605e+002,1.604430e+001
8.648247e+002,1.472565e+001
8.657889e+002,1.200722e+001
8.667532e+002,1.078375e+001
8.677174e+002,1.143297e+001
8.686816e+002,1.286667e+001
8.696459e+002,1.390483e+001
8.706101e+002,1.453210e+001
8.715743e+002,1.541788e+001
8.725386e+002,1.700343e+001
8.735028e+002,1.830225e+001
8.744670e+002,1.866643e+001
8.754313e+002,1.846393e+001
8.763955e+002,1.856700e+001
8.773597e+002,1.941324e+001
8.783240e+002,2.033714e+001
8.792882e+002,2.098074e+001
8.802524e+002,2.127731e+001
8.812167e+002,2.087669e+001
8.821809e+002,1.993719e+001
8.831451e+002,1.927940e+001
8.841094e+002,2.007883e+001
8.850736e+002,2.231560e+001
8.860378e+002,2.309811e+001
8.870021e+002,2.202159e+001
8.879663e+002,2.086325e+001
8.889305e+002,2.062027e+001
8.898948e+002,2.104774e+001
8.908590e+002,2.106985e+001
8.918232e+002,2.015199e+001
8.927875e+002,1.990356e+001
8.937517e+002,2.140181e+001
8.947159e+002,2.310004e+001
8.956802e+002,2.326143e+001
8.966444e+002,2.167950e+001
8.976086e+002,2.020201e+001
8.985729e+002,2.118927e+001
8.995371e+002,2.330548e+001
9.005013e+002,2.404543e+001
9.014656e+002,2.358856e+001
9.024298e+002,2.280156e+001
9.033940e+002,2.216803e+001
9.043583e+002,2.166905e+001
9.053225e+002,2.203802e+001
9.062867e+002,2.480391e+001
9.072510e+002,2.618927e+001
9.082152e+002,2.507324e+001
9.091794e+002,2.353981e+001
9.101437e+002,2.389917e+001
9.111079e+002,2.652235e+001
9.120721e+002,2.876108e+001
9.130364e+002,2.843614e+001
9.140006e+002,2.751022e+001
9.149648e+002,2.725587e+001
9.159291e+002,2.750333e+001
9.168933e+002,2.735886e+001
9.178575e+002,2.615285e+001
9.188218e+002,2.436530e+001
9.197860e+002,2.400591e+001
9.207502e+002,2.501678e+001
9.217145e+002,2.616277e+001
9.226787e+002,2.799963e+001
9.236429e+002,2.949733e+001
9.246072e+002,2.863034e+001
9.255714e+002,2.456738e+001
9.265356e+002,2.197466e+001
9.274999e+002,2.297610e+001
9.284641e+002,2.394923e+001
9.294283e+002,2.362411e+001
9.303926e+002,2.249324e+001
9.313568e+002,2.159079e+001
9.323210e+002,2.143349e+001
9.332853e+002,2.166080e+001
9.342495e+002,2.208453e+001
9.352137e+002,2.238644e+001
9.361780e+002,2.189929e+001
9.371422e+002,2.061040e+001
9.381064e+002,1.943146e+001
9.390707e+002,1.957790e+001
9.400349e+002,2.127673e+001
9.409991e+002,2.168785e+001
9.419634e+002,1.993417e+001
9.429276e+002,1.814265e+001
9.438918e+002,1.629895e+001
9.448561e+002,1.499675e+001
9.458203e+002,1.547975e+001
9.467845e+002,1.849548e+001
9.477488e+002,2.149727e+001
9.487130e+002,2.245398e+001
9.496772e+002,2.262114e+001
9.506415e+002,2.264172e+001
9.516057e+002,2.277397e+001
9.525699e+002,2.330289e+001
9.535342e+002,2.452280e+001
9.544984e+002,2.616478e+001
9.554626e+002,2.617712e+001
9.564269e+002,2.453752e+001
9.573911e+002,2.297665e+001
9.583553e+002,2.173305e+001
9.593196e+002,2.083014e+001
9.602838e+002,2.054253e+001
9.612480e+002,2.113388e+001
9.622123e+002,2.101187e+001
9.631765e+002,1.876350e+001
9.641407e+002,1.676053e+001
9.651050e+002,1.602486e+001
9.660692e+002,1.635313e+001
9.670334e+002,1.726613e+001
9.679977e+002,1.856540e+001
9.689619e+002,2.004387e+001
9.699261e+002,2.105521e+001
9.708904e+002,2.153720e+001
9.718546e+002,2.118839e+001
9.728188e+002,1.962885e+001
9.737831e+002,1.825645e+001
9.747473e+002,1.935999e+001
9.757115e+002,2.372307e+001
9.766758e+002,2.655063e+001
9.776400e+002,2.698378e+001
9.786042e+002,2.715289e+001
9.795685e+002,2.770099e+001
9.805327e+002,2.798331e+001
9.814969e+002,2.682513e+001
9.824612e+002,2.391237e+001
9.834254e+002,2.133487e+001
9.843896e+002,2.161076e+001
9.853539e+002,2.282336e+001
9.863181e+002,2.299965e+001
9.872823e+002,2.200751e+001
9.882466e+002,2.067172e+001
9.892108e+002,1.984451e+001
9.901750e+002,1.955215e+001
9.911393e+002,1.858818e+001
9.921035e+002,1.488063e+001
9.930677e+002,1.322797e+001
9.940320e+002,1.585330e+001
9.949962e+002,1.931544e+001
9.959604e+002,1.996738e+001
9.969247e+002,1.773215e+001
9.978889e+002,1.666780e+001
9.988531e+002,1.916492e+001
9.998174e+002,2.237086e+001
1.000782e+003,2.532660e+001
1.001746e+003,2.772914e+001
1.002710e+003,2.914951e+001
1.003674e+003,2.943105e+001
1.004639e+003,2.888574e+001
1.005603e+003,2.800945e+001
1.006567e+003,2.670734e+001
1.007531e+003,2.576779e+001
1.008495e+003,2.527876e+001
1.009460e+003,2.498660e+001
1.010424e+003,2.504863e+001
1.011388e+003,2.529028e+001
1.012352e+003,2.473589e+001
1.013317e+003,2.253012e+001
1.014281e+003,2.087871e+001
1.015245e+003,2.061539e+001
1.016209e+003,2.074582e+001
1.017174e+003,2.078580e+001
1.018138e+003,2.056494e+001
1.019102e+003,2.011919e+001
1.020066e+003,1.955890e+001
1.021031e+003,1.872322e+001
1.021995e+003,1.634941e+001
1.022959e+003,1.270117e+001
1.023923e+003,1.009698e+001
1.024887e+003,9.475174e+000
1.025852e+003,9.852478e+000
1.026816e+003,9.888000e+000
1.027780e+003,9.767624e+000
1.028744e+003,8.917053e+000
1.029709e+003,6.180008e+000
1.030673e+003,3.951965e+000
1.031637e+003,2.749298e+000
1.032601e+003,2.484268e+000
1.033566e+003,3.519257e+000
1.034530e+003,5.926208e+000
1.035494e+003,7.738846e+000
1.036458e+003,5.625122e+000
1.037422e+003,2.136581e+000
1.038387e+003,2.234146e+000
1.039351e+003,5.622650e+000
1.040315e+003,8.324585e+000
1.041279e+003,7.225647e+000
1.042244e+003,3.409958e+000
1.043208e+003,2.068436e+000
1.044172e+003,5.363861e+000
1.045136e+003,7.236542e+000
1.046101e+003,7.186584e+000
1.047065e+003,6.306686e+000
1.048029e+003,4.706680e+000
1.048993e+003,2.774246e+000
1.049958e+003,1.690491e+000
1.050922e+003,2.313934e+000
1.051886e+003,3.380630e+000
1.052850e+003,3.508209e+000
1.053814e+003,3.235886e+000
1.054779e+003,3.356918e+000
1.055743e+003,3.957413e+000
1.056707e+003,4.344086e+000
1.057671e+003,3.629852e+000
1.058636e+003,1.777267e+000
1.059600e+003,1.012695e+000
1.060564e+003,2.305130e+000
1.061528e+003,3.546875e+000
1.062493e+003,4.324402e+000
1.063457e+003,4.765854e+000
1.064421e+003,5.283920e+000
1.065385e+003,5.950363e+000
1.066349e+003,5.786575e+000
1.067314e+003,3.539124e+000
1.068278e+003,1.200912e+000
1.069242e+003,5.886841e-002
1.070206e+003,-1.171875e-001
1.071171e+003,3.275604e-001
1.072135e+003,1.112656e+000
1.073099e+003,1.893204e+000
1.074063e+003,2.149384e+000
1.075028e+003,1.836197e+000
1.075992e+003,2.442413e+000
1.076956e+003,4.637527e+000
1.077920e+003,6.268967e+000
1.078885e+003,6.468292e+000
1.079849e+003,5.814514e+000
1.080813e+003,5.129959e+000
1.081777e+003,4.442902e+000
1.082741e+003,4.286652e+000
1.083706e+003,4.993835e+000
1.084670e+003,6.016693e+000
1.085634e+003,7.933426e+000
1.086598e+003,9.786987e+000
1.087563e+003,9.509232e+000
1.088527e+003,6.212982e+000
1.089491e+003,2.044769e+000
1.090455e+003,1.189377e+000
1.091420e+003,4.001236e+000
1.092384e+003,5.250717e+000
1.093348e+003,4.248062e+000
1.094312e+003,2.808151e+000
1.095276e+003,2.109985e+000
1.096241e+003,1.936722e+000
1.097205e+003,1.179962e+000
1.098169e+003,-9.906921e-001
1.099133e+003,-1.970688e+000
1.100098e+003,3.842773e-001
1.101062e+003,3.164352e+000
1.102026e+003,4.733398e+000
1.102990e+003,5.172501e+000
1.103955e+003,5.308838e+000
1.104919e+003,5.614883e+000
1.105883e+003,5.550674e+000
1.106847e+003,3.545807e+000
1.107812e+003,-3.486786e-001
1.108776e+003,-1.011551e+000
1.109740e+003,3.218155e+000
1.110704e+003,7.687271e+000
1.111668e+003,8.948669e+000
1.112633e+003,7.794266e+000
1.113597e+003,7.396347e+000
1.114561e+003,8.548126e+000
1.115525e+003,8.958633e+000
1.116490e+003,6.974808e+000
1.117454e+003,4.986572e+000
1.118418e+003,5.102783e+000
1.119382e+003,6.683533e+000
1.120347e+003,7.302078e+000
1.121311e+003,5.377670e+000
1.122275e+003,2.556671e+000
1.123239e+003,2.849670e+000
1.124203e+003,6.119080e+000
1.125168e+003,8.015579e+000
1.126132e+003,7.901382e+000
1.127096e+003,7.373291e+000
1.128060e+003,7.451752e+000
1.129025e+003,8.005081e+000
1.129989e+003,8.669418e+000
1.130953e+003,9.499237e+000
1.131917e+003,1.012025e+001
1.132882e+003,1.041138e+001
1.133846e+003,1.063541e+001
1.134810e+003,1.073883e+001
1.135774e+003,1.095631e+001
1.136739e+003,1.169873e+001
1.137703e+003,1.318216e+001
1.138667e+003,1.518361e+001
1.139631e+003,1.755426e+001
1.140595e+003,2.013055e+001
1.141560e+003,2.181053e+001
1.142524e+003,2.223177e+001
1.143488e+003,2.325595e+001
1.144452e+003,2.608772e+001
1.145417e+003,3.047638e+001
1.146381e+003,3.569246e+001
1.147345e+003,4.215710e+001
1.148309e+003,4.810341e+001
1.149274e+003,5.259943e+001
1.150238e+003,5.716037e+001
1.151202e+003,6.262109e+001
1.152166e+003,6.885867e+001
1.153130e+003,7.583784e+001
1.154095e+003,8.325604e+001
1.155059e+003,8.952669e+001
1.156023e+003,9.247412e+001
1.156987e+003,9.229704e+001
1.157952e+003,9.160498e+001
1.158916e+003,9.077223e+001
1.159880e+003,8.890558e+001
1.160844e+003,8.526880e+001
1.161809e+003,7.989043e+001
1.162773e+003,7.272226e+001
1.163737e+003,6.302946e+001
1.164701e+003,5.498840e+001
1.165666e+003,5.111995e+001
1.166630e+003,4.780316e+001
1.167594e+003,4.370277e+001
1.168558e+003,3.931653e+001
1.169522e+003,3.535593e+001
1.170487e+003,3.212979e+001
1.171451e+003,2.979688e+001
1.172415e+003,2.864598e+001
1.173379e+003,2.831638e+001
1.174344e+003,2.679939e+001
1.175308e+003,2.400006e+001
1.176272e+003,2.218057e+001
1.177236e+003,2.281671e+001
1.178201e+003,2.429596e+001
1.179165e+003,2.443802e+001
1.180129e+003,2.313835e+001
1.181093e+003,2.168930e+001
1.182057e+003,1.965549e+001
1.183022e+003,1.876414e+001
1.183986e+003,2.084955e+001
1.184950e+003,2.340869e+001
1.185914e+003,2.376535e+001
1.186879e+003,2.200922e+001
1.187843e+003,2.038214e+001
1.188807e+003,2.068604e+001
1.189771e+003,2.209599e+001
1.190736e+003,2.224030e+001
1.191700e+003,2.095174e+001
1.192664e+003,1.992072e+001
1.193628e+003,1.953894e+001
1.194593e+003,1.927463e+001
1.195557e+003,1.888934e+001
1.196521e+003,1.828023e+001
1.197485e+003,1.694310e+001
1.198449e+003,1.437502e+001
1.199414e+003,1.253185e+001
1.200378e+003,1.319304e+001
1.201342e+003,1.407059e+001
1.202306e+003,1.330411e+001
1.203271e+003,1.159453e+001
1.204235e+003,1.094951e+001
1.205199e+003,1.225436e+001
1.206163e+003,1.404489e+001
1.207128e+003,1.376186e+001
1.208092e+003,1.127226e+001
1.209056e+003,9.764343e+000
1.210020e+003,9.793015e+000
1.210984e+003,9.535950e+000
1.211949e+003,8.256241e+000
1.212913e+003,6.492477e+000
1.213877e+003,5.026291e+000
1.214841e+003,3.931305e+000
1.215806e+003,2.569321e+000
1.216770e+003,2.761078e-001
1.217734e+003,-1.723953e+000
1.218698e+003,-2.578232e+000
1.219663e+003,-2.840698e+000
1.220627e+003,-3.057083e+000
1.221591e+003,-3.395706e+000
1.222555e+003,-3.857834e+000
1.223520e+003,-4.428543e+000
1.224484e+003,-5.029251e+000
1.225448e+003,-5.524536e+000
1.226412e+003,-5.921829e+000
1.227376e+003,-6.236328e+000
1.228341e+003,-6.475632e+000
1.229305e+003,-6.710968e+000
1.230269e+003,-6.730713e+000
1.231233e+003,-6.853668e+000
1.232198e+003,-7.848602e+000
1.233162e+003,-9.916046e+000
1.234126e+003,-1.179584e+001
1.235090e+003,-1.290518e+001
1.236055e+003,-1.317157e+001
1.237019e+003,-1.194809e+001
1.237983e+003,-9.943970e+000
1.238947e+003,-9.079422e+000
1.239911e+003,-1.007736e+001
1.240876e+003,-1.139273e+001
1.241840e+003,-1.067076e+001
1.242804e+003,-7.749146e+000
1.243768e+003,-5.702957e+000
1.244733e+003,-4.288162e+000
1.245697e+003,-4.269226e+000
1.246661e+003,-7.591736e+000
1.247625e+003,-1.086392e+001
1.248590e+003,-1.102528e+001
1.249554e+003,-8.733902e+000
1.250518e+003,-6.871506e+000
1.251482e+003,-6.806961e+000
1.252447e+003,-7.423477e+000
1.253411e+003,-7.254501e+000
1.254375e+003,-6.716385e+000
1.255339e+003,-6.936722e+000
1.256303e+003,-7.869400e+000
1.257268e+003,-8.572693e+000
1.258232e+003,-8.683060e+000
1.259196e+003,-8.295395e+000
1.260160e+003,-7.194580e+000
1.261125e+003,-5.049911e+000
1.262089e+003,-3.651901e+000
1.263053e+003,-4.345673e+000
1.264017e+003,-4.578903e+000
1.264982e+003,-2.835236e+000
1.265946e+003,-9.543457e-001
1.266910e+003,-1.119461e+000
1.267874e+003,-2.977814e+000
1.268839e+003,-4.150681e+000
1.269803e+003,-3.037064e+000
1.270767e+003,-1.027023e+000
1.271731e+003,-8.743591e-001
1.272695e+003,-2.490494e+000
1.273660e+003,-3.559647e+000
1.274624e+003,-4.056900e+000
1.275588e+003,-4.418884e+000
1.276552e+003,-4.816116e+000
1.277517e+003,-5.056442e+000
1.278481e+003,-4.816162e+000
1.279445e+003,-4.071167e+000
1.280409e+003,-3.475159e+000
1.281374e+003,-3.002136e+000
1.282338e+003,-3.053589e+000
1.283302e+003,-4.357117e+000
1.284266e+003,-5.952713e+000
1.285230e+003,-6.584778e+000
1.286195e+003,-6.260574e+000
1.287159e+003,-6.136261e+000
1.288123e+003,-7.119080e+000
1.289087e+003,-8.536880e+000
1.290052e+003,-8.501755e+000
1.291016e+003,-6.497940e+000
1.291980e+003,-5.159561e+000
1.292944e+003,-4.791672e+000
1.293909e+003,-4.820038e+000
1.294873e+003,-4.679138e+000
1.295837e+003,-4.818314e+000
1.296801e+003,-6.392838e+000
1.297766e+003,-9.344330e+000
1.298730e+003,-1.131889e+001
1.299694e+003,-1.073532e+001
1.300658e+003,-9.526459e+000
1.301622e+003,-1.030647e+001
1.302587e+003,-1.168013e+001
1.303551e+003,-1.091093e+001
1.304515e+003,-7.742233e+000
1.305479e+003,-5.217194e+000
1.306444e+003,-6.096405e+000
1.307408e+003,-9.164719e+000
1.308372e+003,-9.944626e+000
1.309336e+003,-7.332428e+000
1.310301e+003,-5.867538e+000
1.311265e+003,-6.563232e+000
1.312229e+003,-7.300034e+000
1.313193e+003,-7.606461e+000
1.314157e+003,-7.617432e+000
1.315122e+003,-7.430862e+000
1.316086e+003,-7.173477e+000
1.317050e+003,-7.018829e+000
1.318014e+003,-7.025452e+000
1.318979e+003,-7.207306e+000
1.319943e+003,-7.897827e+000
1.320907e+003,-8.876251e+000
1.321871e+003,-8.710449e+000
1.322836e+003,-7.214691e+000
1.323800e+003,-5.569305e+000
1.324764e+003,-3.718277e+000
1.325728e+003,-2.403427e+000
1.326693e+003,-3.626953e+000
1.327657e+003,-7.560104e+000
1.328621e+003,-9.742065e+000
1.329585e+003,-7.709915e+000
1.330549e+003,-5.281906e+000
1.331514e+003,-4.613602e+000
1.332478e+003,-4.864014e+000
1.333442e+003,-5.365723e+000
1.334406e+003,-5.853165e+000
1.335371e+003,-6.279251e+000
1.336335e+003,-6.600418e+000
1.337299e+003,-6.502930e+000
1.338263e+003,-5.291672e+000
1.339228e+003,-2.643158e+000
1.340192e+003,-1.927887e+000
1.341156e+003,-5.439545e+000
1.342120e+003,-7.392319e+000
1.343084e+003,-5.557678e+000
1.344049e+003,-3.338806e+000
1.345013e+003,-3.886444e+000
1.345977e+003,-6.335358e+000
1.346941e+003,-7.528625e+000
1.347906e+003,-6.302673e+000
1.348870e+003,-4.373398e+000
1.349834e+003,-3.036850e+000
1.350798e+003,-2.360428e+000
1.351763e+003,-2.426010e+000
1.352727e+003,-3.055603e+000
1.353691e+003,-3.247681e+000
1.354655e+003,-2.390182e+000
1.355620e+003,-1.805511e+000
1.356584e+003,-3.553421e+000
1.357548e+003,-7.213013e+000
1.358512e+003,-9.139969e+000
1.359476e+003,-8.604935e+000
1.360441e+003,-8.324356e+000
1.361405e+003,-9.737778e+000
1.362369e+003,-1.063394e+001
1.363333e+003,-9.341949e+000
1.364298e+003,-7.113083e+000
1.365262e+003,-5.668518e+000
1.366226e+003,-5.475220e+000
1.367190e+003,-6.041260e+000
1.368155e+003,-6.955124e+000
1.369119e+003,-7.945663e+000
1.370083e+003,-8.142014e+000
1.371047e+003,-7.413544e+000
1.372011e+003,-5.926605e+000
1.372976e+003,-2.685226e+000
1.373940e+003,-2.714539e-001
1.374904e+003,1.064911e-001
1.375868e+003,-5.863495e-001
1.376833e+003,-1.397720e+000
1.377797e+003,-2.172424e+000
1.378761e+003,-2.812531e+000
1.379725e+003,-3.315384e+000
1.380690e+003,-3.433655e+000
1.381654e+003,-2.440735e+000
1.382618e+003,-1.083862e+000
1.383582e+003,-3.687897e-001
1.384547e+003,-3.454895e-001
1.385511e+003,-8.105316e-001
1.386475e+003,-1.810196e+000
1.387439e+003,-2.935410e+000
1.388403e+003,-3.436111e+000
1.389368e+003,-3.326248e+000
1.390332e+003,-3.584030e+000
1.391296e+003,-4.603165e+000
1.392260e+003,-5.072708e+000
1.393225e+003,-4.398697e+000
1.394189e+003,-3.545883e+000
1.395153e+003,-2.927307e+000
1.396117e+003,-2.542709e+000
1.397082e+003,-2.313049e+000
1.398046e+003,-2.169769e+000
1.399010e+003,-2.041489e+000
1.399974e+003,-1.926178e+000
1.400938e+003,-1.997818e+000
1.401903e+003,-2.473434e+000
1.402867e+003,-3.232407e+000
1.403831e+003,-3.503998e+000
1.404795e+003,-3.976974e+000
1.405760e+003,-3.372665e+000
1.406724e+003,1.879730e-001
1.407688e+003,3.678711e+000
1.408652e+003,2.868378e+000
1.409617e+003,-1.438751e+000
1.410581e+003,-3.864731e+000
1.411545e+003,-2.027679e+000
1.412509e+003,6.761932e-001
1.413474e+003,8.732452e-001
1.414438e+003,-2.744293e-001
1.415402e+003,-5.474701e-001
1.416366e+003,4.132080e-002
1.417330e+003,4.549408e-001
1.418295e+003,2.913208e-001
1.419259e+003,-1.602631e-001
1.420223e+003,-7.890930e-001
1.421187e+003,-1.575638e+000
1.422152e+003,-1.914749e+000
1.423116e+003,-1.568054e+000
1.424080e+003,-1.092422e+000
1.425044e+003,-5.088806e-001
1.426009e+003,-2.017670e-001
1.426973e+003,-6.678619e-001
1.427937e+003,-1.312637e+000
1.428901e+003,-1.116241e+000
1.429865e+003,-2.139282e-001
1.430830e+003,4.464722e-002
1.431794e+003,-1.256699e+000
1.432758e+003,-3.128357e+000
1.433722e+003,-3.405487e+000
1.434687e+003,-1.750046e+000
1.435651e+003,-7.701416e-001
1.436615e+003,-1.536377e+000
1.437579e+003,-2.140442e+000
1.438544e+003,-2.284195e+000
1.439508e+003,-2.255371e+000
1.440472e+003,-2.177811e+000
1.441436e+003,-1.955521e+000
1.442401e+003,-1.531235e+000
1.443365e+003,-9.028168e-001
1.444329e+003,1.528473e-001
1.445293e+003,2.009903e+000
1.446257e+003,3.946075e+000
1.447222e+003,4.424500e+000
1.448186e+003,3.635468e+000
1.449150e+003,2.538193e+000
1.450114e+003,1.068237e+000
1.451079e+003,-2.866211e-001
1.452043e+003,-1.613602e+000
1.453007e+003,-2.300430e+000
1.453971e+003,-9.024048e-001
1.454936e+003,2.100677e+000
1.455900e+003,3.155731e+000
1.456864e+003,9.001160e-001
1.457828e+003,-8.977051e-001
1.458792e+003,8.692169e-001
1.459757e+003,2.982773e+000
1.460721e+003,2.385864e+000
1.461685e+003,2.286072e-001
1.462649e+003,-9.248352e-001
1.463614e+003,-3.759308e-001
1.464578e+003,8.640594e-001
1.465542e+003,2.083176e+000
1.466506e+003,2.835999e+000
1.467471e+003,1.465408e+000
1.468435e+003,-2.784409e+000
1.469399e+003,-4.683746e+000
1.470363e+003,-2.396210e+000
1.471328e+003,-1.577606e-001
1.472292e+003,1.082031e+000
1.473256e+003,1.753006e+000
1.474220e+003,2.462784e+000
1.475184e+003,3.053696e+000
1.476149e+003,2.535080e+000
1.477113e+003,8.622894e-001
1.478077e+003,-1.249695e-002
1.479041e+003,1.965988e+000
1.480006e+003,5.742752e+000
1.480970e+003,7.538071e+000
1.481934e+003,6.796570e+000
1.482898e+003,5.728043e+000
1.483863e+003,3.459122e+000
1.484827e+003,2.076218e+000
1.485791e+003,2.811005e+000
1.486755e+003,4.262970e+000
1.487719e+003,5.191223e+000
1.488684e+003,5.588989e+000
1.489648e+003,5.791290e+000
1.490612e+003,5.997406e+000
1.491576e+003,6.877289e+000
1.492541e+003,9.178162e+000
1.493505e+003,1.201740e+001
1.494469e+003,1.325494e+001
1.495433e+003,1.308730e+001
1.496398e+003,1.357568e+001
1.497362e+003,1.544724e+001
1.498326e+003,1.704126e+001
1.499290e+003,1.661917e+001
1.500255e+003,1.601573e+001
1.501219e+003,1.810191e+001
1.502183e+003,2.238077e+001
1.503147e+003,2.567513e+001
1.504111e+003,2.703763e+001
1.505076e+003,2.873436e+001
1.506040e+003,3.247615e+001
1.507004e+003,3.677391e+001
1.507968e+003,4.006256e+001
1.508933e+003,4.277361e+001
1.509897e+003,4.547321e+001
1.510861e+003,4.854707e+001
1.511825e+003,5.338440e+001
1.512790e+003,6.122694e+001
1.513754e+003,7.051620e+001
1.514718e+003,7.853662e+001
1.515682e+003,8.518538e+001
1.516646e+003,9.136337e+001
1.517611e+003,9.694051e+001
1.518575e+003,1.028539e+002
1.519539e+003,1.113105e+002
1.520503e+003,1.184016e+002
1.521468e+003,1.213208e+002
1.522432e+003,1.218493e+002
1.523396e+003,1.225587e+002
1.524360e+003,1.237773e+002
1.525325e+003,1.245443e+002
1.526289e+003,1.242494e+002
1.527253e+003,1.221019e+002
1.528217e+003,1.162256e+002
1.529182e+003,1.066424e+002
1.530146e+003,9.951762e+001
1.531110e+003,9.710736e+001
1.532074e+003,9.271710e+001
1.533039e+003,8.492166e+001
1.534003e+003,7.584552e+001
1.534967e+003,6.548842e+001
1.535931e+003,5.546378e+001
1.536896e+003,4.773259e+001
1.537860e+003,4.199548e+001
1.538824e+003,3.601109e+001
1.539788e+003,2.867601e+001
1.540752e+003,2.192905e+001
1.541717e+003,1.845721e+001
1.542681e+003,1.778120e+001
1.543645e+003,1.631206e+001
1.544609e+003,1.361420e+001
1.545573e+003,1.157138e+001
1.546538e+003,9.726379e+000
1.547502e+003,8.766708e+000
1.548466e+003,9.753204e+000
1.549430e+003,1.137967e+001
1.550395e+003,1.248286e+001
1.551359e+003,1.284804e+001
1.552323e+003,1.228088e+001
1.553287e+003,1.083228e+001
1.554252e+003,9.724884e+000
1.555216e+003,1.013156e+001
1.556180e+003,1.126775e+001
1.557144e+003,1.126930e+001
1.558109e+003,1.013101e+001
1.559073e+003,9.357758e+000
1.560037e+003,9.133072e+000
1.561001e+003,8.563446e+000
1.561966e+003,7.217865e+000
1.562930e+003,5.851181e+000
1.563894e+003,5.081894e+000
1.564858e+003,4.712204e+000
1.565823e+003,4.154266e+000
1.566787e+003,3.323990e+000
1.567751e+003,3.132126e+000
1.568715e+003,4.400711e+000
1.569679e+003,5.711594e+000
1.570644e+003,4.747391e+000
1.571608e+003,2.444199e+000
1.572572e+003,1.808456e+000
1.573536e+003,3.025803e+000
1.574500e+003,4.549957e+000
1.575465e+003,6.050598e+000
1.576429e+003,7.350571e+000
1.577393e+003,8.566971e+000
1.578357e+003,9.277725e+000
1.579322e+003,8.142227e+000
1.580286e+003,5.372833e+000
1.581250e+003,4.253662e+000
1.582214e+003,6.179138e+000
1.583179e+003,8.412277e+000
1.584143e+003,8.890991e+000
1.585107e+003,8.509811e+000
1.586071e+003,8.836624e+000
1.587036e+003,9.614182e+000
1.588000e+003,9.491943e+000
1.588964e+003,8.042007e+000
1.589928e+003,6.510773e+000
1.590893e+003,5.468704e+000
1.591857e+003,5.096390e+000
1.592821e+003,6.084564e+000
1.593785e+003,8.131226e+000
1.594750e+003,9.190414e+000
1.595714e+003,8.759613e+000
1.596678e+003,8.689911e+000
1.597642e+003,1.004407e+001
1.598606e+003,1.153433e+001
1.599571e+003,1.224965e+001
1.600535e+003,1.249200e+001
1.601499e+003,1.251414e+001
1.602463e+003,1.235403e+001
1.603427e+003,1.211807e+001
1.604392e+003,1.185262e+001
1.605356e+003,1.155840e+001
1.606320e+003,1.120401e+001
1.607284e+003,1.084154e+001
1.608249e+003,1.048442e+001
1.609213e+003,1.011658e+001
1.610177e+003,1.051251e+001
1.611141e+003,1.230244e+001
1.612106e+003,1.361488e+001
1.613070e+003,1.315451e+001
1.614034e+003,1.219748e+001
1.614998e+003,1.137006e+001
1.615963e+003,1.080898e+001
1.616927e+003,1.070885e+001
1.617891e+003,1.102559e+001
1.618855e+003,1.142256e+001
1.619820e+003,1.165967e+001
1.620784e+003,1.173788e+001
1.621748e+003,1.204327e+001
1.622712e+003,1.256975e+001
1.623677e+003,1.203758e+001
1.624641e+003,1.014499e+001
1.625605e+003,9.071823e+000
1.626569e+003,9.624329e+000
1.627533e+003,9.910675e+000
1.628498e+003,8.448425e+000
1.629462e+003,7.084915e+000
1.630426e+003,7.793228e+000
1.631390e+003,9.700485e+000
1.632354e+003,1.080452e+001
1.633319e+003,1.059688e+001
1.634283e+003,9.744736e+000
1.635247e+003,8.584534e+000
1.636211e+003,7.479416e+000
1.637176e+003,7.192444e+000
1.638140e+003,7.726028e+000
1.639104e+003,8.457367e+000
1.640068e+003,9.529266e+000
1.641033e+003,9.948563e+000
1.641997e+003,8.937958e+000
1.642961e+003,8.098190e+000
1.643925e+003,8.150131e+000
1.644890e+003,8.760345e+000
1.645854e+003,9.952469e+000
1.646818e+003,1.131825e+001
1.647782e+003,1.193623e+001
1.648747e+003,1.155653e+001
1.649711e+003,1.094034e+001
1.650675e+003,1.069627e+001
1.651639e+003,1.088618e+001
1.652604e+003,1.190302e+001
1.653568e+003,1.360625e+001
1.654532e+003,1.328110e+001
1.655496e+003,9.912750e+000
1.656460e+003,7.706314e+000
1.657425e+003,8.795319e+000
1.658389e+003,1.014177e+001
1.659353e+003,1.024393e+001
1.660317e+003,9.626404e+000
1.661281e+003,8.406815e+000
1.662246e+003,6.992493e+000
1.663210e+003,6.508820e+000
1.664174e+003,7.319321e+000
1.665138e+003,8.271942e+000
1.666103e+003,8.475235e+000
1.667067e+003,7.917603e+000
1.668031e+003,6.215698e+000
1.668995e+003,3.558762e+000
1.669960e+003,2.339584e+000
1.670924e+003,2.985077e+000
1.671888e+003,4.178940e+000
1.672852e+003,6.038559e+000
1.673817e+003,7.485001e+000
1.674781e+003,7.610687e+000
1.675745e+003,7.152222e+000
1.676709e+003,6.836090e+000
1.677674e+003,6.658218e+000
1.678638e+003,6.327042e+000
1.679602e+003,5.760803e+000
1.680566e+003,5.291290e+000
1.681531e+003,5.279846e+000
1.682495e+003,5.518799e+000
1.683459e+003,5.483276e+000
1.684423e+003,5.192093e+000
1.685387e+003,5.252533e+000
1.686352e+003,5.832062e+000
1.687316e+003,6.120148e+000
1.688280e+003,5.805466e+000
1.689244e+003,5.230194e+000
1.690208e+003,4.066727e+000
1.691173e+003,3.125290e+000
1.692137e+003,3.919830e+000
1.693101e+003,5.838425e+000
1.694065e+003,6.422165e+000
1.695030e+003,4.932892e+000
1.695994e+003,3.406021e+000
1.696958e+003,3.312195e+000
1.697922e+003,3.671814e+000
1.698887e+003,3.105713e+000
1.699851e+003,2.035172e+000
1.700815e+003,1.730209e+000
1.701779e+003,2.236267e+000
1.702744e+003,2.649979e+000
1.703708e+003,2.728409e+000
1.704672e+003,3.020477e+000
1.705636e+003,4.037125e+000
1.706601e+003,5.059296e+000
1.707565e+003,5.117905e+000
1.708529e+003,4.525909e+000
1.709493e+003,4.185501e+000
1.710458e+003,4.320297e+000
1.711422e+003,3.379929e+000
1.712386e+003,-5.980988e-001
1.713350e+003,-4.113983e+000
1.714314e+003,-4.092361e+000
1.715279e+003,-2.153000e+000
1.716243e+003,-5.931244e-001
1.717207e+003,3.645630e-001
1.718171e+003,6.633759e-001
1.719135e+003,3.111572e-001
1.720100e+003,4.584045e-001
1.721064e+003,2.038467e+000
1.722028e+003,3.834564e+000
1.722992e+003,4.198944e+000
1.723957e+003,3.413696e+000
1.724921e+003,2.447983e+000
1.725885e+003,1.053055e+000
1.726849e+003,-1.213074e-001
1.727814e+003,-8.331451e-001
1.728778e+003,-1.116058e+000
1.729742e+003,-8.462372e-001
1.730706e+003,-3.544617e-001
1.731671e+003,1.662140e-001
1.732635e+003,4.132996e-001
1.733599e+003,1.125336e-001
1.734563e+003,-6.931152e-001
1.735528e+003,-2.296677e+000
1.736492e+003,-4.888916e+000
1.737456e+003,-6.392715e+000
1.738420e+003,-4.069031e+000
1.739385e+003,6.258850e-001
1.740349e+003,2.575668e+000
1.741313e+003,1.282913e+000
1.742277e+003,1.345673e-001
1.743241e+003,-8.659515e-001
1.744206e+003,-1.569916e+000
1.745170e+003,-1.647934e+000
1.746134e+003,-1.892975e+000
1.747098e+003,-3.290253e+000
1.748063e+003,-4.700729e+000
1.749027e+003,-4.400574e+000
1.749991e+003,-2.937027e+000
1.750955e+003,-2.389893e+000
1.751919e+003,-3.315582e+000
1.752884e+003,-3.980331e+000
1.753848e+003,-2.927368e+000
1.754812e+003,-1.265549e+000
1.755776e+003,-1.226044e+000
1.756741e+003,-2.658264e+000
1.757705e+003,-3.566696e+000
1.758669e+003,-3.917175e+000
1.759633e+003,-4.097305e+000
1.760598e+003,-4.599152e+000
1.761562e+003,-4.395676e+000
1.762526e+003,-2.403366e+000
1.763490e+003,-2.428589e-001
1.764455e+003,1.568665e+000
1.765419e+003,2.502045e+000
1.766383e+003,1.011566e+000
1.767347e+003,-2.295151e+000
1.768312e+003,-3.873367e+000
1.769276e+003,-2.048706e+000
1.770240e+003,3.659973e-001
1.771204e+003,4.980316e-001
1.772168e+003,-5.853577e-001
1.773133e+003,-4.958496e-001
1.774097e+003,5.855865e-001
1.775061e+003,7.304993e-001
1.776025e+003,-5.074768e-001
1.776990e+003,-1.495255e+000
1.777954e+003,-1.462769e+000
1.778918e+003,-1.239273e+000
1.779882e+003,-1.705612e+000
1.780846e+003,-2.274307e+000
1.781811e+003,-1.729721e+000
1.782775e+003,-5.131226e-001
1.783739e+003,-3.213043e-001
1.784703e+003,-1.459793e+000
1.785668e+003,-2.373367e+000
1.786632e+003,-2.365265e+000
1.787596e+003,-2.268555e+000
1.788560e+003,-2.698303e+000
1.789525e+003,-3.134766e+000
1.790489e+003,-2.965225e+000
1.791453e+003,-2.329544e+000
1.792417e+003,-1.605179e+000
1.793382e+003,-8.825073e-001
1.794346e+003,2.032471e-002
1.795310e+003,1.258408e+000
1.796274e+003,1.750443e+000
1.797239e+003,1.300812e-001
1.798203e+003,-2.699432e+000
1.799167e+003,-4.276657e+000
1.800131e+003,-4.714157e+000
1.801095e+003,-4.577621e+000
1.802060e+003,-3.036453e+000
1.803024e+003,-1.915894e+000
1.803988e+003,-1.870224e+000
1.804952e+003,-1.830017e+000
1.805917e+003,-1.075836e+000
1.806881e+003,-2.725220e-001
1.807845e+003,-2.076263e-001
1.808809e+003,-5.468750e-001
1.809773e+003,-4.308167e-001
1.810738e+003,2.323456e-001
1.811702e+003,7.377625e-001
1.812666e+003,6.341705e-001
1.813630e+003,1.229553e-001
1.814595e+003,-6.358795e-001
1.815559e+003,-1.456955e+000
1.816523e+003,-1.267197e+000
1.817487e+003,1.055756e-001
1.818452e+003,7.647552e-001
1.819416e+003,4.575195e-001
1.820380e+003,1.858215e-001
1.821344e+003,-2.420044e-002
1.822309e+003,7.568359e-003
1.823273e+003,1.019272e+000
1.824237e+003,1.967850e+000
1.825201e+003,1.385544e+000
1.826166e+003,-1.825867e-001
1.827130e+003,-1.195206e+000
1.828094e+003,-1.412415e+000
1.829058e+003,-1.214508e+000
1.830022e+003,-6.319580e-001
1.830987e+003,1.704559e-001
1.831951e+003,1.632950e+000
1.832915e+003,2.819473e+000
1.833879e+003,1.861298e+000
1.834844e+003,-5.026245e-001
1.835808e+003,-1.972198e+000
1.836772e+003,-2.171158e+000
1.837736e+003,-1.583481e+000
1.838700e+003,-4.044952e-001
1.839665e+003,-1.508789e-001
1.840629e+003,-2.546494e+000
1.841593e+003,-5.609665e+000
1.842557e+003,-4.944107e+000
1.843522e+003,-6.262665e-001
1.844486e+003,1.882126e+000
1.845450e+003,1.947037e+000
1.846414e+003,1.590195e+000
1.847379e+003,5.060577e-001
1.848343e+003,-9.114685e-001
1.849307e+003,-3.508209e+000
1.850271e+003,-5.288406e+000
1.851236e+003,-3.574707e+000
1.852200e+003,-8.670502e-001
1.853164e+003,-1.551407e+000
1.854128e+003,-4.861542e+000
1.855093e+003,-6.100708e+000
1.856057e+003,-3.586945e+000
1.857021e+003,-3.297424e-001
1.857985e+003,1.208084e+000
1.858949e+003,1.517700e+000
1.859914e+003,1.224564e+000
1.860878e+003,4.886169e-001
1.861842e+003,1.379395e-002
1.862806e+003,-2.300568e-001
1.863771e+003,-6.596375e-002
1.864735e+003,6.729736e-001
1.865699e+003,9.048462e-001
1.866663e+003,-1.822052e-001
1.867627e+003,-1.076904e+000
1.868592e+003,-3.768158e-001
1.869556e+003,1.172333e+000
1.870520e+003,2.808563e+000
1.871484e+003,4.293823e+000
1.872449e+003,3.672058e+000
1.873413e+003,2.763367e-002
1.874377e+003,-1.769623e+000
1.875341e+003,8.540802e-001
1.876306e+003,3.613037e+000
1.877270e+003,4.619537e+000
1.878234e+003,4.260803e+000
1.879198e+003,2.022232e+000
1.880163e+003,-7.171478e-001
1.881127e+003,-1.466141e+000
1.882091e+003,-2.442780e-001
1.883055e+003,1.187500e+000
1.884020e+003,1.997833e+000
1.884984e+003,2.280060e+000
1.885948e+003,2.104675e+000
1.886912e+003,1.804367e+000
1.887876e+003,2.138397e+000
1.888841e+003,3.022980e+000
1.889805e+003,3.092636e+000
1.890769e+003,2.002930e+000
1.891733e+003,2.111130e+000
1.892698e+003,4.365433e+000
1.893662e+003,5.834473e+000
1.894626e+003,5.190598e+000
1.895590e+003,3.988464e+000
1.896554e+003,2.796783e+000
1.897519e+003,2.096786e+000
1.898483e+003,2.692261e+000
1.899447e+003,4.135269e+000
1.900411e+003,5.129578e+000
1.901376e+003,5.475708e+000
1.902340e+003,5.901978e+000
1.903304e+003,7.359467e+000
1.904268e+003,7.858231e+000
1.905233e+003,5.443985e+000
1.906197e+003,2.271347e+000
1.907161e+003,2.136230e-004
1.908125e+003,-1.063431e+000
1.909090e+003,-1.343842e-001
1.910054e+003,2.131439e+000
1.911018e+003,3.541611e+000
1.911982e+003,3.468643e+000
1.912947e+003,3.159012e+000
1.913911e+003,3.501785e+000
1.914875e+003,4.122345e+000
1.915839e+003,4.437973e+000
1.916803e+003,4.365784e+000
1.917768e+003,3.781204e+000
1.918732e+003,2.607574e+000
1.919696e+003,1.881775e+000
1.920660e+003,1.754547e+000
1.921625e+003,1.891556e+000
1.922589e+003,2.479095e+000
1.923553e+003,2.761627e+000
1.924517e+003,1.703293e+000
1.925481e+003,7.671661e-001
1.926446e+003,1.763535e+000
1.927410e+003,3.624420e+000
1.928374e+003,3.916046e+000
1.929338e+003,2.587875e+000
1.930303e+003,2.193558e+000
1.931267e+003,3.937576e+000
1.932231e+003,5.305679e+000
1.933195e+003,4.645294e+000
1.934160e+003,3.628281e+000
1.935124e+003,3.659851e+000
1.936088e+003,3.816101e+000
1.937052e+003,2.385025e+000
1.938017e+003,4.884491e-001
1.938981e+003,1.215103e+000
1.939945e+003,4.307373e+000
1.940909e+003,6.017151e+000
1.941874e+003,4.742645e+000
1.942838e+003,2.971207e+000
1.943802e+003,3.096237e+000
1.944766e+003,4.411362e+000
1.945730e+003,5.449203e+000
1.946695e+003,6.101624e+000
1.947659e+003,5.834595e+000
1.948623e+003,4.481674e+000
1.949587e+003,3.878662e+000
1.950552e+003,4.459793e+000
1.951516e+003,5.018326e+000
1.952480e+003,5.134048e+000
1.953444e+003,5.182358e+000
1.954408e+003,5.482285e+000
1.955373e+003,5.677612e+000
1.956337e+003,5.289734e+000
1.957301e+003,4.577774e+000
1.958265e+003,4.012955e+000
1.959230e+003,3.584152e+000
1.960194e+003,3.633438e+000
1.961158e+003,3.981033e+000
1.962122e+003,4.825638e+000
1.963087e+003,7.184235e+000
1.964051e+003,8.929031e+000
1.965015e+003,8.531769e+000
1.965979e+003,7.394333e+000
1.966944e+003,6.688156e+000
1.967908e+003,6.323975e+000
1.968872e+003,5.664871e+000
1.969836e+003,4.909180e+000
1.970801e+003,5.347504e+000
1.971765e+003,7.424484e+000
1.972729e+003,9.278854e+000
1.973693e+003,9.230820e+000
1.974657e+003,8.405273e+000
1.975622e+003,8.470306e+000
1.976586e+003,9.022156e+000
1.977550e+003,9.002197e+000
1.978514e+003,8.549698e+000
1.979479e+003,8.358292e+000
1.980443e+003,8.513519e+000
1.981407e+003,9.025757e+000
1.982371e+003,9.974106e+000
1.983335e+003,1.055031e+001
1.984300e+003,9.961090e+000
1.985264e+003,9.302292e+000
1.986228e+003,1.057156e+001
1.987192e+003,1.302881e+001
1.988157e+003,1.261366e+001
1.989121e+003,8.308090e+000
1.990085e+003,6.717056e+000
1.991049e+003,9.825592e+000
1.992014e+003,1.175542e+001
1.992978e+003,1.153868e+001
1.993942e+003,1.029860e+001
1.994906e+003,6.627899e+000
1.995871e+003,3.912323e+000
1.996835e+003,5.900772e+000
1.997799e+003,9.733627e+000
1.998763e+003,1.125124e+001
1.999728e+003,1.044359e+001
