5.003444e+002,3.482669e+001
5.013087e+002,3.509584e+001
5.022729e+002,3.539235e+001
5.032371e+002,3.566118e+001
5.042014e+002,3.548372e+001
5.051656e+002,3.492439e+001
5.061298e+002,3.399954e+001
5.070941e+002,3.262814e+001
5.080583e+002,3.056441e+001
5.090225e+002,2.919437e+001
5.099868e+002,2.830571e+001
5.109510e+002,2.802609e+001
5.119152e+002,2.863020e+001
5.128795e+002,3.018797e+001
5.138437e+002,3.170152e+001
5.148079e+002,3.359502e+001
5.157722e+002,3.475887e+001
5.167364e+002,3.439890e+001
5.177006e+002,3.256400e+001
5.186649e+002,3.007376e+001
5.196291e+002,2.739761e+001
5.205933e+002,2.522917e+001
5.215576e+002,2.446581e+001
5.225218e+002,2.498573e+001
5.234860e+002,2.600153e+001
5.244503e+002,2.619780e+001
5.254145e+002,2.535493e+001
5.263787e+002,2.512715e+001
5.273430e+002,2.583514e+001
5.283072e+002,2.693742e+001
5.292714e+002,2.769272e+001
5.302357e+002,2.792514e+001
5.311999e+002,2.775075e+001
5.321641e+002,2.742300e+001
5.331284e+002,2.688101e+001
5.340926e+002,2.586288e+001
5.350568e+002,2.417241e+001
5.360211e+002,2.253145e+001
5.369853e+002,2.177660e+001
5.379495e+002,2.147575e+001
5.389138e+002,2.135283e+001
5.398780e+002,2.124007e+001
5.408422e+002,2.110362e+001
5.418065e+002,2.097998e+001
5.427707e+002,2.082477e+001
5.437349e+002,2.007472e+001
5.446992e+002,1.837369e+001
5.456634e+002,1.607315e+001
5.466276e+002,1.443234e+001
5.475919e+002,1.374074e+001
5.485561e+002,1.363049e+001
5.495203e+002,1.432745e+001
5.504846e+002,1.542783e+001
5.514488e+002,1.649222e+001
5.524130e+002,1.761377e+001
5.533773e+002,1.823161e+001
5.543415e+002,1.780055e+001
5.553057e+002,1.699843e+001
5.562700e+002,1.653561e+001
5.572342e+002,1.682942e+001
5.581984e+002,1.743825e+001
5.591627e+002,1.750197e+001
5.601269e+002,1.717783e+001
5.610911e+002,1.637883e+001
5.620554e+002,1.496176e+001
5.630196e+002,1.306274e+001
5.639838e+002,1.231424e+001
5.649481e+002,1.359399e+001
5.659123e+002,1.473935e+001
5.668765e+002,1.558669e+001
5.678408e+002,1.619760e+001
5.688050e+002,1.659605e+001
5.697692e+002,1.669302e+001
5.707335e+002,1.630054e+001
5.716977e+002,1.538690e+001
5.726619e+002,1.407671e+001
5.736262e+002,1.236513e+001
5.745904e+002,1.013441e+001
5.755546e+002,8.112457e+000
5.765189e+002,7.016953e+000
5.774831e+002,6.721756e+000
5.784473e+002,7.555817e+000
5.794116e+002,9.765289e+000
5.803758e+002,1.312550e+001
5.813400e+002,1.355411e+001
5.823043e+002,9.878677e+000
5.832685e+002,6.921783e+000
5.842327e+002,6.912689e+000
5.851970e+002,9.397141e+000
5.861612e+002,1.099106e+001
5.871254e+002,1.004277e+001
5.880897e+002,9.355667e+000
5.890539e+002,9.532181e+000
5.900181e+002,1.025618e+001
5.909824e+002,1.101547e+001
5.919466e+002,1.167271e+001
5.929108e+002,1.190619e+001
5.938751e+002,1.128842e+001
5.948393e+002,1.019719e+001
5.958035e+002,9.177261e+000
5.967678e+002,8.640961e+000
5.977320e+002,8.589325e+000
5.986962e+002,8.942078e+000
5.996605e+002,9.664429e+000
6.006247e+002,9.954620e+000
6.015889e+002,9.279053e+000
6.025532e+002,7.725861e+000
6.035174e+002,6.443573e+000
6.044816e+002,5.131439e+000
6.054459e+002,4.554565e+000
6.064101e+002,5.134354e+000
6.073743e+002,6.479370e+000
6.083386e+002,8.039459e+000
6.093028e+002,9.900970e+000
6.102670e+002,1.115096e+001
6.112313e+002,1.087993e+001
6.121955e+002,9.804901e+000
6.131597e+002,8.783783e+000
6.141240e+002,8.410110e+000
6.150882e+002,8.570709e+000
6.160524e+002,9.270401e+000
6.170167e+002,1.044891e+001
6.179809e+002,1.063174e+001
6.189451e+002,8.764359e+000
6.199094e+002,5.158722e+000
6.208736e+002,2.582581e+000
6.218378e+002,1.074387e+000
6.228021e+002,1.001862e+000
6.237663e+002,3.711487e+000
6.247305e+002,7.590591e+000
6.256948e+002,1.008395e+001
6.266590e+002,9.969131e+000
6.276232e+002,8.506241e+000
6.285875e+002,5.490677e+000
6.295517e+002,2.584381e+000
6.305159e+002,1.888290e+000
6.314802e+002,4.396469e+000
6.324444e+002,8.493118e+000
6.334086e+002,1.014757e+001
6.343729e+002,9.979828e+000
6.353371e+002,8.301147e+000
6.363013e+002,4.751022e+000
6.372656e+002,3.097229e-001
6.382298e+002,-1.381683e+000
6.391940e+002,3.078690e+000
6.401583e+002,5.952454e+000
6.411225e+002,6.431015e+000
6.420867e+002,5.845947e+000
6.430510e+002,5.815552e+000
6.440152e+002,6.976639e+000
6.449794e+002,7.497543e+000
6.459437e+002,5.698975e+000
6.469079e+002,3.522614e+000
6.478721e+002,2.676697e+000
6.488364e+002,3.665390e+000
6.498006e+002,5.320511e+000
6.507648e+002,5.420410e+000
6.517291e+002,4.515030e+000
6.526933e+002,4.043152e+000
6.536575e+002,4.287384e+000
6.546218e+002,4.824158e+000
6.555860e+002,4.826401e+000
6.565502e+002,3.875626e+000
6.575145e+002,3.232971e+000
6.584787e+002,2.976563e+000
6.594429e+002,2.929306e+000
6.604072e+002,2.988617e+000
6.613714e+002,3.152649e+000
6.623356e+002,3.355988e+000
6.632999e+002,3.598175e+000
6.642641e+002,3.731659e+000
6.652283e+002,3.691589e+000
6.661926e+002,3.542603e+000
6.671568e+002,3.406845e+000
6.681210e+002,3.325546e+000
6.690853e+002,3.372803e+000
6.700495e+002,3.955032e+000
6.710137e+002,5.019989e+000
6.719780e+002,5.826782e+000
6.729422e+002,5.505478e+000
6.739064e+002,3.701889e+000
6.748707e+002,2.711014e+000
6.758349e+002,3.343613e+000
6.767991e+002,3.593933e+000
6.777634e+002,2.225769e+000
6.787276e+002,-4.058685e-001
6.796918e+002,-2.069611e+000
6.806561e+002,-1.492050e+000
6.816203e+002,-3.277283e-001
6.825845e+002,1.167480e+000
6.835488e+002,2.718811e+000
6.845130e+002,4.044662e+000
6.854772e+002,4.956085e+000
6.864415e+002,5.575134e+000
6.874057e+002,6.361404e+000
6.883699e+002,7.002823e+000
6.893342e+002,6.595932e+000
6.902984e+002,4.556168e+000
6.912626e+002,1.268173e+000
6.922269e+002,-8.030853e-001
6.931911e+002,-1.215439e+000
6.941553e+002,-6.751556e-001
6.951196e+002,1.678986e+000
6.960838e+002,4.529922e+000
6.970480e+002,5.709854e+000
6.980123e+002,4.168213e+000
6.989765e+002,2.547836e+000
6.999407e+002,1.508713e+000
7.009050e+002,1.120422e+000
7.018692e+002,1.779404e+000
7.028334e+002,3.431320e+000
7.037977e+002,5.218826e+000
7.047619e+002,5.940018e+000
7.057261e+002,5.787964e+000
7.066904e+002,4.702560e+000
7.076546e+002,2.668396e+000
7.086188e+002,4.932098e-001
7.095831e+002,-5.193634e-001
7.105473e+002,-1.313782e-002
7.115115e+002,5.530243e-001
7.124758e+002,1.115753e+000
7.134400e+002,1.727219e+000
7.144042e+002,2.423111e+000
7.153685e+002,3.241135e+000
7.163327e+002,4.272903e+000
7.172969e+002,6.524567e+000
7.182612e+002,8.065735e+000
7.192254e+002,7.836060e+000
7.201896e+002,6.190186e+000
7.211539e+002,3.819565e+000
7.221181e+002,1.157974e+000
7.230823e+002,-1.275284e+000
7.240466e+002,-2.240341e+000
7.250108e+002,-1.919678e+000
7.259750e+002,-9.398193e-001
7.269393e+002,3.404694e-001
7.279035e+002,1.784988e+000
7.288677e+002,2.985153e+000
7.298320e+002,5.067825e+000
7.307962e+002,5.714828e+000
7.317604e+002,3.346176e+000
7.327247e+002,3.294373e-002
7.336889e+002,-1.208694e+000
7.346531e+002,8.384094e-001
7.356174e+002,2.877731e+000
7.365816e+002,3.448013e+000
7.375458e+002,3.322601e+000
7.385101e+002,2.765594e+000
7.394743e+002,2.025436e+000
7.404385e+002,1.466965e+000
7.414028e+002,1.680115e+000
7.423670e+002,2.387177e+000
7.433312e+002,3.010056e+000
7.442955e+002,3.662811e+000
7.452597e+002,4.225540e+000
7.462239e+002,4.427643e+000
7.471882e+002,4.048645e+000
7.481524e+002,4.105545e+000
7.491166e+002,5.121185e+000
7.500809e+002,5.664276e+000
7.510451e+002,4.883026e+000
7.520093e+002,3.128067e+000
7.529736e+002,1.687485e+000
7.539378e+002,1.264755e+000
7.549020e+002,1.427780e+000
7.558663e+002,1.985733e+000
7.568306e+002,2.773193e+000
7.577948e+002,3.668793e+000
7.587590e+002,4.539627e+000
7.597233e+002,5.176651e+000
7.606875e+002,4.920227e+000
7.616517e+002,3.957138e+000
7.626160e+002,3.237640e+000
7.635802e+002,2.999619e+000
7.645444e+002,3.170349e+000
7.655087e+002,3.649857e+000
7.664729e+002,4.727570e+000
7.674371e+002,5.390427e+000
7.684014e+002,5.582016e+000
7.693656e+002,5.423203e+000
7.703298e+002,4.759644e+000
7.712941e+002,3.701660e+000
7.722583e+002,2.984772e+000
7.732225e+002,3.388504e+000
7.741868e+002,4.148361e+000
7.751510e+002,4.912186e+000
7.761152e+002,5.512253e+000
7.770795e+002,5.630310e+000
7.780437e+002,4.961823e+000
7.790079e+002,3.646912e+000
7.799722e+002,3.135986e+000
7.809364e+002,3.381180e+000
7.819006e+002,3.911469e+000
7.828649e+002,5.003418e+000
7.838291e+002,6.358032e+000
7.847933e+002,6.778290e+000
7.857576e+002,5.579483e+000
7.867218e+002,4.174118e+000
7.876860e+002,2.357025e+000
7.886503e+002,9.408569e-001
7.896145e+002,8.092194e-001
7.905787e+002,2.098389e+000
7.915430e+002,3.662277e+000
7.925072e+002,4.268188e+000
7.934714e+002,4.302963e+000
7.944357e+002,4.293427e+000
7.953999e+002,4.307587e+000
7.963641e+002,4.046570e+000
7.973284e+002,3.082672e+000
7.982926e+002,1.312515e+000
7.992568e+002,1.162292e+000
8.002211e+002,3.426468e+000
8.011853e+002,5.130402e+000
8.021495e+002,5.061798e+000
8.031138e+002,3.775848e+000
8.040780e+002,2.850754e+000
8.050422e+002,2.342819e+000
8.060065e+002,2.422333e+000
8.069707e+002,3.382416e+000
8.079349e+002,4.604599e+000
8.088992e+002,5.555679e+000
8.098634e+002,6.075287e+000
8.108276e+002,6.448883e+000
8.117919e+002,7.268051e+000
8.127561e+002,7.891357e+000
8.137203e+002,6.827728e+000
8.146846e+002,4.066010e+000
8.156488e+002,1.591217e+000
8.166130e+002,1.939621e+000
8.175773e+002,5.787827e+000
8.185415e+002,8.252594e+000
8.195057e+002,8.929367e+000
8.204700e+002,8.896072e+000
8.214342e+002,8.057968e+000
8.223984e+002,6.779968e+000
8.233627e+002,6.000504e+000
8.243269e+002,6.363510e+000
8.252911e+002,6.673553e+000
8.262554e+002,6.155197e+000
8.272196e+002,5.271973e+000
8.281838e+002,4.500015e+000
8.291481e+002,4.002274e+000
8.301123e+002,3.513962e+000
8.310765e+002,2.462173e+000
8.320408e+002,9.627228e-001
8.330050e+002,3.676758e-001
8.339692e+002,8.991394e-001
8.349335e+002,1.944031e+000
8.358977e+002,3.095978e+000
8.368619e+002,4.507919e+000
8.378262e+002,5.263367e+000
8.387904e+002,4.176590e+000
8.397546e+002,3.642670e+000
8.407189e+002,5.036774e+000
8.416831e+002,7.213501e+000
8.426473e+002,7.876907e+000
8.436116e+002,5.646729e+000
8.445758e+002,3.340775e+000
8.455400e+002,4.410751e+000
8.465043e+002,6.700836e+000
8.474685e+002,7.840042e+000
8.484327e+002,7.299942e+000
8.493970e+002,6.283691e+000
8.503612e+002,6.740372e+000
8.513254e+002,8.999313e+000
8.522897e+002,9.994827e+000
8.532539e+002,8.839294e+000
8.542181e+002,7.628677e+000
8.551824e+002,7.789368e+000
8.561466e+002,9.239380e+000
8.571108e+002,1.061273e+001
8.580751e+002,1.171507e+001
8.590393e+002,1.208337e+001
8.600035e+002,1.068715e+001
8.609678e+002,9.118805e+000
8.619320e+002,9.478317e+000
8.628962e+002,1.245515e+001
8.638605e+002,1.604997e+001
8.648247e+002,1.724867e+001
8.657889e+002,1.672696e+001
8.667532e+002,1.565396e+001
8.677174e+002,1.418633e+001
8.686816e+002,1.294705e+001
8.696459e+002,1.274080e+001
8.706101e+002,1.379402e+001
8.715743e+002,1.455319e+001
8.725386e+002,1.510220e+001
8.735028e+002,1.531845e+001
8.744670e+002,1.495456e+001
8.754313e+002,1.415529e+001
8.763955e+002,1.310040e+001
8.773597e+002,1.164888e+001
8.783240e+002,1.084888e+001
8.792882e+002,1.184805e+001
8.802524e+002,1.341318e+001
8.812167e+002,1.444377e+001
8.821809e+002,1.478481e+001
8.831451e+002,1.513800e+001
8.841094e+002,1.647520e+001
8.850736e+002,1.877110e+001
8.860378e+002,2.008543e+001
8.870021e+002,2.023869e+001
8.879663e+002,2.007629e+001
8.889305e+002,1.987845e+001
8.898948e+002,1.965514e+001
8.908590e+002,1.960217e+001
8.918232e+002,1.981291e+001
8.927875e+002,2.025282e+001
8.937517e+002,2.091277e+001
8.947159e+002,2.176587e+001
8.956802e+002,2.305403e+001
8.966444e+002,2.459521e+001
8.976086e+002,2.539462e+001
8.985729e+002,2.396324e+001
8.995371e+002,2.179832e+001
9.005013e+002,2.136777e+001
9.014656e+002,2.255191e+001
9.024298e+002,2.435269e+001
9.033940e+002,2.607703e+001
9.043583e+002,2.753502e+001
9.053225e+002,2.777859e+001
9.062867e+002,2.541089e+001
9.072510e+002,2.343961e+001
9.082152e+002,2.163037e+001
9.091794e+002,2.064795e+001
9.101437e+002,2.172194e+001
9.111079e+002,2.507309e+001
9.120721e+002,2.757561e+001
9.130364e+002,2.659825e+001
9.140006e+002,2.465306e+001
9.149648e+002,2.236174e+001
9.159291e+002,2.046957e+001
9.168933e+002,2.027188e+001
9.178575e+002,2.258017e+001
9.188218e+002,2.621532e+001
9.197860e+002,2.700444e+001
9.207502e+002,2.486777e+001
9.217145e+002,2.299432e+001
9.226787e+002,2.215266e+001
9.236429e+002,2.183951e+001
9.246072e+002,2.127922e+001
9.255714e+002,2.028938e+001
9.265356e+002,1.967117e+001
9.274999e+002,1.946779e+001
9.284641e+002,1.967093e+001
9.294283e+002,2.100883e+001
9.303926e+002,2.265868e+001
9.313568e+002,2.314661e+001
9.323210e+002,2.166092e+001
9.332853e+002,1.930447e+001
9.342495e+002,1.719101e+001
9.352137e+002,1.554015e+001
9.361780e+002,1.535695e+001
9.371422e+002,1.686609e+001
9.381064e+002,1.867874e+001
9.390707e+002,1.872081e+001
9.400349e+002,1.645018e+001
9.409991e+002,1.552736e+001
9.419634e+002,1.704745e+001
9.429276e+002,1.827151e+001
9.438918e+002,1.846249e+001
9.448561e+002,1.795424e+001
9.458203e+002,1.710226e+001
9.467845e+002,1.579282e+001
9.477488e+002,1.534375e+001
9.487130e+002,1.812280e+001
9.496772e+002,2.115170e+001
9.506415e+002,2.194115e+001
9.516057e+002,2.047491e+001
9.525699e+002,1.816788e+001
9.535342e+002,1.637112e+001
9.544984e+002,1.502605e+001
9.554626e+002,1.391737e+001
9.564269e+002,1.302187e+001
9.573911e+002,1.276564e+001
9.583553e+002,1.404272e+001
9.593196e+002,1.564339e+001
9.602838e+002,1.522246e+001
9.612480e+002,1.193831e+001
9.622123e+002,9.731339e+000
9.631765e+002,1.054260e+001
9.641407e+002,1.188951e+001
9.651050e+002,1.283157e+001
9.660692e+002,1.330954e+001
9.670334e+002,1.365686e+001
9.679977e+002,1.412717e+001
9.689619e+002,1.462309e+001
9.699261e+002,1.467557e+001
9.708904e+002,1.436935e+001
9.718546e+002,1.395409e+001
9.728188e+002,1.331831e+001
9.737831e+002,1.312753e+001
9.747473e+002,1.459665e+001
9.757115e+002,1.826216e+001
9.766758e+002,2.080995e+001
9.776400e+002,2.196185e+001
9.786042e+002,2.246567e+001
9.795685e+002,2.252762e+001
9.805327e+002,2.187711e+001
9.814969e+002,1.980121e+001
9.824612e+002,1.610370e+001
9.834254e+002,1.266602e+001
9.843896e+002,1.165913e+001
9.853539e+002,1.158966e+001
9.863181e+002,1.083734e+001
9.872823e+002,9.380630e+000
9.882466e+002,8.175812e+000
9.892108e+002,8.152191e+000
9.901750e+002,9.123520e+000
9.911393e+002,8.911331e+000
9.921035e+002,6.029770e+000
9.930677e+002,3.912430e+000
9.940320e+002,2.925568e+000
9.949962e+002,2.715912e+000
9.959604e+002,3.046097e+000
9.969247e+002,3.891968e+000
9.978889e+002,5.205261e+000
9.988531e+002,7.350327e+000
9.998174e+002,9.250504e+000
1.000782e+003,1.041322e+001
1.001746e+003,1.100385e+001
1.002710e+003,1.120071e+001
1.003674e+003,1.110736e+001
1.004639e+003,1.077591e+001
1.005603e+003,1.025647e+001
1.006567e+003,9.499603e+000
1.007531e+003,9.379807e+000
1.008495e+003,1.044415e+001
1.009460e+003,1.107848e+001
1.010424e+003,9.792542e+000
1.011388e+003,7.236862e+000
1.012352e+003,6.101578e+000
1.013317e+003,7.364594e+000
1.014281e+003,8.666245e+000
1.015245e+003,9.704926e+000
1.016209e+003,1.007927e+001
1.017174e+003,9.199677e+000
1.018138e+003,7.335464e+000
1.019102e+003,5.478348e+000
1.020066e+003,4.475616e+000
1.021031e+003,4.011185e+000
1.021995e+003,2.953079e+000
1.022959e+003,1.368362e+000
1.023923e+003,-6.744385e-002
1.024887e+003,-1.253952e+000
1.025852e+003,-2.021286e+000
1.026816e+003,-1.831451e+000
1.027780e+003,-2.314758e-001
1.028744e+003,4.407806e-001
1.029709e+003,-1.228134e+000
1.030673e+003,-2.413727e+000
1.031637e+003,-1.962631e+000
1.032601e+003,-6.991882e-001
1.033566e+003,1.593781e-001
1.034530e+003,2.154999e-001
1.035494e+003,2.208710e-001
1.036458e+003,1.466644e+000
1.037422e+003,2.788010e+000
1.038387e+003,1.536880e+000
1.039351e+003,-1.956543e+000
1.040315e+003,-4.191299e+000
1.041279e+003,-2.267502e+000
1.042244e+003,2.726608e+000
1.043208e+003,5.195801e+000
1.044172e+003,3.221207e+000
1.045136e+003,1.639282e+000
1.046101e+003,3.367157e-001
1.047065e+003,-2.953796e-001
1.048029e+003,6.342621e-001
1.048993e+003,2.511627e+000
1.049958e+003,3.073959e+000
1.050922e+003,7.276917e-001
1.051886e+003,-1.685959e+000
1.052850e+003,-8.703613e-001
1.053814e+003,1.400467e+000
1.054779e+003,3.083923e+000
1.055743e+003,3.628799e+000
1.056707e+003,3.355316e+000
1.057671e+003,2.605957e+000
1.058636e+003,1.360580e+000
1.059600e+003,5.331421e-001
1.060564e+003,4.568634e-001
1.061528e+003,4.704590e-001
1.062493e+003,3.680115e-001
1.063457e+003,2.594452e-001
1.064421e+003,3.177032e-001
1.065385e+003,5.918121e-001
1.066349e+003,1.018372e+000
1.067314e+003,1.911911e+000
1.068278e+003,2.515320e+000
1.069242e+003,2.135147e+000
1.070206e+003,1.231674e+000
1.071171e+003,4.327545e-001
1.072135e+003,7.141113e-003
1.073099e+003,-1.563110e-001
1.074063e+003,-1.870117e-001
1.075028e+003,-5.914307e-002
1.075992e+003,4.242096e-001
1.076956e+003,1.751480e+000
1.077920e+003,2.473694e+000
1.078885e+003,1.497925e+000
1.079849e+003,-1.286163e-001
1.080813e+003,-1.988525e-001
1.081777e+003,2.010956e+000
1.082741e+003,3.440475e+000
1.083706e+003,1.108368e+000
1.084670e+003,-1.347977e+000
1.085634e+003,-1.687347e+000
1.086598e+003,-6.086273e-001
1.087563e+003,2.056274e-001
1.088527e+003,-1.423187e-001
1.089491e+003,-1.022125e+000
1.090455e+003,-1.334869e+000
1.091420e+003,-1.063354e+000
1.092384e+003,-4.534912e-001
1.093348e+003,8.811951e-001
1.094312e+003,1.757355e+000
1.095276e+003,9.211273e-001
1.096241e+003,-7.984619e-001
1.097205e+003,-6.261749e-001
1.098169e+003,2.787460e+000
1.099133e+003,4.894501e+000
1.100098e+003,2.814941e+000
1.101062e+003,1.667023e-001
1.102026e+003,-1.041138e+000
1.102990e+003,-8.555908e-001
1.103955e+003,-2.368164e-002
1.104919e+003,9.608154e-001
1.105883e+003,1.858765e+000
1.106847e+003,2.171051e+000
1.107812e+003,1.859802e+000
1.108776e+003,1.529373e+000
1.109740e+003,1.293442e+000
1.110704e+003,8.558044e-001
1.111668e+003,1.606750e-002
1.112633e+003,-1.119614e+000
1.113597e+003,-2.424538e+000
1.114561e+003,-4.437759e+000
1.115525e+003,-5.403053e+000
1.116490e+003,-4.245705e+000
1.117454e+003,-2.574287e+000
1.118418e+003,-1.112000e+000
1.119382e+003,1.072693e-002
1.120347e+003,8.838959e-001
1.121311e+003,1.507858e+000
1.122275e+003,1.665314e+000
1.123239e+003,8.306274e-001
1.124203e+003,-7.457886e-001
1.125168e+003,-1.048828e+000
1.126132e+003,6.334229e-001
1.127096e+003,2.181351e+000
1.128060e+003,1.538040e+000
1.129025e+003,-7.402039e-001
1.129989e+003,-1.797974e+000
1.130953e+003,-9.728088e-001
1.131917e+003,-5.068970e-002
1.132882e+003,8.295288e-001
1.133846e+003,1.379105e+000
1.134810e+003,1.003021e+000
1.135774e+003,2.048035e-001
1.136739e+003,1.528931e-001
1.137703e+003,1.483017e+000
1.138667e+003,3.382278e+000
1.139631e+003,4.475067e+000
1.140595e+003,4.798431e+000
1.141560e+003,5.012085e+000
1.142524e+003,4.979416e+000
1.143488e+003,5.624832e+000
1.144452e+003,8.025848e+000
1.145417e+003,1.159688e+001
1.146381e+003,1.408141e+001
1.147345e+003,1.485542e+001
1.148309e+003,1.598424e+001
1.149274e+003,1.807076e+001
1.150238e+003,2.057587e+001
1.151202e+003,2.343843e+001
1.152166e+003,2.652950e+001
1.153130e+003,2.992674e+001
1.154095e+003,3.350781e+001
1.155059e+003,3.634189e+001
1.156023e+003,3.718143e+001
1.156987e+003,3.606746e+001
1.157952e+003,3.397701e+001
1.158916e+003,3.082005e+001
1.159880e+003,2.792421e+001
1.160844e+003,2.600337e+001
1.161809e+003,2.458643e+001
1.162773e+003,2.298077e+001
1.163737e+003,2.135709e+001
1.164701e+003,1.877179e+001
1.165666e+003,1.293323e+001
1.166630e+003,8.356880e+000
1.167594e+003,7.611595e+000
1.168558e+003,8.755058e+000
1.169522e+003,9.097809e+000
1.170487e+003,7.819962e+000
1.171451e+003,6.173615e+000
1.172415e+003,5.522614e+000
1.173379e+003,5.699112e+000
1.174344e+003,5.977097e+000
1.175308e+003,6.417366e+000
1.176272e+003,6.566536e+000
1.177236e+003,6.085594e+000
1.178201e+003,5.435257e+000
1.179165e+003,5.368729e+000
1.180129e+003,5.852448e+000
1.181093e+003,5.425522e+000
1.182057e+003,3.072861e+000
1.183022e+003,8.943481e-001
1.183986e+003,-7.642822e-001
1.184950e+003,-1.608315e+000
1.185914e+003,-8.396454e-001
1.186879e+003,1.150574e+000
1.187843e+003,2.815140e+000
1.188807e+003,2.867920e+000
1.189771e+003,1.771393e+000
1.190736e+003,8.032761e-001
1.191700e+003,-1.115723e-001
1.192664e+003,1.255493e-001
1.193628e+003,2.769997e+000
1.194593e+003,5.155968e+000
1.195557e+003,5.436050e+000
1.196521e+003,3.907410e+000
1.197485e+003,1.269768e+000
1.198449e+003,-3.102859e+000
1.199414e+003,-6.205017e+000
1.200378e+003,-6.014763e+000
1.201342e+003,-4.722656e+000
1.202306e+003,-2.855797e+000
1.203271e+003,-1.140518e+000
1.204235e+003,-7.203064e-001
1.205199e+003,-2.046768e+000
1.206163e+003,-4.132126e+000
1.207128e+003,-5.319664e+000
1.208092e+003,-5.529991e+000
1.209056e+003,-6.536133e+000
1.210020e+003,-9.241676e+000
1.210984e+003,-1.085086e+001
1.211949e+003,-9.766151e+000
1.212913e+003,-7.685211e+000
1.213877e+003,-6.734360e+000
1.214841e+003,-7.033081e+000
1.215806e+003,-7.517464e+000
1.216770e+003,-7.739479e+000
1.217734e+003,-8.173431e+000
1.218698e+003,-9.661491e+000
1.219663e+003,-1.127390e+001
1.220627e+003,-1.156983e+001
1.221591e+003,-1.054015e+001
1.222555e+003,-9.659142e+000
1.223520e+003,-1.031675e+001
1.224484e+003,-1.196440e+001
1.225448e+003,-1.205857e+001
1.226412e+003,-9.262810e+000
1.227376e+003,-7.979324e+000
1.228341e+003,-9.306366e+000
1.229305e+003,-1.089256e+001
1.230269e+003,-1.151585e+001
1.231233e+003,-1.148702e+001
1.232198e+003,-1.155418e+001
1.233162e+003,-1.189250e+001
1.234126e+003,-1.205923e+001
1.235090e+003,-1.171642e+001
1.236055e+003,-1.113257e+001
1.237019e+003,-1.058697e+001
1.237983e+003,-1.006717e+001
1.238947e+003,-9.349937e+000
1.239911e+003,-8.322235e+000
1.240876e+003,-7.463264e+000
1.241840e+003,-7.604721e+000
1.242804e+003,-8.823242e+000
1.243768e+003,-9.544815e+000
1.244733e+003,-9.121735e+000
1.245697e+003,-9.045685e+000
1.246661e+003,-1.001358e+001
1.247625e+003,-1.095181e+001
1.248590e+003,-1.079001e+001
1.249554e+003,-9.805450e+000
1.250518e+003,-9.212875e+000
1.251482e+003,-9.628883e+000
1.252447e+003,-1.017886e+001
1.253411e+003,-9.357849e+000
1.254375e+003,-8.072342e+000
1.255339e+003,-8.690140e+000
1.256303e+003,-1.116429e+001
1.257268e+003,-1.297632e+001
1.258232e+003,-1.272773e+001
1.259196e+003,-1.108463e+001
1.260160e+003,-9.000122e+000
1.261125e+003,-6.207161e+000
1.262089e+003,-4.382751e+000
1.263053e+003,-4.135475e+000
1.264017e+003,-4.552933e+000
1.264982e+003,-6.138977e+000
1.265946e+003,-7.712952e+000
1.266910e+003,-8.056953e+000
1.267874e+003,-7.277290e+000
1.268839e+003,-6.310165e+000
1.269803e+003,-5.760963e+000
1.270767e+003,-5.623940e+000
1.271731e+003,-5.923676e+000
1.272695e+003,-6.653099e+000
1.273660e+003,-7.675156e+000
1.274624e+003,-9.324539e+000
1.275588e+003,-1.060879e+001
1.276552e+003,-1.082353e+001
1.277517e+003,-1.029326e+001
1.278481e+003,-9.625893e+000
1.279445e+003,-8.862022e+000
1.280409e+003,-8.074440e+000
1.281374e+003,-6.825027e+000
1.282338e+003,-6.223740e+000
1.283302e+003,-7.288048e+000
1.284266e+003,-8.982140e+000
1.285230e+003,-1.032947e+001
1.286195e+003,-1.103988e+001
1.287159e+003,-1.106522e+001
1.288123e+003,-1.033220e+001
1.289087e+003,-9.180641e+000
1.290052e+003,-8.779976e+000
1.291016e+003,-9.456497e+000
1.291980e+003,-9.918526e+000
1.292944e+003,-1.016074e+001
1.293909e+003,-1.032305e+001
1.294873e+003,-1.027805e+001
1.295837e+003,-1.019248e+001
1.296801e+003,-1.047620e+001
1.297766e+003,-1.111295e+001
1.298730e+003,-1.127438e+001
1.299694e+003,-1.032410e+001
1.300658e+003,-9.199120e+000
1.301622e+003,-8.775017e+000
1.302587e+003,-8.878670e+000
1.303551e+003,-9.583199e+000
1.304515e+003,-1.076131e+001
1.305479e+003,-1.143932e+001
1.306444e+003,-1.080434e+001
1.307408e+003,-9.217270e+000
1.308372e+003,-7.596664e+000
1.309336e+003,-5.353241e+000
1.310301e+003,-4.987907e+000
1.311265e+003,-8.801193e+000
1.312229e+003,-1.169077e+001
1.313193e+003,-1.166650e+001
1.314157e+003,-1.034058e+001
1.315122e+003,-9.163261e+000
1.316086e+003,-8.573112e+000
1.317050e+003,-8.654823e+000
1.318014e+003,-9.494614e+000
1.318979e+003,-1.054095e+001
1.319943e+003,-1.085289e+001
1.320907e+003,-1.044960e+001
1.321871e+003,-9.812660e+000
1.322836e+003,-8.806328e+000
1.323800e+003,-8.387085e+000
1.324764e+003,-9.637726e+000
1.325728e+003,-1.147465e+001
1.326693e+003,-1.192468e+001
1.327657e+003,-1.093975e+001
1.328621e+003,-1.020026e+001
1.329585e+003,-1.014660e+001
1.330549e+003,-1.007722e+001
1.331514e+003,-9.826714e+000
1.332478e+003,-9.478973e+000
1.333442e+003,-8.860336e+000
1.334406e+003,-8.137535e+000
1.335371e+003,-7.927940e+000
1.336335e+003,-8.577194e+000
1.337299e+003,-9.499565e+000
1.338263e+003,-9.584091e+000
1.339228e+003,-8.726410e+000
1.340192e+003,-7.975998e+000
1.341156e+003,-6.852913e+000
1.342120e+003,-6.522491e+000
1.343084e+003,-8.073906e+000
1.344049e+003,-9.756096e+000
1.345013e+003,-9.838196e+000
1.345977e+003,-8.720947e+000
1.346941e+003,-8.154434e+000
1.347906e+003,-8.814728e+000
1.348870e+003,-9.374046e+000
1.349834e+003,-8.339149e+000
1.350798e+003,-6.654388e+000
1.351763e+003,-6.145462e+000
1.352727e+003,-6.626770e+000
1.353691e+003,-7.051414e+000
1.354655e+003,-7.050491e+000
1.355620e+003,-6.813843e+000
1.356584e+003,-6.553490e+000
1.357548e+003,-6.237740e+000
1.358512e+003,-5.635399e+000
1.359476e+003,-4.385681e+000
1.360441e+003,-3.989655e+000
1.361405e+003,-5.849434e+000
1.362369e+003,-7.461189e+000
1.363333e+003,-7.026863e+000
1.364298e+003,-5.840103e+000
1.365262e+003,-6.205513e+000
1.366226e+003,-8.318512e+000
1.367190e+003,-9.904144e+000
1.368155e+003,-8.911186e+000
1.369119e+003,-6.203827e+000
1.370083e+003,-4.449905e+000
1.371047e+003,-3.723167e+000
1.372011e+003,-3.774017e+000
1.372976e+003,-5.457085e+000
1.373940e+003,-6.878754e+000
1.374904e+003,-6.980133e+000
1.375868e+003,-6.628059e+000
1.376833e+003,-7.151840e+000
1.377797e+003,-8.489403e+000
1.378761e+003,-9.194962e+000
1.379725e+003,-8.533569e+000
1.380690e+003,-7.423553e+000
1.381654e+003,-6.584702e+000
1.382618e+003,-5.974190e+000
1.383582e+003,-5.705963e+000
1.384547e+003,-5.698959e+000
1.385511e+003,-5.373230e+000
1.386475e+003,-4.358719e+000
1.387439e+003,-3.267685e+000
1.388403e+003,-3.212013e+000
1.389368e+003,-4.192612e+000
1.390332e+003,-4.410942e+000
1.391296e+003,-3.174820e+000
1.392260e+003,-2.407860e+000
1.393225e+003,-2.826729e+000
1.394189e+003,-3.491615e+000
1.395153e+003,-4.018906e+000
1.396117e+003,-4.370895e+000
1.397082e+003,-4.434052e+000
1.398046e+003,-4.284500e+000
1.399010e+003,-4.461533e+000
1.399974e+003,-5.521713e+000
1.400938e+003,-7.065193e+000
1.401903e+003,-7.632996e+000
1.402867e+003,-6.866600e+000
1.403831e+003,-5.809967e+000
1.404795e+003,-4.134544e+000
1.405760e+003,-2.757080e+000
1.406724e+003,-2.282814e+000
1.407688e+003,-2.260971e+000
1.408652e+003,-1.968040e+000
1.409617e+003,-1.399162e+000
1.410581e+003,-1.183601e+000
1.411545e+003,-1.586472e+000
1.412509e+003,-2.320320e+000
1.413474e+003,-3.378632e+000
1.414438e+003,-4.514977e+000
1.415402e+003,-5.208710e+000
1.416366e+003,-5.434502e+000
1.417330e+003,-5.415703e+000
1.418295e+003,-5.239166e+000
1.419259e+003,-4.836052e+000
1.420223e+003,-4.024391e+000
1.421187e+003,-2.936554e+000
1.422152e+003,-2.192413e+000
1.423116e+003,-1.800659e+000
1.424080e+003,-1.541931e+000
1.425044e+003,-1.359070e+000
1.426009e+003,-1.437561e+000
1.426973e+003,-2.217155e+000
1.427937e+003,-3.093391e+000
1.428901e+003,-3.120964e+000
1.429865e+003,-2.405411e+000
1.430830e+003,-2.013672e+000
1.431794e+003,-2.668762e+000
1.432758e+003,-3.835686e+000
1.433722e+003,-4.366844e+000
1.434687e+003,-4.116158e+000
1.435651e+003,-4.072296e+000
1.436615e+003,-5.251320e+000
1.437579e+003,-5.498840e+000
1.438544e+003,-3.438698e+000
1.439508e+003,-1.554062e+000
1.440472e+003,-1.900764e+000
1.441436e+003,-3.425804e+000
1.442401e+003,-3.965561e+000
1.443365e+003,-3.056213e+000
1.444329e+003,-1.864532e+000
1.445293e+003,-1.144463e+000
1.446257e+003,-8.573990e-001
1.447222e+003,-1.267029e+000
1.448186e+003,-2.162788e+000
1.449150e+003,-2.145477e+000
1.450114e+003,-7.969284e-001
1.451079e+003,1.592560e-001
1.452043e+003,-2.889404e-001
1.453007e+003,-1.442482e+000
1.453971e+003,-2.706779e+000
1.454936e+003,-3.966827e+000
1.455900e+003,-4.165001e+000
1.456864e+003,-2.669357e+000
1.457828e+003,-1.450989e+000
1.458792e+003,-2.248825e+000
1.459757e+003,-3.319420e+000
1.460721e+003,-3.005150e+000
1.461685e+003,-1.925240e+000
1.462649e+003,-1.523262e+000
1.463614e+003,-2.101089e+000
1.464578e+003,-2.639732e+000
1.465542e+003,-2.191620e+000
1.466506e+003,-1.224075e+000
1.467471e+003,-1.129272e+000
1.468435e+003,-2.083359e+000
1.469399e+003,-2.688423e+000
1.470363e+003,-3.011551e+000
1.471328e+003,-2.884354e+000
1.472292e+003,-1.764626e+000
1.473256e+003,-7.885056e-001
1.474220e+003,-1.054634e+000
1.475184e+003,-1.876564e+000
1.476149e+003,-1.642342e+000
1.477113e+003,-8.018494e-002
1.478077e+003,1.131409e+000
1.479041e+003,3.783798e-001
1.480006e+003,-1.610428e+000
1.480970e+003,-2.512817e+000
1.481934e+003,-2.063347e+000
1.482898e+003,-1.867500e+000
1.483863e+003,-2.217392e+000
1.484827e+003,-2.408279e+000
1.485791e+003,-2.218750e+000
1.486755e+003,-1.731285e+000
1.487719e+003,-8.821335e-001
1.488684e+003,1.121597e-001
1.489648e+003,6.348343e-001
1.490612e+003,5.566559e-001
1.491576e+003,1.022827e+000
1.492541e+003,3.264740e+000
1.493505e+003,6.080032e+000
1.494469e+003,6.609619e+000
1.495433e+003,5.175835e+000
1.496398e+003,3.901810e+000
1.497362e+003,3.006149e+000
1.498326e+003,2.670319e+000
1.499290e+003,3.203568e+000
1.500255e+003,4.180443e+000
1.501219e+003,5.133430e+000
1.502183e+003,5.998978e+000
1.503147e+003,6.389534e+000
1.504111e+003,5.940193e+000
1.505076e+003,6.516914e+000
1.506040e+003,9.983238e+000
1.507004e+003,1.418086e+001
1.507968e+003,1.737221e+001
1.508933e+003,1.952443e+001
1.509897e+003,2.000671e+001
1.510861e+003,1.898972e+001
1.511825e+003,1.923049e+001
1.512790e+003,2.277581e+001
1.513754e+003,2.829417e+001
1.514718e+003,3.362670e+001
1.515682e+003,3.871132e+001
1.516646e+003,4.308757e+001
1.517611e+003,4.694582e+001
1.518575e+003,4.969437e+001
1.519539e+003,5.016550e+001
1.520503e+003,5.062292e+001
1.521468e+003,5.281046e+001
1.522432e+003,5.536419e+001
1.523396e+003,5.653481e+001
1.524360e+003,5.594736e+001
1.525325e+003,5.383365e+001
1.526289e+003,5.036879e+001
1.527253e+003,4.658150e+001
1.528217e+003,4.441165e+001
1.529182e+003,4.393832e+001
1.530146e+003,4.220506e+001
1.531110e+003,3.841726e+001
1.532074e+003,3.472700e+001
1.533039e+003,3.155530e+001
1.534003e+003,2.795607e+001
1.534967e+003,2.304189e+001
1.535931e+003,1.802785e+001
1.536896e+003,1.416692e+001
1.537860e+003,1.158508e+001
1.538824e+003,9.856483e+000
1.539788e+003,8.692200e+000
1.540752e+003,7.828026e+000
1.541717e+003,6.955338e+000
1.542681e+003,6.159027e+000
1.543645e+003,5.813782e+000
1.544609e+003,6.337143e+000
1.545573e+003,6.386330e+000
1.546538e+003,5.029060e+000
1.547502e+003,4.264084e+000
1.548466e+003,5.396545e+000
1.549430e+003,7.139435e+000
1.550395e+003,8.364693e+000
1.551359e+003,8.894279e+000
1.552323e+003,8.754837e+000
1.553287e+003,7.995728e+000
1.554252e+003,6.922279e+000
1.555216e+003,5.804497e+000
1.556180e+003,4.507362e+000
1.557144e+003,2.402840e+000
1.558109e+003,-4.990921e-001
1.559073e+003,-1.506775e+000
1.560037e+003,3.846283e-001
1.561001e+003,1.967987e+000
1.561966e+003,2.043709e+000
1.562930e+003,1.679016e+000
1.563894e+003,1.727661e+000
1.564858e+003,2.084747e+000
1.565823e+003,2.364746e+000
1.566787e+003,2.502159e+000
1.567751e+003,2.993645e+000
1.568715e+003,4.372162e+000
1.569679e+003,5.503448e+000
1.570644e+003,4.442009e+000
1.571608e+003,2.084023e+000
1.572572e+003,1.184258e+000
1.573536e+003,1.880859e+000
1.574500e+003,2.913948e+000
1.575465e+003,4.135254e+000
1.576429e+003,5.120171e+000
1.577393e+003,5.308212e+000
1.578357e+003,5.062790e+000
1.579322e+003,5.178337e+000
1.580286e+003,5.695007e+000
1.581250e+003,6.061401e+000
1.582214e+003,6.036186e+000
1.583179e+003,6.126389e+000
1.584143e+003,6.972816e+000
1.585107e+003,7.822304e+000
1.586071e+003,7.645744e+000
1.587036e+003,6.781967e+000
1.588000e+003,6.003448e+000
1.588964e+003,5.407265e+000
1.589928e+003,5.218811e+000
1.590893e+003,5.992813e+000
1.591857e+003,6.892242e+000
1.592821e+003,6.193382e+000
1.593785e+003,4.357529e+000
1.594750e+003,4.425888e+000
1.595714e+003,7.209320e+000
1.596678e+003,8.700211e+000
1.597642e+003,6.241119e+000
1.598606e+003,3.589348e+000
1.599571e+003,3.808907e+000
1.600535e+003,5.607193e+000
1.601499e+003,7.762657e+000
1.602463e+003,9.929260e+000
1.603427e+003,1.150031e+001
1.604392e+003,1.227457e+001
1.605356e+003,1.214559e+001
1.606320e+003,1.031747e+001
1.607284e+003,7.733597e+000
1.608249e+003,7.450684e+000
1.609213e+003,9.575439e+000
1.610177e+003,1.057245e+001
1.611141e+003,9.226547e+000
1.612106e+003,8.320473e+000
1.613070e+003,1.009840e+001
1.614034e+003,1.196078e+001
1.614998e+003,1.165338e+001
1.615963e+003,1.028133e+001
1.616927e+003,1.002453e+001
1.617891e+003,1.102338e+001
1.618855e+003,1.133953e+001
1.619820e+003,9.646172e+000
1.620784e+003,7.490967e+000
1.621748e+003,7.371414e+000
1.622712e+003,8.989288e+000
1.623677e+003,9.959282e+000
1.624641e+003,1.016011e+001
1.625605e+003,1.038775e+001
1.626569e+003,1.084616e+001
1.627533e+003,1.097781e+001
1.628498e+003,1.002218e+001
1.629462e+003,9.201233e+000
1.630426e+003,9.966438e+000
1.631390e+003,1.156468e+001
1.632354e+003,1.211169e+001
1.633319e+003,1.124876e+001
1.634283e+003,1.042225e+001
1.635247e+003,1.067185e+001
1.636211e+003,1.162180e+001
1.637176e+003,1.282764e+001
1.638140e+003,1.426418e+001
1.639104e+003,1.522008e+001
1.640068e+003,1.569414e+001
1.641033e+003,1.547726e+001
1.641997e+003,1.405159e+001
1.642961e+003,1.263656e+001
1.643925e+003,1.162165e+001
1.644890e+003,1.105214e+001
1.645854e+003,1.105862e+001
1.646818e+003,1.150967e+001
1.647782e+003,1.217657e+001
1.648747e+003,1.295825e+001
1.649711e+003,1.372039e+001
1.650675e+003,1.447292e+001
1.651639e+003,1.500330e+001
1.652604e+003,1.451337e+001
1.653568e+003,1.303680e+001
1.654532e+003,1.267229e+001
1.655496e+003,1.401945e+001
1.656460e+003,1.469666e+001
1.657425e+003,1.353424e+001
1.658389e+003,1.226692e+001
1.659353e+003,1.188036e+001
1.660317e+003,1.182791e+001
1.661281e+003,1.141846e+001
1.662246e+003,1.079385e+001
1.663210e+003,1.062716e+001
1.664174e+003,1.114494e+001
1.665138e+003,1.185976e+001
1.666103e+003,1.248971e+001
1.667067e+003,1.276729e+001
1.668031e+003,1.188133e+001
1.668995e+003,9.980042e+000
1.669960e+003,9.153198e+000
1.670924e+003,9.914406e+000
1.671888e+003,1.026041e+001
1.672852e+003,9.359795e+000
1.673817e+003,8.137787e+000
1.674781e+003,6.639938e+000
1.675745e+003,5.530045e+000
1.676709e+003,5.990379e+000
1.677674e+003,7.477898e+000
1.678638e+003,8.116753e+000
1.679602e+003,7.332932e+000
1.680566e+003,6.479301e+000
1.681531e+003,6.774277e+000
1.682495e+003,7.454750e+000
1.683459e+003,6.840103e+000
1.684423e+003,5.237312e+000
1.685387e+003,5.140640e+000
1.686352e+003,7.085075e+000
1.687316e+003,7.984138e+000
1.688280e+003,6.276772e+000
1.689244e+003,4.389427e+000
1.690208e+003,4.011772e+000
1.691173e+003,4.458458e+000
1.692137e+003,5.169319e+000
1.693101e+003,6.133354e+000
1.694065e+003,7.459274e+000
1.695030e+003,9.148880e+000
1.695994e+003,1.043424e+001
1.696958e+003,1.113789e+001
1.697922e+003,1.088679e+001
1.698887e+003,8.416801e+000
1.699851e+003,4.748520e+000
1.700815e+003,3.239647e+000
1.701779e+003,4.103783e+000
1.702744e+003,4.506905e+000
1.703708e+003,3.399307e+000
1.704672e+003,2.604317e+000
1.705636e+003,3.716896e+000
1.706601e+003,5.439224e+000
1.707565e+003,6.049667e+000
1.708529e+003,5.764679e+000
1.709493e+003,4.867035e+000
1.710458e+003,3.251389e+000
1.711422e+003,2.252586e+000
1.712386e+003,2.928711e+000
1.713350e+003,3.878578e+000
1.714314e+003,3.937706e+000
1.715279e+003,3.470711e+000
1.716243e+003,3.070564e+000
1.717207e+003,2.793839e+000
1.718171e+003,2.577980e+000
1.719135e+003,2.417076e+000
1.720100e+003,2.260353e+000
1.721064e+003,2.022324e+000
1.722028e+003,1.853699e+000
1.722992e+003,2.082344e+000
1.723957e+003,2.662910e+000
1.724921e+003,2.965691e+000
1.725885e+003,2.820938e+000
1.726849e+003,2.915115e+000
1.727814e+003,4.213310e+000
1.728778e+003,4.802299e+000
1.729742e+003,3.105927e+000
1.730706e+003,9.754105e-001
1.731671e+003,1.186066e-001
1.732635e+003,1.955261e-001
1.733599e+003,3.073044e-001
1.734563e+003,3.483887e-001
1.735528e+003,8.836670e-001
1.736492e+003,2.184616e+000
1.737456e+003,3.283615e+000
1.738420e+003,2.975029e+000
1.739385e+003,1.646843e+000
1.740349e+003,8.683167e-001
1.741313e+003,7.488632e-001
1.742277e+003,8.317719e-001
1.743241e+003,1.466583e+000
1.744206e+003,1.829514e+000
1.745170e+003,1.696068e+000
1.746134e+003,1.352272e+000
1.747098e+003,7.149582e-001
1.748063e+003,1.234283e-001
1.749027e+003,9.533691e-002
1.749991e+003,4.383087e-001
1.750955e+003,5.450287e-001
1.751919e+003,1.942978e-001
1.752884e+003,-4.935837e-001
1.753848e+003,-1.436508e+000
1.754812e+003,-2.198318e+000
1.755776e+003,-1.751884e+000
1.756741e+003,-1.097641e-001
1.757705e+003,8.228302e-001
1.758669e+003,6.603851e-001
1.759633e+003,8.064194e-001
1.760598e+003,1.828346e+000
1.761562e+003,2.458473e+000
1.762526e+003,2.222496e+000
1.763490e+003,1.680931e+000
1.764455e+003,1.078293e+000
1.765419e+003,5.267258e-001
1.766383e+003,-8.554840e-002
1.767347e+003,-6.187820e-001
1.768312e+003,-2.315979e-001
1.769276e+003,1.489876e+000
1.770240e+003,2.913429e+000
1.771204e+003,2.201973e+000
1.772168e+003,2.879791e-001
1.773133e+003,-9.887009e-001
1.774097e+003,-1.628021e+000
1.775061e+003,-1.389793e+000
1.776025e+003,-1.233749e-001
1.776990e+003,6.445465e-001
1.777954e+003,1.967010e-001
1.778918e+003,-2.124100e-001
1.779882e+003,4.472656e-001
1.780846e+003,1.462624e+000
1.781811e+003,2.036079e+000
1.782775e+003,2.199417e+000
1.783739e+003,1.915932e+000
1.784703e+003,1.139702e+000
1.785668e+003,5.877991e-001
1.786632e+003,3.693924e-001
1.787596e+003,5.907135e-001
1.788560e+003,1.918358e+000
1.789525e+003,3.446564e+000
1.790489e+003,3.627419e+000
1.791453e+003,2.804932e+000
1.792417e+003,2.494003e+000
1.793382e+003,2.943443e+000
1.794346e+003,2.972435e+000
1.795310e+003,1.911163e+000
1.796274e+003,6.218796e-001
1.797239e+003,1.375961e-001
1.798203e+003,2.244492e-001
1.799167e+003,-1.053619e-001
1.800131e+003,-1.123558e+000
1.801095e+003,-1.413712e+000
1.802060e+003,-3.051758e-001
1.803024e+003,5.742950e-001
1.803988e+003,8.099442e-001
1.804952e+003,1.038048e+000
1.805917e+003,1.833626e+000
1.806881e+003,2.530869e+000
1.807845e+003,2.013153e+000
1.808809e+003,1.045830e+000
1.809773e+003,1.568810e+000
1.810738e+003,3.654602e+000
1.811702e+003,5.154427e+000
1.812666e+003,4.735504e+000
1.813630e+003,3.588150e+000
1.814595e+003,3.337189e+000
1.815559e+003,3.653717e+000
1.816523e+003,3.153526e+000
1.817487e+003,1.742340e+000
1.818452e+003,8.158340e-001
1.819416e+003,7.615585e-001
1.820380e+003,3.176346e-001
1.821344e+003,-1.784561e+000
1.822309e+003,-3.124756e+000
1.823273e+003,-1.377655e+000
1.824237e+003,1.138596e+000
1.825201e+003,1.982414e+000
1.826166e+003,1.591492e+000
1.827130e+003,1.332748e+000
1.828094e+003,1.452003e+000
1.829058e+003,2.081062e+000
1.830022e+003,3.760529e+000
1.830987e+003,5.027634e+000
1.831951e+003,4.138443e+000
1.832915e+003,2.490921e+000
1.833879e+003,2.504601e+000
1.834844e+003,3.477051e+000
1.835808e+003,2.456734e+000
1.836772e+003,-6.413345e-001
1.837736e+003,-2.009949e+000
1.838700e+003,4.475403e-002
1.839665e+003,2.654472e+000
1.840629e+003,3.230377e+000
1.841593e+003,2.682037e+000
1.842557e+003,2.996620e+000
1.843522e+003,4.144211e+000
1.844486e+003,3.969727e+000
1.845450e+003,9.272003e-001
1.846414e+003,-2.942505e-001
1.847379e+003,1.836845e+000
1.848343e+003,3.510674e+000
1.849307e+003,3.446564e+000
1.850271e+003,2.791290e+000
1.851236e+003,2.075546e+000
1.852200e+003,1.567856e+000
1.853164e+003,1.455040e+000
1.854128e+003,1.685570e+000
1.855093e+003,2.224022e+000
1.856057e+003,3.035683e+000
1.857021e+003,3.767593e+000
1.857985e+003,4.126358e+000
1.858949e+003,4.082283e+000
1.859914e+003,3.150833e+000
1.860878e+003,1.733284e+000
1.861842e+003,2.611755e+000
1.862806e+003,5.873428e+000
1.863771e+003,6.761734e+000
1.864735e+003,3.881660e+000
1.865699e+003,1.310486e+000
1.866663e+003,8.366318e-001
1.867627e+003,1.255081e+000
1.868592e+003,1.735855e+000
1.869556e+003,2.171021e+000
1.870520e+003,2.371902e+000
1.871484e+003,2.388306e+000
1.872449e+003,2.664185e+000
1.873413e+003,3.544968e+000
1.874377e+003,4.073517e+000
1.875341e+003,3.069298e+000
1.876306e+003,2.581680e+000
1.877270e+003,4.722832e+000
1.878234e+003,6.942398e+000
1.879198e+003,6.288651e+000
1.880163e+003,3.977455e+000
1.881127e+003,2.214447e+000
1.882091e+003,1.525894e+000
1.883055e+003,1.905296e+000
1.884020e+003,3.213142e+000
1.884984e+003,4.614197e+000
1.885948e+003,5.358833e+000
1.886912e+003,5.659088e+000
1.887876e+003,5.968864e+000
1.888841e+003,6.256111e+000
1.889805e+003,5.952232e+000
1.890769e+003,4.881180e+000
1.891733e+003,4.150162e+000
1.892698e+003,3.783775e+000
1.893662e+003,3.885262e+000
1.894626e+003,4.965889e+000
1.895590e+003,5.940086e+000
1.896554e+003,5.936096e+000
1.897519e+003,5.558357e+000
1.898483e+003,5.463593e+000
1.899447e+003,5.549316e+000
1.900411e+003,5.495804e+000
1.901376e+003,5.264206e+000
1.902340e+003,5.002724e+000
1.903304e+003,4.749962e+000
1.904268e+003,4.486519e+000
1.905233e+003,4.027924e+000
1.906197e+003,3.750687e+000
1.907161e+003,4.310951e+000
1.908125e+003,5.221962e+000
1.909090e+003,5.616478e+000
1.910054e+003,5.382439e+000
1.911018e+003,4.602074e+000
1.911982e+003,3.458916e+000
1.912947e+003,2.718422e+000
1.913911e+003,2.925301e+000
1.914875e+003,3.736343e+000
1.915839e+003,4.688171e+000
1.916803e+003,5.590759e+000
1.917768e+003,5.550095e+000
1.918732e+003,4.396896e+000
1.919696e+003,3.569588e+000
1.920660e+003,2.946747e+000
1.921625e+003,3.225784e+000
1.922589e+003,5.418877e+000
1.923553e+003,7.070480e+000
1.924517e+003,5.951286e+000
1.925481e+003,4.575127e+000
1.926446e+003,5.810509e+000
1.927410e+003,8.144547e+000
1.928374e+003,8.136604e+000
1.929338e+003,5.768768e+000
1.930303e+003,4.597221e+000
1.931267e+003,6.006920e+000
1.932231e+003,7.272285e+000
1.933195e+003,7.119980e+000
1.934160e+003,6.367599e+000
1.935124e+003,4.907898e+000
1.936088e+003,3.721611e+000
1.937052e+003,4.548180e+000
1.938017e+003,6.466072e+000
1.938981e+003,7.121628e+000
1.939945e+003,6.359192e+000
1.940909e+003,5.772919e+000
1.941874e+003,6.109100e+000
1.942838e+003,7.016777e+000
1.943802e+003,8.266762e+000
1.944766e+003,9.454941e+000
1.945730e+003,9.638344e+000
1.946695e+003,8.886681e+000
1.947659e+003,7.821503e+000
1.948623e+003,6.293831e+000
1.949587e+003,6.288948e+000
1.950552e+003,8.712578e+000
1.951516e+003,9.813194e+000
1.952480e+003,7.787125e+000
1.953444e+003,5.316505e+000
1.954408e+003,3.772606e+000
1.955373e+003,3.239624e+000
1.956337e+003,4.585999e+000
1.957301e+003,7.109207e+000
1.958265e+003,7.840660e+000
1.959230e+003,6.366798e+000
1.960194e+003,6.190544e+000
1.961158e+003,9.373199e+000
1.962122e+003,1.130506e+001
1.963087e+003,1.001420e+001
1.964051e+003,8.162483e+000
1.965015e+003,6.822784e+000
1.965979e+003,6.145668e+000
1.966944e+003,6.415497e+000
1.967908e+003,7.182945e+000
1.968872e+003,7.783714e+000
1.969836e+003,8.105247e+000
1.970801e+003,8.428040e+000
1.971765e+003,8.851822e+000
1.972729e+003,8.874207e+000
1.973693e+003,7.865608e+000
1.974657e+003,6.821228e+000
1.975622e+003,7.341751e+000
1.976586e+003,8.928375e+000
1.977550e+003,1.067649e+001
1.978514e+003,1.234187e+001
1.979479e+003,1.250146e+001
1.980443e+003,1.102924e+001
1.981407e+003,9.535179e+000
1.982371e+003,8.600456e+000
1.983335e+003,8.405098e+000
1.984300e+003,9.154442e+000
1.985264e+003,1.020928e+001
1.986228e+003,1.059234e+001
1.987192e+003,1.047884e+001
1.988157e+003,1.083949e+001
1.989121e+003,1.195753e+001
1.990085e+003,1.216830e+001
1.991049e+003,1.121455e+001
1.992014e+003,9.921173e+000
1.992978e+003,7.408554e+000
1.993942e+003,5.860741e+000
1.994906e+003,6.649574e+000
1.995871e+003,8.006691e+000
1.996835e+003,8.758041e+000
1.997799e+003,9.217880e+000
1.998763e+003,1.006818e+001
1.999728e+003,1.111057e+001
