5.003444e+002,4.776083e+001
5.013087e+002,4.826010e+001
5.022729e+002,4.400821e+001
5.032371e+002,3.703763e+001
5.042014e+002,3.371263e+001
5.051656e+002,3.360338e+001
5.061298e+002,3.505899e+001
5.070941e+002,3.675636e+001
5.080583e+002,3.888646e+001
5.090225e+002,3.945326e+001
5.099868e+002,3.765025e+001
5.109510e+002,3.566760e+001
5.119152e+002,3.457007e+001
5.128795e+002,3.445486e+001
5.138437e+002,3.465022e+001
5.148079e+002,3.562805e+001
5.157722e+002,3.630345e+001
5.167364e+002,3.584622e+001
5.177006e+002,3.433473e+001
5.186649e+002,3.279414e+001
5.196291e+002,3.302884e+001
5.205933e+002,3.383879e+001
5.215576e+002,3.336452e+001
5.225218e+002,3.146783e+001
5.234860e+002,2.918863e+001
5.244503e+002,2.857956e+001
5.254145e+002,3.054753e+001
5.263787e+002,3.135417e+001
5.273430e+002,3.035587e+001
5.283072e+002,2.864400e+001
5.292714e+002,2.761691e+001
5.302357e+002,2.727974e+001
5.311999e+002,2.731494e+001
5.321641e+002,2.839771e+001
5.331284e+002,2.955574e+001
5.340926e+002,3.000362e+001
5.350568e+002,2.937247e+001
5.360211e+002,2.798442e+001
5.369853e+002,2.567134e+001
5.379495e+002,2.338272e+001
5.389138e+002,2.205946e+001
5.398780e+002,2.193829e+001
5.408422e+002,2.236172e+001
5.418065e+002,2.131956e+001
5.427707e+002,1.908672e+001
5.437349e+002,1.769324e+001
5.446992e+002,1.770425e+001
5.456634e+002,1.885216e+001
5.466276e+002,2.026590e+001
5.475919e+002,2.267662e+001
5.485561e+002,2.451074e+001
5.495203e+002,2.605551e+001
5.504846e+002,2.677737e+001
5.514488e+002,2.569733e+001
5.524130e+002,2.159822e+001
5.533773e+002,1.780869e+001
5.543415e+002,1.608997e+001
5.553057e+002,1.545853e+001
5.562700e+002,1.475674e+001
5.572342e+002,1.326926e+001
5.581984e+002,1.182976e+001
5.591627e+002,1.318083e+001
5.601269e+002,1.626109e+001
5.610911e+002,1.880678e+001
5.620554e+002,1.961899e+001
5.630196e+002,1.878178e+001
5.639838e+002,1.745499e+001
5.649481e+002,1.439253e+001
5.659123e+002,1.264003e+001
5.668765e+002,1.363208e+001
5.678408e+002,1.652623e+001
5.688050e+002,1.875304e+001
5.697692e+002,1.948692e+001
5.707335e+002,1.919048e+001
5.716977e+002,1.723962e+001
5.726619e+002,1.479160e+001
5.736262e+002,1.354741e+001
5.745904e+002,1.494307e+001
5.755546e+002,1.686569e+001
5.765189e+002,1.542245e+001
5.774831e+002,1.196350e+001
5.784473e+002,8.985840e+000
5.794116e+002,8.246979e+000
5.803758e+002,9.582062e+000
5.813400e+002,9.829437e+000
5.823043e+002,8.485413e+000
5.832685e+002,7.227417e+000
5.842327e+002,6.664886e+000
5.851970e+002,6.832108e+000
5.861612e+002,7.421738e+000
5.871254e+002,9.286026e+000
5.880897e+002,1.036473e+001
5.890539e+002,9.409958e+000
5.900181e+002,7.492218e+000
5.909824e+002,6.598831e+000
5.919466e+002,8.495224e+000
5.929108e+002,1.071814e+001
5.938751e+002,1.040656e+001
5.948393e+002,8.647629e+000
5.958035e+002,7.132874e+000
5.967678e+002,7.109497e+000
5.977320e+002,8.339722e+000
5.986962e+002,8.405350e+000
5.996605e+002,7.139603e+000
6.006247e+002,6.067810e+000
6.015889e+002,6.046448e+000
6.025532e+002,7.001968e+000
6.035174e+002,7.579391e+000
6.044816e+002,7.068436e+000
6.054459e+002,7.001068e+000
6.064101e+002,8.343231e+000
6.073743e+002,1.014449e+001
6.083386e+002,1.050623e+001
6.093028e+002,7.675674e+000
6.102670e+002,4.865189e+000
6.112313e+002,4.882111e+000
6.121955e+002,6.298737e+000
6.131597e+002,7.126801e+000
6.141240e+002,6.024063e+000
6.150882e+002,3.686523e+000
6.160524e+002,3.465347e+000
6.170167e+002,5.033768e+000
6.179809e+002,6.395340e+000
6.189451e+002,6.531860e+000
6.199094e+002,5.551208e+000
6.208736e+002,4.767853e+000
6.218378e+002,4.702637e+000
6.228021e+002,4.503174e+000
6.237663e+002,3.804810e+000
6.247305e+002,3.043472e+000
6.256948e+002,2.913544e+000
6.266590e+002,3.764389e+000
6.276232e+002,4.821091e+000
6.285875e+002,6.671814e+000
6.295517e+002,8.109695e+000
6.305159e+002,7.170807e+000
6.314802e+002,2.948975e+000
6.324444e+002,-2.610733e+000
6.334086e+002,-3.296158e+000
6.343729e+002,-5.441437e-001
6.353371e+002,2.221283e+000
6.363013e+002,3.964325e+000
6.372656e+002,4.567551e+000
6.382298e+002,3.642365e+000
6.391940e+002,-1.730896e+000
6.401583e+002,-4.768921e+000
6.411225e+002,-3.849792e+000
6.420867e+002,-1.123901e+000
6.430510e+002,9.171295e-001
6.440152e+002,1.543854e+000
6.449794e+002,1.336014e+000
6.459437e+002,-2.816620e-001
6.469079e+002,-1.815338e+000
6.478721e+002,-1.493713e+000
6.488364e+002,1.010666e+000
6.498006e+002,3.735382e+000
6.507648e+002,2.175461e+000
6.517291e+002,-1.823853e+000
6.526933e+002,-3.345673e+000
6.536575e+002,-1.366867e+000
6.546218e+002,2.300751e+000
6.555860e+002,4.228104e+000
6.565502e+002,3.739731e+000
6.575145e+002,2.468323e+000
6.584787e+002,-7.642059e-001
6.594429e+002,-3.735687e+000
6.604072e+002,-4.294159e+000
6.613714e+002,-1.871536e+000
6.623356e+002,1.108551e-001
6.632999e+002,-3.447418e-001
6.642641e+002,-1.481018e+000
6.652283e+002,-2.691788e+000
6.661926e+002,-3.624420e+000
6.671568e+002,-4.038284e+000
6.681210e+002,-3.555176e+000
6.690853e+002,-2.524216e+000
6.700495e+002,-2.012787e+000
6.710137e+002,-1.966003e+000
6.719780e+002,-1.442108e+000
6.729422e+002,7.676849e-001
6.739064e+002,5.339249e+000
6.748707e+002,6.933624e+000
6.758349e+002,3.698196e+000
6.767991e+002,5.079956e-001
6.777634e+002,-2.920990e-001
6.787276e+002,1.094772e+000
6.796918e+002,2.208481e+000
6.806561e+002,2.080551e+000
6.816203e+002,1.269287e+000
6.825845e+002,-1.000031e+000
6.835488e+002,-3.582703e+000
6.845130e+002,-4.460281e+000
6.854772e+002,-1.903549e+000
6.864415e+002,2.170227e+000
6.874057e+002,2.877502e+000
6.883699e+002,1.192581e+000
6.893342e+002,-8.969116e-002
6.902984e+002,6.843262e-001
6.912626e+002,3.112076e+000
6.922269e+002,4.126953e+000
6.931911e+002,3.004578e+000
6.941553e+002,1.744736e+000
6.951196e+002,-7.289124e-002
6.960838e+002,-1.992905e+000
6.970480e+002,-3.256409e+000
6.980123e+002,-3.707474e+000
6.989765e+002,-3.177414e+000
6.999407e+002,-7.637329e-001
7.009050e+002,1.761856e+000
7.018692e+002,2.759552e+000
7.028334e+002,1.790405e+000
7.037977e+002,1.017914e-001
7.047619e+002,-2.602692e-001
7.057261e+002,2.562256e-001
7.066904e+002,5.131836e-001
7.076546e+002,3.261414e-001
7.086188e+002,6.094360e-002
7.095831e+002,3.100586e-001
7.105473e+002,1.247360e+000
7.115115e+002,1.964447e+000
7.124758e+002,2.629593e+000
7.134400e+002,2.901505e+000
7.144042e+002,2.303391e+000
7.153685e+002,9.280701e-001
7.163327e+002,1.794281e-001
7.172969e+002,1.707779e+000
7.182612e+002,3.105865e+000
7.192254e+002,3.198120e+000
7.201896e+002,2.305862e+000
7.211539e+002,1.268417e+000
7.221181e+002,7.593079e-001
7.230823e+002,7.217255e-001
7.240466e+002,1.071503e+000
7.250108e+002,1.791962e+000
7.259750e+002,2.449997e+000
7.269393e+002,2.739395e+000
7.279035e+002,2.503403e+000
7.288677e+002,1.509476e+000
7.298320e+002,-1.585144e+000
7.307962e+002,-3.209625e+000
7.317604e+002,-2.284790e+000
7.327247e+002,-6.289673e-002
7.336889e+002,1.593033e+000
7.346531e+002,1.847839e+000
7.356174e+002,2.037064e+000
7.365816e+002,3.639282e+000
7.375458e+002,5.395233e+000
7.385101e+002,6.217041e+000
7.394743e+002,5.898514e+000
7.404385e+002,5.165039e+000
7.414028e+002,5.103775e+000
7.423670e+002,5.244217e+000
7.433312e+002,4.479965e+000
7.442955e+002,2.816589e+000
7.452597e+002,1.360107e+000
7.462239e+002,1.339920e+000
7.471882e+002,3.083115e+000
7.481524e+002,4.666351e+000
7.491166e+002,6.101471e+000
7.500809e+002,7.052078e+000
7.510451e+002,7.338654e+000
7.520093e+002,7.031967e+000
7.529736e+002,6.477386e+000
7.539378e+002,6.253769e+000
7.549020e+002,5.364746e+000
7.558663e+002,2.379684e+000
7.568306e+002,-1.321472e+000
7.577948e+002,-3.959152e+000
7.587590e+002,-4.494507e+000
7.597233e+002,-3.462738e+000
7.606875e+002,-1.633942e+000
7.616517e+002,9.205933e-001
7.626160e+002,2.484863e+000
7.635802e+002,2.374710e+000
7.645444e+002,1.333740e+000
7.655087e+002,8.152466e-001
7.664729e+002,8.304138e-001
7.674371e+002,1.378784e+000
7.684014e+002,3.095566e+000
7.693656e+002,4.638412e+000
7.703298e+002,4.813507e+000
7.712941e+002,3.680710e+000
7.722583e+002,3.035660e+000
7.732225e+002,4.944244e+000
7.741868e+002,7.128860e+000
7.751510e+002,7.861832e+000
7.761152e+002,7.316238e+000
7.770795e+002,6.150833e+000
7.780437e+002,4.915787e+000
7.790079e+002,3.644775e+000
7.799722e+002,2.961105e+000
7.809364e+002,2.828491e+000
7.819006e+002,2.903198e+000
7.828649e+002,3.293503e+000
7.838291e+002,3.929749e+000
7.847933e+002,4.401825e+000
7.857576e+002,4.679550e+000
7.867218e+002,4.350037e+000
7.876860e+002,2.711746e+000
7.886503e+002,1.206772e+000
7.896145e+002,1.347794e+000
7.905787e+002,3.395432e+000
7.915430e+002,5.534775e+000
7.925072e+002,5.334717e+000
7.934714e+002,4.213577e+000
7.944357e+002,3.880798e+000
7.953999e+002,4.482727e+000
7.963641e+002,5.379517e+000
7.973284e+002,5.821167e+000
7.982926e+002,5.795288e+000
7.992568e+002,5.412689e+000
8.002211e+002,4.194016e+000
8.011853e+002,2.977448e+000
8.021495e+002,2.121841e+000
8.031138e+002,1.831970e+000
8.040780e+002,2.343002e+000
8.050422e+002,4.102905e+000
8.060065e+002,5.654510e+000
8.069707e+002,6.649109e+000
8.079349e+002,7.034027e+000
8.088992e+002,6.708557e+000
8.098634e+002,5.745758e+000
8.108276e+002,4.529587e+000
8.117919e+002,3.334900e+000
8.127561e+002,2.082108e+000
8.137203e+002,9.820862e-001
8.146846e+002,1.958160e-001
8.156488e+002,-1.495972e-001
8.166130e+002,2.810669e-002
8.175773e+002,7.418060e-001
8.185415e+002,1.740097e+000
8.195057e+002,3.587494e+000
8.204700e+002,4.771622e+000
8.214342e+002,4.224808e+000
8.223984e+002,2.633469e+000
8.233627e+002,1.917236e+000
8.243269e+002,3.232361e+000
8.252911e+002,4.598450e+000
8.262554e+002,4.398865e+000
8.272196e+002,3.856186e+000
8.281838e+002,4.598343e+000
8.291481e+002,6.970230e+000
8.301123e+002,9.447739e+000
8.310765e+002,9.058746e+000
8.320408e+002,6.059937e+000
8.330050e+002,4.777023e+000
8.339692e+002,5.860474e+000
8.349335e+002,7.440521e+000
8.358977e+002,7.495300e+000
8.368619e+002,5.775894e+000
8.378262e+002,4.935211e+000
8.387904e+002,5.748077e+000
8.397546e+002,6.438690e+000
8.407189e+002,6.500290e+000
8.416831e+002,6.187729e+000
8.426473e+002,6.050385e+000
8.436116e+002,6.398300e+000
8.445758e+002,6.763550e+000
8.455400e+002,6.368790e+000
8.465043e+002,5.586777e+000
8.474685e+002,4.801239e+000
8.484327e+002,4.316071e+000
8.493970e+002,4.508865e+000
8.503612e+002,5.906326e+000
8.513254e+002,8.736694e+000
8.522897e+002,1.082930e+001
8.532539e+002,1.228149e+001
8.542181e+002,1.285970e+001
8.551824e+002,1.196533e+001
8.561466e+002,9.998856e+000
8.571108e+002,9.405899e+000
8.580751e+002,1.208009e+001
8.590393e+002,1.365813e+001
8.600035e+002,1.176093e+001
8.609678e+002,8.817963e+000
8.619320e+002,7.695724e+000
8.628962e+002,9.468964e+000
8.638605e+002,1.236737e+001
8.648247e+002,1.399797e+001
8.657889e+002,1.464165e+001
8.667532e+002,1.485756e+001
8.677174e+002,1.471368e+001
8.686816e+002,1.428760e+001
8.696459e+002,1.357370e+001
8.706101e+002,1.247536e+001
8.715743e+002,1.241936e+001
8.725386e+002,1.451180e+001
8.735028e+002,1.616762e+001
8.744670e+002,1.620691e+001
8.754313e+002,1.532106e+001
8.763955e+002,1.498079e+001
8.773597e+002,1.580464e+001
8.783240e+002,1.697365e+001
8.792882e+002,1.827151e+001
8.802524e+002,1.925655e+001
8.812167e+002,1.922391e+001
8.821809e+002,1.827708e+001
8.831451e+002,1.739917e+001
8.841094e+002,1.795007e+001
8.850736e+002,1.992007e+001
8.860378e+002,2.067580e+001
8.870021e+002,1.973668e+001
8.879663e+002,1.912949e+001
8.889305e+002,2.021725e+001
8.898948e+002,2.258246e+001
8.908590e+002,2.430701e+001
8.918232e+002,2.550343e+001
8.927875e+002,2.572093e+001
8.937517e+002,2.389169e+001
8.947159e+002,2.189336e+001
8.956802e+002,2.135721e+001
8.966444e+002,2.245998e+001
8.976086e+002,2.384084e+001
8.985729e+002,2.419325e+001
8.995371e+002,2.422075e+001
9.005013e+002,2.508379e+001
9.014656e+002,2.670587e+001
9.024298e+002,2.838597e+001
9.033940e+002,2.954829e+001
9.043583e+002,3.009789e+001
9.053225e+002,3.009166e+001
9.062867e+002,2.862627e+001
9.072510e+002,2.759418e+001
9.082152e+002,2.727802e+001
9.091794e+002,2.753947e+001
9.101437e+002,2.833289e+001
9.111079e+002,2.964528e+001
9.120721e+002,3.099437e+001
9.130364e+002,3.312314e+001
9.140006e+002,3.396249e+001
9.149648e+002,3.079083e+001
9.159291e+002,2.563588e+001
9.168933e+002,2.273082e+001
9.178575e+002,2.493092e+001
9.188218e+002,3.036768e+001
9.197860e+002,3.291843e+001
9.207502e+002,3.255252e+001
9.217145e+002,3.120728e+001
9.226787e+002,2.865955e+001
9.236429e+002,2.608971e+001
9.246072e+002,2.514551e+001
9.255714e+002,2.606934e+001
9.265356e+002,2.681654e+001
9.274999e+002,2.676958e+001
9.284641e+002,2.669180e+001
9.294283e+002,2.713234e+001
9.303926e+002,2.776251e+001
9.313568e+002,2.798982e+001
9.323210e+002,2.750795e+001
9.332853e+002,2.642155e+001
9.342495e+002,2.437680e+001
9.352137e+002,2.191833e+001
9.361780e+002,2.011836e+001
9.371422e+002,1.928271e+001
9.381064e+002,1.876192e+001
9.390707e+002,1.740414e+001
9.400349e+002,1.464055e+001
9.409991e+002,1.411397e+001
9.419634e+002,1.755629e+001
9.429276e+002,2.062128e+001
9.438918e+002,2.258984e+001
9.448561e+002,2.339633e+001
9.458203e+002,2.264871e+001
9.467845e+002,1.987350e+001
9.477488e+002,1.758600e+001
9.487130e+002,1.806035e+001
9.496772e+002,1.946727e+001
9.506415e+002,2.074963e+001
9.516057e+002,2.160350e+001
9.525699e+002,2.195129e+001
9.535342e+002,2.169725e+001
9.544984e+002,2.086729e+001
9.554626e+002,2.004527e+001
9.564269e+002,1.932025e+001
9.573911e+002,1.895509e+001
9.583553e+002,1.918498e+001
9.593196e+002,1.967097e+001
9.602838e+002,1.993573e+001
9.612480e+002,1.995917e+001
9.622123e+002,1.955785e+001
9.631765e+002,1.824011e+001
9.641407e+002,1.701781e+001
9.651050e+002,1.626953e+001
9.660692e+002,1.592873e+001
9.670334e+002,1.584460e+001
9.679977e+002,1.599606e+001
9.689619e+002,1.639552e+001
9.699261e+002,1.708412e+001
9.708904e+002,1.777238e+001
9.718546e+002,1.759221e+001
9.728188e+002,1.610905e+001
9.737831e+002,1.448810e+001
9.747473e+002,1.447470e+001
9.757115e+002,1.651079e+001
9.766758e+002,1.799197e+001
9.776400e+002,1.876938e+001
9.786042e+002,1.936526e+001
9.795685e+002,1.995383e+001
9.805327e+002,2.022713e+001
9.814969e+002,1.961693e+001
9.824612e+002,1.800082e+001
9.834254e+002,1.664969e+001
9.843896e+002,1.705412e+001
9.853539e+002,1.806299e+001
9.863181e+002,1.877574e+001
9.872823e+002,1.890558e+001
9.882466e+002,1.803847e+001
9.892108e+002,1.588544e+001
9.901750e+002,1.292534e+001
9.911393e+002,1.155388e+001
9.921035e+002,1.282533e+001
9.930677e+002,1.337430e+001
9.940320e+002,1.262172e+001
9.949962e+002,1.169620e+001
9.959604e+002,1.133322e+001
9.969247e+002,1.167046e+001
9.978889e+002,1.330980e+001
9.988531e+002,1.754369e+001
9.998174e+002,2.159360e+001
1.000782e+003,2.417374e+001
1.001746e+003,2.554726e+001
1.002710e+003,2.593857e+001
1.003674e+003,2.555043e+001
1.004639e+003,2.482477e+001
1.005603e+003,2.459421e+001
1.006567e+003,2.486629e+001
1.007531e+003,2.446985e+001
1.008495e+003,2.362836e+001
1.009460e+003,2.182814e+001
1.010424e+003,1.769101e+001
1.011388e+003,1.221812e+001
1.012352e+003,9.723969e+000
1.013317e+003,1.240912e+001
1.014281e+003,1.454669e+001
1.015245e+003,1.392882e+001
1.016209e+003,1.248994e+001
1.017174e+003,1.136166e+001
1.018138e+003,1.087505e+001
1.019102e+003,1.111473e+001
1.020066e+003,1.233253e+001
1.021031e+003,1.388669e+001
1.021995e+003,1.348955e+001
1.022959e+003,1.141873e+001
1.023923e+003,9.103287e+000
1.024887e+003,6.815491e+000
1.025852e+003,4.771362e+000
1.026816e+003,3.310379e+000
1.027780e+003,2.501511e+000
1.028744e+003,2.416199e+000
1.029709e+003,4.598831e+000
1.030673e+003,5.647934e+000
1.031637e+003,3.520264e+000
1.032601e+003,-6.896973e-003
1.033566e+003,-2.370026e+000
1.034530e+003,-2.648041e+000
1.035494e+003,-2.091187e+000
1.036458e+003,-1.985565e+000
1.037422e+003,-2.057678e+000
1.038387e+003,-1.750381e+000
1.039351e+003,-1.112656e+000
1.040315e+003,-6.239319e-001
1.041279e+003,-7.241211e-001
1.042244e+003,-1.034103e+000
1.043208e+003,3.186646e-001
1.044172e+003,6.228912e+000
1.045136e+003,8.291656e+000
1.046101e+003,3.462219e+000
1.047065e+003,-2.000610e+000
1.048029e+003,-4.289001e+000
1.048993e+003,-3.663452e+000
1.049958e+003,-2.292587e+000
1.050922e+003,-8.173370e-001
1.051886e+003,3.977966e-001
1.052850e+003,8.709106e-001
1.053814e+003,9.183807e-001
1.054779e+003,8.206940e-001
1.055743e+003,6.755219e-001
1.056707e+003,6.254120e-001
1.057671e+003,8.780060e-001
1.058636e+003,1.413269e+000
1.059600e+003,1.377838e+000
1.060564e+003,-2.068176e-001
1.061528e+003,-6.375580e-001
1.062493e+003,1.446060e+000
1.063457e+003,3.983444e+000
1.064421e+003,4.630905e+000
1.065385e+003,3.200104e+000
1.066349e+003,1.673523e+000
1.067314e+003,8.637085e-001
1.068278e+003,5.142212e-001
1.069242e+003,5.673218e-001
1.070206e+003,9.153137e-001
1.071171e+003,1.323746e+000
1.072135e+003,1.666702e+000
1.073099e+003,2.118027e+000
1.074063e+003,3.109543e+000
1.075028e+003,4.795486e+000
1.075992e+003,5.415512e+000
1.076956e+003,4.453140e+000
1.077920e+003,3.332565e+000
1.078885e+003,2.787888e+000
1.079849e+003,2.506653e+000
1.080813e+003,1.648941e+000
1.081777e+003,-8.213806e-002
1.082741e+003,-1.234619e+000
1.083706e+003,-6.436768e-001
1.084670e+003,1.536255e-001
1.085634e+003,5.147400e-001
1.086598e+003,3.947449e-001
1.087563e+003,-2.343597e-001
1.088527e+003,-1.267151e+000
1.089491e+003,-2.127167e+000
1.090455e+003,-1.731888e+000
1.091420e+003,4.669189e-003
1.092384e+003,7.685089e-001
1.093348e+003,2.110291e-002
1.094312e+003,-8.524475e-001
1.095276e+003,-1.022614e+000
1.096241e+003,-5.707245e-001
1.097205e+003,2.330475e-001
1.098169e+003,1.695526e+000
1.099133e+003,2.245453e+000
1.100098e+003,4.935303e-001
1.101062e+003,-1.428680e+000
1.102026e+003,-2.475021e+000
1.102990e+003,-2.509247e+000
1.103955e+003,-1.478928e+000
1.104919e+003,5.882263e-001
1.105883e+003,2.825821e+000
1.106847e+003,3.297424e+000
1.107812e+003,1.942596e+000
1.108776e+003,1.285980e+000
1.109740e+003,1.772278e+000
1.110704e+003,2.256271e+000
1.111668e+003,1.727386e+000
1.112633e+003,5.991974e-001
1.113597e+003,5.331879e-001
1.114561e+003,2.271530e+000
1.115525e+003,3.449203e+000
1.116490e+003,2.780045e+000
1.117454e+003,1.890686e+000
1.118418e+003,2.007751e+000
1.119382e+003,2.945541e+000
1.120347e+003,3.829224e+000
1.121311e+003,4.029251e+000
1.122275e+003,3.466888e+000
1.123239e+003,1.933975e+000
1.124203e+003,-2.396545e-001
1.125168e+003,-9.314728e-001
1.126132e+003,3.814392e-001
1.127096e+003,2.326080e+000
1.128060e+003,3.984940e+000
1.129025e+003,5.348984e+000
1.129989e+003,6.552048e+000
1.130953e+003,7.609467e+000
1.131917e+003,8.339569e+000
1.132882e+003,8.562210e+000
1.133846e+003,8.726868e+000
1.134810e+003,9.060471e+000
1.135774e+003,9.591278e+000
1.136739e+003,1.025931e+001
1.137703e+003,1.102049e+001
1.138667e+003,1.188289e+001
1.139631e+003,1.290492e+001
1.140595e+003,1.406248e+001
1.141560e+003,1.521884e+001
1.142524e+003,1.630458e+001
1.143488e+003,1.794803e+001
1.144452e+003,2.067842e+001
1.145417e+003,2.426816e+001
1.146381e+003,2.780885e+001
1.147345e+003,3.091281e+001
1.148309e+003,3.488989e+001
1.149274e+003,4.045215e+001
1.150238e+003,4.658797e+001
1.151202e+003,5.339670e+001
1.152166e+003,6.036356e+001
1.153130e+003,6.694595e+001
1.154095e+003,7.269647e+001
1.155059e+003,7.680569e+001
1.156023e+003,7.809811e+001
1.156987e+003,7.680194e+001
1.157952e+003,7.554558e+001
1.158916e+003,7.486137e+001
1.159880e+003,7.263890e+001
1.160844e+003,6.656844e+001
1.161809e+003,5.815562e+001
1.162773e+003,5.109483e+001
1.163737e+003,4.557115e+001
1.164701e+003,4.069481e+001
1.165666e+003,3.651128e+001
1.166630e+003,3.285825e+001
1.167594e+003,3.006308e+001
1.168558e+003,2.756770e+001
1.169522e+003,2.416417e+001
1.170487e+003,1.983273e+001
1.171451e+003,1.682341e+001
1.172415e+003,1.809145e+001
1.173379e+003,2.223091e+001
1.174344e+003,2.111363e+001
1.175308e+003,1.443225e+001
1.176272e+003,9.763718e+000
1.177236e+003,1.121803e+001
1.178201e+003,1.465031e+001
1.179165e+003,1.434952e+001
1.180129e+003,1.018747e+001
1.181093e+003,6.945923e+000
1.182057e+003,5.965790e+000
1.183022e+003,5.646042e+000
1.183986e+003,5.567780e+000
1.184950e+003,5.649094e+000
1.185914e+003,5.699203e+000
1.186879e+003,5.856552e+000
1.187843e+003,6.718552e+000
1.188807e+003,8.775452e+000
1.189771e+003,1.132584e+001
1.190736e+003,1.225705e+001
1.191700e+003,1.135474e+001
1.192664e+003,1.084146e+001
1.193628e+003,1.118376e+001
1.194593e+003,1.171669e+001
1.195557e+003,1.213477e+001
1.196521e+003,1.233482e+001
1.197485e+003,1.194669e+001
1.198449e+003,1.079266e+001
1.199414e+003,9.497635e+000
1.200378e+003,8.511078e+000
1.201342e+003,7.349365e+000
1.202306e+003,5.148422e+000
1.203271e+003,2.553162e+000
1.204235e+003,1.041565e+000
1.205199e+003,1.283554e+000
1.206163e+003,2.336151e+000
1.207128e+003,2.617020e+000
1.208092e+003,2.092819e+000
1.209056e+003,1.389572e+000
1.210020e+003,3.617859e-002
1.210984e+003,-5.686798e-001
1.211949e+003,1.237183e+000
1.212913e+003,3.177933e+000
1.213877e+003,1.814224e+000
1.214841e+003,-2.920471e+000
1.215806e+003,-6.900009e+000
1.216770e+003,-8.444550e+000
1.217734e+003,-8.994339e+000
1.218698e+003,-8.969055e+000
1.219663e+003,-9.141479e+000
1.220627e+003,-1.109306e+001
1.221591e+003,-1.455750e+001
1.222555e+003,-1.705521e+001
1.223520e+003,-1.621017e+001
1.224484e+003,-1.282834e+001
1.225448e+003,-1.097267e+001
1.226412e+003,-1.144858e+001
1.227376e+003,-1.187648e+001
1.228341e+003,-1.292130e+001
1.229305e+003,-1.325771e+001
1.230269e+003,-1.144762e+001
1.231233e+003,-8.629150e+000
1.232198e+003,-7.044922e+000
1.233162e+003,-7.239258e+000
1.234126e+003,-8.223190e+000
1.235090e+003,-9.845535e+000
1.236055e+003,-1.155894e+001
1.237019e+003,-1.286404e+001
1.237983e+003,-1.377960e+001
1.238947e+003,-1.421889e+001
1.239911e+003,-1.410989e+001
1.240876e+003,-1.386745e+001
1.241840e+003,-1.423149e+001
1.242804e+003,-1.526480e+001
1.243768e+003,-1.564783e+001
1.244733e+003,-1.488057e+001
1.245697e+003,-1.405710e+001
1.246661e+003,-1.316096e+001
1.247625e+003,-1.249855e+001
1.248590e+003,-1.228552e+001
1.249554e+003,-1.238237e+001
1.250518e+003,-1.260841e+001
1.251482e+003,-1.297879e+001
1.252447e+003,-1.305487e+001
1.253411e+003,-1.177150e+001
1.254375e+003,-9.929794e+000
1.255339e+003,-9.616333e+000
1.256303e+003,-1.078429e+001
1.257268e+003,-1.136238e+001
1.258232e+003,-1.001334e+001
1.259196e+003,-7.846313e+000
1.260160e+003,-7.110840e+000
1.261125e+003,-8.058182e+000
1.262089e+003,-8.330292e+000
1.263053e+003,-6.761826e+000
1.264017e+003,-5.875183e+000
1.264982e+003,-6.746475e+000
1.265946e+003,-8.122604e+000
1.266910e+003,-8.886047e+000
1.267874e+003,-8.936508e+000
1.268839e+003,-8.754684e+000
1.269803e+003,-8.647125e+000
1.270767e+003,-8.557358e+000
1.271731e+003,-8.286331e+000
1.272695e+003,-7.833405e+000
1.273660e+003,-7.991058e+000
1.274624e+003,-9.255447e+000
1.275588e+003,-1.026543e+001
1.276552e+003,-9.879105e+000
1.277517e+003,-8.767059e+000
1.278481e+003,-8.266800e+000
1.279445e+003,-8.499161e+000
1.280409e+003,-9.074448e+000
1.281374e+003,-1.021245e+001
1.282338e+003,-1.117693e+001
1.283302e+003,-1.146182e+001
1.284266e+003,-1.148412e+001
1.285230e+003,-1.178380e+001
1.286195e+003,-1.238516e+001
1.287159e+003,-1.285626e+001
1.288123e+003,-1.280154e+001
1.289087e+003,-1.229610e+001
1.290052e+003,-1.172870e+001
1.291016e+003,-1.104861e+001
1.291980e+003,-1.081180e+001
1.292944e+003,-1.169484e+001
1.293909e+003,-1.228140e+001
1.294873e+003,-1.139699e+001
1.295837e+003,-1.010603e+001
1.296801e+003,-1.019626e+001
1.297766e+003,-1.177217e+001
1.298730e+003,-1.286963e+001
1.299694e+003,-1.220470e+001
1.300658e+003,-1.131342e+001
1.301622e+003,-1.236354e+001
1.302587e+003,-1.408574e+001
1.303551e+003,-1.432567e+001
1.304515e+003,-1.276736e+001
1.305479e+003,-1.079994e+001
1.306444e+003,-9.488815e+000
1.307408e+003,-8.822235e+000
1.308372e+003,-8.742050e+000
1.309336e+003,-9.562012e+000
1.310301e+003,-1.002058e+001
1.311265e+003,-9.099777e+000
1.312229e+003,-8.893784e+000
1.313193e+003,-1.113626e+001
1.314157e+003,-1.369131e+001
1.315122e+003,-1.385394e+001
1.316086e+003,-1.181535e+001
1.317050e+003,-1.022214e+001
1.318014e+003,-1.079407e+001
1.318979e+003,-1.242758e+001
1.319943e+003,-1.349908e+001
1.320907e+003,-1.387463e+001
1.321871e+003,-1.291144e+001
1.322836e+003,-1.011345e+001
1.323800e+003,-8.102753e+000
1.324764e+003,-8.766891e+000
1.325728e+003,-1.078651e+001
1.326693e+003,-1.217957e+001
1.327657e+003,-1.294051e+001
1.328621e+003,-1.277979e+001
1.329585e+003,-1.060204e+001
1.330549e+003,-8.673508e+000
1.331514e+003,-8.694611e+000
1.332478e+003,-9.445724e+000
1.333442e+003,-9.671051e+000
1.334406e+003,-9.344467e+000
1.335371e+003,-9.268570e+000
1.336335e+003,-9.909668e+000
1.337299e+003,-1.066280e+001
1.338263e+003,-1.036324e+001
1.339228e+003,-8.842697e+000
1.340192e+003,-7.808121e+000
1.341156e+003,-7.696228e+000
1.342120e+003,-7.396103e+000
1.343084e+003,-6.304199e+000
1.344049e+003,-5.540985e+000
1.345013e+003,-6.339691e+000
1.345977e+003,-8.130295e+000
1.346941e+003,-9.163696e+000
1.347906e+003,-8.797806e+000
1.348870e+003,-8.027374e+000
1.349834e+003,-7.579056e+000
1.350798e+003,-7.573334e+000
1.351763e+003,-8.329514e+000
1.352727e+003,-9.621658e+000
1.353691e+003,-1.023154e+001
1.354655e+003,-9.594391e+000
1.355620e+003,-8.538757e+000
1.356584e+003,-8.116806e+000
1.357548e+003,-8.180161e+000
1.358512e+003,-7.463867e+000
1.359476e+003,-5.243515e+000
1.360441e+003,-4.388535e+000
1.361405e+003,-7.039795e+000
1.362369e+003,-9.551498e+000
1.363333e+003,-1.002403e+001
1.364298e+003,-9.281769e+000
1.365262e+003,-8.509155e+000
1.366226e+003,-8.113297e+000
1.367190e+003,-7.931992e+000
1.368155e+003,-7.821030e+000
1.369119e+003,-7.797165e+000
1.370083e+003,-7.884766e+000
1.371047e+003,-8.010361e+000
1.372011e+003,-8.430542e+000
1.372976e+003,-9.841888e+000
1.373940e+003,-1.082669e+001
1.374904e+003,-1.038914e+001
1.375868e+003,-9.467346e+000
1.376833e+003,-9.325577e+000
1.377797e+003,-1.001295e+001
1.378761e+003,-1.079411e+001
1.379725e+003,-1.148392e+001
1.380690e+003,-1.169171e+001
1.381654e+003,-1.048759e+001
1.382618e+003,-8.760162e+000
1.383582e+003,-7.764832e+000
1.384547e+003,-7.516464e+000
1.385511e+003,-7.407684e+000
1.386475e+003,-7.180496e+000
1.387439e+003,-6.965408e+000
1.388403e+003,-6.923737e+000
1.389368e+003,-7.065323e+000
1.390332e+003,-7.398773e+000
1.391296e+003,-8.276199e+000
1.392260e+003,-8.472519e+000
1.393225e+003,-6.836685e+000
1.394189e+003,-5.499374e+000
1.395153e+003,-6.347382e+000
1.396117e+003,-8.000336e+000
1.397082e+003,-7.883438e+000
1.398046e+003,-5.613968e+000
1.399010e+003,-3.485947e+000
1.399974e+003,-3.685867e+000
1.400938e+003,-5.483093e+000
1.401903e+003,-6.232040e+000
1.402867e+003,-5.273209e+000
1.403831e+003,-4.970337e+000
1.404795e+003,-6.383652e+000
1.405760e+003,-7.245132e+000
1.406724e+003,-6.533432e+000
1.407688e+003,-5.352814e+000
1.408652e+003,-4.726486e+000
1.409617e+003,-4.627655e+000
1.410581e+003,-4.701965e+000
1.411545e+003,-4.812943e+000
1.412509e+003,-5.092072e+000
1.413474e+003,-6.005707e+000
1.414438e+003,-7.103119e+000
1.415402e+003,-7.374374e+000
1.416366e+003,-6.834915e+000
1.417330e+003,-6.185760e+000
1.418295e+003,-5.691376e+000
1.419259e+003,-5.192139e+000
1.420223e+003,-4.456680e+000
1.421187e+003,-3.626114e+000
1.422152e+003,-3.200699e+000
1.423116e+003,-3.091492e+000
1.424080e+003,-3.355225e+000
1.425044e+003,-4.539032e+000
1.426009e+003,-5.736710e+000
1.426973e+003,-7.229172e+000
1.427937e+003,-8.137192e+000
1.428901e+003,-6.821350e+000
1.429865e+003,-3.688660e+000
1.430830e+003,-9.642487e-001
1.431794e+003,-1.723480e-001
1.432758e+003,-9.051361e-001
1.433722e+003,-2.350052e+000
1.434687e+003,-4.514984e+000
1.435651e+003,-5.480804e+000
1.436615e+003,-5.090851e+000
1.437579e+003,-4.389130e+000
1.438544e+003,-2.808868e+000
1.439508e+003,-1.518524e+000
1.440472e+003,-1.420792e+000
1.441436e+003,-2.014023e+000
1.442401e+003,-2.543243e+000
1.443365e+003,-2.770477e+000
1.444329e+003,-2.330978e+000
1.445293e+003,-7.335205e-001
1.446257e+003,1.185806e+000
1.447222e+003,1.601639e+000
1.448186e+003,7.979736e-001
1.449150e+003,3.214722e-001
1.450114e+003,2.742615e-001
1.451079e+003,5.142517e-001
1.452043e+003,1.473785e+000
1.453007e+003,2.463074e+000
1.453971e+003,2.476776e+000
1.454936e+003,1.515182e+000
1.455900e+003,-1.618500e-001
1.456864e+003,-2.789566e+000
1.457828e+003,-4.943573e+000
1.458792e+003,-6.054779e+000
1.459757e+003,-6.191803e+000
1.460721e+003,-4.801331e+000
1.461685e+003,-2.639175e+000
1.462649e+003,-9.512939e-001
1.463614e+003,-1.048584e-001
1.464578e+003,-3.014679e-001
1.465542e+003,-2.048203e+000
1.466506e+003,-4.470184e+000
1.467471e+003,-4.522507e+000
1.468435e+003,-1.314026e+000
1.469399e+003,2.961121e-001
1.470363e+003,-1.965393e+000
1.471328e+003,-3.184464e+000
1.472292e+003,-1.717712e+000
1.473256e+003,3.811188e-001
1.474220e+003,2.463181e+000
1.475184e+003,3.945892e+000
1.476149e+003,3.623428e+000
1.477113e+003,1.395477e+000
1.478077e+003,-8.623199e-001
1.479041e+003,-1.242935e+000
1.480006e+003,-1.657715e-001
1.480970e+003,8.316345e-001
1.481934e+003,1.694794e+000
1.482898e+003,2.221130e+000
1.483863e+003,2.758804e+000
1.484827e+003,2.475906e+000
1.485791e+003,-9.394836e-002
1.486755e+003,-2.337234e+000
1.487719e+003,-1.517105e+000
1.488684e+003,1.528702e+000
1.489648e+003,4.266403e+000
1.490612e+003,5.918854e+000
1.491576e+003,7.294617e+000
1.492541e+003,9.156555e+000
1.493505e+003,1.088945e+001
1.494469e+003,1.072496e+001
1.495433e+003,8.953445e+000
1.496398e+003,8.100952e+000
1.497362e+003,8.844528e+000
1.498326e+003,9.822861e+000
1.499290e+003,1.008524e+001
1.500255e+003,1.032805e+001
1.501219e+003,1.147279e+001
1.502183e+003,1.342584e+001
1.503147e+003,1.564925e+001
1.504111e+003,1.801208e+001
1.505076e+003,2.071869e+001
1.506040e+003,2.407533e+001
1.507004e+003,2.769196e+001
1.507968e+003,3.107042e+001
1.508933e+003,3.442596e+001
1.509897e+003,3.824936e+001
1.510861e+003,4.276346e+001
1.511825e+003,4.773592e+001
1.512790e+003,5.292828e+001
1.513754e+003,5.827406e+001
1.514718e+003,6.384724e+001
1.515682e+003,6.955780e+001
1.516646e+003,7.505769e+001
1.517611e+003,8.013219e+001
1.518575e+003,8.575032e+001
1.519539e+003,9.419630e+001
1.520503e+003,1.013838e+002
1.521468e+003,1.050746e+002
1.522432e+003,1.061006e+002
1.523396e+003,1.053371e+002
1.524360e+003,1.033223e+002
1.525325e+003,1.007641e+002
1.526289e+003,9.817096e+001
1.527253e+003,9.557617e+001
1.528217e+003,9.313501e+001
1.529182e+003,9.094882e+001
1.530146e+003,8.688953e+001
1.531110e+003,8.007010e+001
1.532074e+003,7.277530e+001
1.533039e+003,6.474954e+001
1.534003e+003,5.643108e+001
1.534967e+003,4.732445e+001
1.535931e+003,3.889110e+001
1.536896e+003,3.303218e+001
1.537860e+003,2.942767e+001
1.538824e+003,2.620532e+001
1.539788e+003,2.232965e+001
1.540752e+003,1.825984e+001
1.541717e+003,1.461052e+001
1.542681e+003,1.146188e+001
1.543645e+003,8.874344e+000
1.544609e+003,6.684052e+000
1.545573e+003,5.940720e+000
1.546538e+003,7.688828e+000
1.547502e+003,9.172775e+000
1.548466e+003,9.876709e+000
1.549430e+003,9.726364e+000
1.550395e+003,7.717178e+000
1.551359e+003,4.791199e+000
1.552323e+003,3.819748e+000
1.553287e+003,5.697922e+000
1.554252e+003,7.997818e+000
1.555216e+003,8.645203e+000
1.556180e+003,8.076538e+000
1.557144e+003,6.983078e+000
1.558109e+003,5.396698e+000
1.559073e+003,5.425186e+000
1.560037e+003,8.170914e+000
1.561001e+003,9.938034e+000
1.561966e+003,9.208939e+000
1.562930e+003,7.576935e+000
1.563894e+003,5.973495e+000
1.564858e+003,4.641830e+000
1.565823e+003,4.154968e+000
1.566787e+003,4.563553e+000
1.567751e+003,5.092651e+000
1.568715e+003,5.416565e+000
1.569679e+003,5.490662e+000
1.570644e+003,5.011169e+000
1.571608e+003,4.189896e+000
1.572572e+003,3.819824e+000
1.573536e+003,3.993164e+000
1.574500e+003,4.420212e+000
1.575465e+003,5.023499e+000
1.576429e+003,5.747345e+000
1.577393e+003,6.793884e+000
1.578357e+003,7.751999e+000
1.579322e+003,7.644470e+000
1.580286e+003,6.554443e+000
1.581250e+003,6.017868e+000
1.582214e+003,6.638000e+000
1.583179e+003,7.370132e+000
1.584143e+003,7.555283e+000
1.585107e+003,7.219803e+000
1.586071e+003,6.414581e+000
1.587036e+003,5.383911e+000
1.588000e+003,4.278336e+000
1.588964e+003,2.962906e+000
1.589928e+003,2.975540e+000
1.590893e+003,6.285248e+000
1.591857e+003,1.060730e+001
1.592821e+003,1.258730e+001
1.593785e+003,1.248532e+001
1.594750e+003,1.139725e+001
1.595714e+003,9.092636e+000
1.596678e+003,7.890854e+000
1.597642e+003,9.361740e+000
1.598606e+003,1.130318e+001
1.599571e+003,1.184438e+001
1.600535e+003,1.190404e+001
1.601499e+003,1.285583e+001
1.602463e+003,1.451314e+001
1.603427e+003,1.542329e+001
1.604392e+003,1.493874e+001
1.605356e+003,1.413744e+001
1.606320e+003,1.426276e+001
1.607284e+003,1.487885e+001
1.608249e+003,1.446948e+001
1.609213e+003,1.297589e+001
1.610177e+003,1.253984e+001
1.611141e+003,1.407478e+001
1.612106e+003,1.528644e+001
1.613070e+003,1.458203e+001
1.614034e+003,1.356630e+001
1.614998e+003,1.331827e+001
1.615963e+003,1.360199e+001
1.616927e+003,1.404585e+001
1.617891e+003,1.448827e+001
1.618855e+003,1.467586e+001
1.619820e+003,1.443857e+001
1.620784e+003,1.367979e+001
1.621748e+003,1.192317e+001
1.622712e+003,9.678864e+000
1.623677e+003,9.708252e+000
1.624641e+003,1.258527e+001
1.625605e+003,1.453552e+001
1.626569e+003,1.444424e+001
1.627533e+003,1.330739e+001
1.628498e+003,1.008151e+001
1.629462e+003,7.618774e+000
1.630426e+003,9.583710e+000
1.631390e+003,1.389316e+001
1.632354e+003,1.536841e+001
1.633319e+003,1.305244e+001
1.634283e+003,1.125711e+001
1.635247e+003,1.339497e+001
1.636211e+003,1.711131e+001
1.637176e+003,1.830704e+001
1.638140e+003,1.714771e+001
1.639104e+003,1.521411e+001
1.640068e+003,1.190851e+001
1.641033e+003,1.015367e+001
1.641997e+003,1.192210e+001
1.642961e+003,1.371558e+001
1.643925e+003,1.338640e+001
1.644890e+003,1.255292e+001
1.645854e+003,1.313448e+001
1.646818e+003,1.452638e+001
1.647782e+003,1.450244e+001
1.648747e+003,1.252269e+001
1.649711e+003,1.121527e+001
1.650675e+003,1.321181e+001
1.651639e+003,1.643105e+001
1.652604e+003,1.580371e+001
1.653568e+003,1.148889e+001
1.654532e+003,9.879608e+000
1.655496e+003,1.230580e+001
1.656460e+003,1.379953e+001
1.657425e+003,1.208298e+001
1.658389e+003,1.039517e+001
1.659353e+003,1.100533e+001
1.660317e+003,1.213420e+001
1.661281e+003,1.140332e+001
1.662246e+003,9.461670e+000
1.663210e+003,9.029510e+000
1.664174e+003,1.096063e+001
1.665138e+003,1.284241e+001
1.666103e+003,1.251724e+001
1.667067e+003,1.090439e+001
1.668031e+003,9.696121e+000
1.668995e+003,8.939514e+000
1.669960e+003,9.286163e+000
1.670924e+003,1.146513e+001
1.671888e+003,1.180212e+001
1.672852e+003,7.209427e+000
1.673817e+003,3.244339e+000
1.674781e+003,4.350296e+000
1.675745e+003,7.165985e+000
1.676709e+003,7.905380e+000
1.677674e+003,7.024979e+000
1.678638e+003,7.235352e+000
1.679602e+003,9.352173e+000
1.680566e+003,1.079050e+001
1.681531e+003,9.150146e+000
1.682495e+003,6.318771e+000
1.683459e+003,5.443756e+000
1.684423e+003,6.194427e+000
1.685387e+003,6.898071e+000
1.686352e+003,7.479706e+000
1.687316e+003,7.649933e+000
1.688280e+003,6.911102e+000
1.689244e+003,6.506805e+000
1.690208e+003,8.761475e+000
1.691173e+003,1.079904e+001
1.692137e+003,8.225250e+000
1.693101e+003,2.768555e+000
1.694065e+003,3.042297e-001
1.695030e+003,2.260162e+000
1.695994e+003,4.772217e+000
1.696958e+003,5.911621e+000
1.697922e+003,5.942673e+000
1.698887e+003,4.560883e+000
1.699851e+003,2.469818e+000
1.700815e+003,2.129364e+000
1.701779e+003,3.641220e+000
1.702744e+003,3.853546e+000
1.703708e+003,1.384415e+000
1.704672e+003,-5.147705e-001
1.705636e+003,8.253632e-001
1.706601e+003,3.467346e+000
1.707565e+003,4.783508e+000
1.708529e+003,5.151596e+000
1.709493e+003,5.654572e+000
1.710458e+003,6.513992e+000
1.711422e+003,6.424149e+000
1.712386e+003,4.142273e+000
1.713350e+003,1.723785e+000
1.714314e+003,2.663116e-001
1.715279e+003,-1.332092e-001
1.716243e+003,1.370178e+000
1.717207e+003,4.274368e+000
1.718171e+003,6.246597e+000
1.719135e+003,6.662903e+000
1.720100e+003,6.043900e+000
1.721064e+003,4.412033e+000
1.722028e+003,2.669647e+000
1.722992e+003,2.286469e+000
1.723957e+003,3.101852e+000
1.724921e+003,3.734497e+000
1.725885e+003,4.142563e+000
1.726849e+003,3.745712e+000
1.727814e+003,1.600082e+000
1.728778e+003,1.275024e-001
1.729742e+003,6.958313e-001
1.730706e+003,2.034393e+000
1.731671e+003,3.475876e+000
1.732635e+003,4.320602e+000
1.733599e+003,3.088623e+000
1.734563e+003,1.016998e-001
1.735528e+003,-1.910858e+000
1.736492e+003,-1.563263e+000
1.737456e+003,-6.700745e-001
1.738420e+003,-1.494995e+000
1.739385e+003,-3.274612e+000
1.740349e+003,-2.837723e+000
1.741313e+003,4.634399e-001
1.742277e+003,3.028183e+000
1.743241e+003,5.582916e+000
1.744206e+003,6.505890e+000
1.745170e+003,4.226791e+000
1.746134e+003,1.736603e+000
1.747098e+003,3.704834e-001
1.748063e+003,-1.081390e-001
1.749027e+003,4.644012e-001
1.749991e+003,1.456070e+000
1.750955e+003,1.276093e+000
1.751919e+003,-4.044952e-001
1.752884e+003,-1.897766e+000
1.753848e+003,-1.800537e+000
1.754812e+003,-7.551117e-001
1.755776e+003,1.129913e-001
1.756741e+003,8.656006e-001
1.757705e+003,7.993927e-001
1.758669e+003,-6.965179e-001
1.759633e+003,-1.418564e+000
1.760598e+003,-5.906982e-001
1.761562e+003,1.014099e-001
1.762526e+003,3.638153e-001
1.763490e+003,2.859497e-001
1.764455e+003,-4.451447e-001
1.765419e+003,-1.251572e+000
1.766383e+003,-1.076645e+000
1.767347e+003,-1.101837e-001
1.768312e+003,2.144165e-001
1.769276e+003,-8.162079e-001
1.770240e+003,-2.106201e+000
1.771204e+003,-2.403259e+000
1.772168e+003,-2.004868e+000
1.773133e+003,-1.814316e+000
1.774097e+003,-1.787048e+000
1.775061e+003,-1.291931e+000
1.776025e+003,-2.170258e-001
1.776990e+003,1.621552e-001
1.777954e+003,-8.759918e-001
1.778918e+003,-1.730530e+000
1.779882e+003,-1.125931e+000
1.780846e+003,5.363464e-002
1.781811e+003,9.157104e-001
1.782775e+003,1.422043e+000
1.783739e+003,1.200272e+000
1.784703e+003,1.265717e-001
1.785668e+003,-4.640045e-001
1.786632e+003,2.109070e-001
1.787596e+003,1.001511e+000
1.788560e+003,1.158615e+000
1.789525e+003,1.095169e+000
1.790489e+003,1.127090e+000
1.791453e+003,1.317886e+000
1.792417e+003,2.126022e+000
1.793382e+003,3.504364e+000
1.794346e+003,4.087296e+000
1.795310e+003,3.094467e+000
1.796274e+003,1.559906e+000
1.797239e+003,6.870575e-001
1.798203e+003,3.801575e-001
1.799167e+003,-4.119873e-002
1.800131e+003,-8.707428e-001
1.801095e+003,-1.091583e+000
1.802060e+003,4.774933e-001
1.803024e+003,1.057419e+000
1.803988e+003,-7.967224e-001
1.804952e+003,-2.363571e+000
1.805917e+003,-2.114899e+000
1.806881e+003,-1.172485e+000
1.807845e+003,-4.957428e-001
1.808809e+003,-1.291199e-001
1.809773e+003,1.942596e-001
1.810738e+003,4.933929e-001
1.811702e+003,4.214325e-001
1.812666e+003,-2.285767e-001
1.813630e+003,-8.900909e-001
1.814595e+003,-7.808838e-001
1.815559e+003,-9.463501e-002
1.816523e+003,6.201019e-001
1.817487e+003,1.454559e+000
1.818452e+003,1.401459e+000
1.819416e+003,6.571960e-002
1.820380e+003,-9.019928e-001
1.821344e+003,-1.158386e+000
1.822309e+003,-9.747467e-001
1.823273e+003,-1.939850e-001
1.824237e+003,8.031311e-001
1.825201e+003,1.551743e+000
1.826166e+003,2.121918e+000
1.827130e+003,3.062286e+000
1.828094e+003,4.388458e+000
1.829058e+003,4.521896e+000
1.830022e+003,2.022919e+000
1.830987e+003,-2.500153e-001
1.831951e+003,6.963348e-001
1.832915e+003,2.851669e+000
1.833879e+003,3.132156e+000
1.834844e+003,2.071487e+000
1.835808e+003,1.900162e+000
1.836772e+003,2.839172e+000
1.837736e+003,2.936371e+000
1.838700e+003,1.252731e+000
1.839665e+003,-1.819916e-001
1.840629e+003,6.396027e-001
1.841593e+003,2.696457e+000
1.842557e+003,3.901703e+000
1.843522e+003,4.246475e+000
1.844486e+003,3.371613e+000
1.845450e+003,-2.570190e-001
1.846414e+003,-1.873581e+000
1.847379e+003,-6.001282e-002
1.848343e+003,1.516449e+000
1.849307e+003,1.621613e+000
1.850271e+003,1.407822e+000
1.851236e+003,1.822159e+000
1.852200e+003,2.496552e+000
1.853164e+003,2.697327e+000
1.854128e+003,2.386963e+000
1.855093e+003,2.022675e+000
1.856057e+003,1.874191e+000
1.857021e+003,1.912231e+000
1.857985e+003,2.066895e+000
1.858949e+003,2.313385e+000
1.859914e+003,2.729828e+000
1.860878e+003,3.267838e+000
1.861842e+003,3.577606e+000
1.862806e+003,3.631592e+000
1.863771e+003,2.943268e+000
1.864735e+003,1.015076e+000
1.865699e+003,1.950989e-001
1.866663e+003,2.251770e+000
1.867627e+003,4.416977e+000
1.868592e+003,3.577103e+000
1.869556e+003,1.500153e+000
1.870520e+003,2.378448e+000
1.871484e+003,5.501038e+000
1.872449e+003,5.731842e+000
1.873413e+003,1.680908e+000
1.874377e+003,-7.788391e-001
1.875341e+003,8.641357e-001
1.876306e+003,2.959625e+000
1.877270e+003,3.816284e+000
1.878234e+003,3.926620e+000
1.879198e+003,3.549683e+000
1.880163e+003,3.026733e+000
1.881127e+003,3.033630e+000
1.882091e+003,3.432068e+000
1.883055e+003,3.223587e+000
1.884020e+003,2.038681e+000
1.884984e+003,6.174774e-001
1.885948e+003,-3.894348e-001
1.886912e+003,-8.284454e-001
1.887876e+003,-2.071228e-001
1.888841e+003,1.329529e+000
1.889805e+003,1.549973e+000
1.890769e+003,-1.123657e-001
1.891733e+003,2.111816e-001
1.892698e+003,4.099457e+000
1.893662e+003,6.811157e+000
1.894626e+003,6.067276e+000
1.895590e+003,4.627335e+000
1.896554e+003,4.311478e+000
1.897519e+003,4.500244e+000
1.898483e+003,4.254654e+000
1.899447e+003,3.734833e+000
1.900411e+003,3.982788e+000
1.901376e+003,5.258270e+000
1.902340e+003,6.217834e+000
1.903304e+003,6.431747e+000
1.904268e+003,6.061646e+000
1.905233e+003,4.868744e+000
1.906197e+003,3.526840e+000
1.907161e+003,2.585220e+000
1.908125e+003,2.115860e+000
1.909090e+003,1.986084e+000
1.910054e+003,2.250259e+000
1.911018e+003,3.683441e+000
1.911982e+003,6.304382e+000
1.912947e+003,8.061768e+000
1.913911e+003,7.429214e+000
1.914875e+003,5.677979e+000
1.915839e+003,4.639145e+000
1.916803e+003,4.318634e+000
1.917768e+003,5.517853e+000
1.918732e+003,8.923401e+000
1.919696e+003,9.466568e+000
1.920660e+003,5.617264e+000
1.921625e+003,3.285782e+000
1.922589e+003,4.474976e+000
1.923553e+003,6.066757e+000
1.924517e+003,7.174377e+000
1.925481e+003,7.332611e+000
1.926446e+003,5.094971e+000
1.927410e+003,2.011597e+000
1.928374e+003,1.308548e+000
1.929338e+003,2.991333e+000
1.930303e+003,4.383194e+000
1.931267e+003,4.906967e+000
1.932231e+003,5.266327e+000
1.933195e+003,5.586304e+000
1.934160e+003,5.886200e+000
1.935124e+003,6.168167e+000
1.936088e+003,6.397522e+000
1.937052e+003,6.632248e+000
1.938017e+003,6.889191e+000
1.938981e+003,7.195053e+000
1.939945e+003,7.452301e+000
1.940909e+003,7.248825e+000
1.941874e+003,6.441971e+000
1.942838e+003,5.680603e+000
1.943802e+003,5.636688e+000
1.944766e+003,6.165054e+000
1.945730e+003,6.911499e+000
1.946695e+003,7.737640e+000
1.947659e+003,7.937958e+000
1.948623e+003,7.439667e+000
1.949587e+003,6.827271e+000
1.950552e+003,6.089813e+000
1.951516e+003,5.780624e+000
1.952480e+003,6.354889e+000
1.953444e+003,6.777054e+000
1.954408e+003,5.929123e+000
1.955373e+003,4.819305e+000
1.956337e+003,5.105759e+000
1.957301e+003,6.487778e+000
1.958265e+003,7.721664e+000
1.959230e+003,8.846710e+000
1.960194e+003,9.319443e+000
1.961158e+003,8.468842e+000
1.962122e+003,7.577927e+000
1.963087e+003,6.447296e+000
1.964051e+003,6.047165e+000
1.965015e+003,8.089432e+000
1.965979e+003,1.027380e+001
1.966944e+003,9.226746e+000
1.967908e+003,6.861404e+000
1.968872e+003,7.724030e+000
1.969836e+003,1.157474e+001
1.970801e+003,1.385133e+001
1.971765e+003,1.269743e+001
1.972729e+003,1.083124e+001
1.973693e+003,1.049374e+001
1.974657e+003,1.083545e+001
1.975622e+003,1.059988e+001
1.976586e+003,9.974075e+000
1.977550e+003,9.365860e+000
1.978514e+003,8.938644e+000
1.979479e+003,9.541931e+000
1.980443e+003,1.119164e+001
1.981407e+003,1.245270e+001
1.982371e+003,1.284164e+001
1.983335e+003,1.239847e+001
1.984300e+003,1.090996e+001
1.985264e+003,9.531570e+000
1.986228e+003,1.031827e+001
1.987192e+003,1.260170e+001
1.988157e+003,1.281145e+001
1.989121e+003,1.038910e+001
1.990085e+003,8.952103e+000
1.991049e+003,8.815247e+000
1.992014e+003,9.130585e+000
1.992978e+003,1.007610e+001
1.993942e+003,1.099173e+001
1.994906e+003,1.190051e+001
1.995871e+003,1.245834e+001
1.996835e+003,1.190619e+001
1.997799e+003,1.119753e+001
1.998763e+003,1.209518e+001
1.999728e+003,1.410457e+001
