5.003444e+002,3.849992e+001
5.013087e+002,4.033916e+001
5.022729e+002,4.082039e+001
5.032371e+002,4.012671e+001
5.042014e+002,3.870654e+001
5.051656e+002,3.673463e+001
5.061298e+002,3.505025e+001
5.070941e+002,3.442184e+001
5.080583e+002,3.502571e+001
5.090225e+002,3.546558e+001
5.099868e+002,3.603761e+001
5.109510e+002,3.622304e+001
5.119152e+002,3.536542e+001
5.128795e+002,3.334216e+001
5.138437e+002,3.231261e+001
5.148079e+002,3.404813e+001
5.157722e+002,3.601352e+001
5.167364e+002,3.767435e+001
5.177006e+002,3.858759e+001
5.186649e+002,3.811710e+001
5.196291e+002,3.402692e+001
5.205933e+002,2.926741e+001
5.215576e+002,2.731523e+001
5.225218e+002,2.829823e+001
5.234860e+002,3.065503e+001
5.244503e+002,3.170561e+001
5.254145e+002,3.109612e+001
5.263787e+002,3.052596e+001
5.273430e+002,2.989555e+001
5.283072e+002,2.936642e+001
5.292714e+002,2.921675e+001
5.302357e+002,2.971948e+001
5.311999e+002,2.964795e+001
5.321641e+002,2.834273e+001
5.331284e+002,2.709665e+001
5.340926e+002,2.722380e+001
5.350568e+002,2.928194e+001
5.360211e+002,3.086070e+001
5.369853e+002,2.928708e+001
5.379495e+002,2.670844e+001
5.389138e+002,2.468535e+001
5.398780e+002,2.385388e+001
5.408422e+002,2.381461e+001
5.418065e+002,2.364198e+001
5.427707e+002,2.334412e+001
5.437349e+002,2.292659e+001
5.446992e+002,2.237996e+001
5.456634e+002,2.169087e+001
5.466276e+002,2.082660e+001
5.475919e+002,1.921741e+001
5.485561e+002,1.828618e+001
5.495203e+002,1.834818e+001
5.504846e+002,1.894879e+001
5.514488e+002,1.945277e+001
5.524130e+002,1.957629e+001
5.533773e+002,1.993356e+001
5.543415e+002,2.128975e+001
5.553057e+002,2.277122e+001
5.562700e+002,2.336218e+001
5.572342e+002,2.243666e+001
5.581984e+002,2.068080e+001
5.591627e+002,1.975636e+001
5.601269e+002,1.944258e+001
5.610911e+002,1.924597e+001
5.620554e+002,1.888872e+001
5.630196e+002,1.837366e+001
5.639838e+002,1.805318e+001
5.649481e+002,1.798885e+001
5.659123e+002,1.803276e+001
5.668765e+002,1.861102e+001
5.678408e+002,1.943069e+001
5.688050e+002,1.944591e+001
5.697692e+002,1.750327e+001
5.707335e+002,1.563939e+001
5.716977e+002,1.482449e+001
5.726619e+002,1.442696e+001
5.736262e+002,1.334430e+001
5.745904e+002,1.063768e+001
5.755546e+002,7.944275e+000
5.765189e+002,7.802994e+000
5.774831e+002,9.278152e+000
5.784473e+002,1.104744e+001
5.794116e+002,1.224071e+001
5.803758e+002,1.294739e+001
5.813400e+002,1.343205e+001
5.823043e+002,1.351051e+001
5.832685e+002,1.358308e+001
5.842327e+002,1.396880e+001
5.851970e+002,1.463950e+001
5.861612e+002,1.503571e+001
5.871254e+002,1.465437e+001
5.880897e+002,1.431366e+001
5.890539e+002,1.407895e+001
5.900181e+002,1.395543e+001
5.909824e+002,1.403000e+001
5.919466e+002,1.457921e+001
5.929108e+002,1.488829e+001
5.938751e+002,1.410208e+001
5.948393e+002,1.268936e+001
5.958035e+002,1.134413e+001
5.967678e+002,1.058319e+001
5.977320e+002,1.037097e+001
5.986962e+002,1.024176e+001
5.996605e+002,1.013019e+001
6.006247e+002,9.836426e+000
6.015889e+002,9.053467e+000
6.025532e+002,7.865631e+000
6.035174e+002,7.340347e+000
6.044816e+002,8.255173e+000
6.054459e+002,9.089340e+000
6.064101e+002,9.211136e+000
6.073743e+002,9.169495e+000
6.083386e+002,1.032837e+001
6.093028e+002,1.450960e+001
6.102670e+002,1.763673e+001
6.112313e+002,1.586794e+001
6.121955e+002,1.165549e+001
6.131597e+002,8.137177e+000
6.141240e+002,7.459412e+000
6.150882e+002,8.884872e+000
6.160524e+002,9.513092e+000
6.170167e+002,9.526291e+000
6.179809e+002,9.256073e+000
6.189451e+002,8.750595e+000
6.199094e+002,7.996933e+000
6.208736e+002,7.205917e+000
6.218378e+002,6.211288e+000
6.228021e+002,5.568451e+000
6.237663e+002,5.415161e+000
6.247305e+002,5.648300e+000
6.256948e+002,6.048157e+000
6.266590e+002,6.412247e+000
6.276232e+002,7.070724e+000
6.285875e+002,8.733414e+000
6.295517e+002,1.056480e+001
6.305159e+002,1.156909e+001
6.314802e+002,1.121233e+001
6.324444e+002,1.002220e+001
6.334086e+002,9.652328e+000
6.343729e+002,9.839737e+000
6.353371e+002,9.473892e+000
6.363013e+002,7.985458e+000
6.372656e+002,5.849823e+000
6.382298e+002,4.857117e+000
6.391940e+002,6.347809e+000
6.401583e+002,7.257172e+000
6.411225e+002,7.290054e+000
6.420867e+002,7.026566e+000
6.430510e+002,7.220016e+000
6.440152e+002,8.259201e+000
6.449794e+002,8.732529e+000
6.459437e+002,7.296173e+000
6.469079e+002,5.549286e+000
6.478721e+002,4.836304e+000
6.488364e+002,5.587555e+000
6.498006e+002,7.016403e+000
6.507648e+002,7.913132e+000
6.517291e+002,8.287979e+000
6.526933e+002,8.087524e+000
6.536575e+002,7.265625e+000
6.546218e+002,6.092880e+000
6.555860e+002,5.047195e+000
6.565502e+002,3.890121e+000
6.575145e+002,3.530197e+000
6.584787e+002,4.491806e+000
6.594429e+002,5.728104e+000
6.604072e+002,6.594986e+000
6.613714e+002,7.047546e+000
6.623356e+002,6.763504e+000
6.632999e+002,4.512238e+000
6.642641e+002,2.317337e+000
6.652283e+002,1.425125e+000
6.661926e+002,1.841171e+000
6.671568e+002,2.654785e+000
6.681210e+002,2.774414e+000
6.690853e+002,2.430893e+000
6.700495e+002,2.264618e+000
6.710137e+002,2.318008e+000
6.719780e+002,2.807556e+000
6.729422e+002,4.066818e+000
6.739064e+002,6.393921e+000
6.748707e+002,7.367264e+000
6.758349e+002,6.350433e+000
6.767991e+002,5.123138e+000
6.777634e+002,4.490082e+000
6.787276e+002,4.435654e+000
6.796918e+002,4.294327e+000
6.806561e+002,3.562027e+000
6.816203e+002,2.835175e+000
6.825845e+002,2.453522e+000
6.835488e+002,2.224380e+000
6.845130e+002,1.595673e+000
6.854772e+002,3.421021e-002
6.864415e+002,-1.327408e+000
6.874057e+002,5.663147e-001
6.883699e+002,4.464966e+000
6.893342e+002,7.326370e+000
6.902984e+002,7.417740e+000
6.912626e+002,5.183151e+000
6.922269e+002,3.551025e+000
6.931911e+002,2.965042e+000
6.941553e+002,2.624893e+000
6.951196e+002,2.500076e+000
6.960838e+002,2.447479e+000
6.970480e+002,2.208557e+000
6.980123e+002,1.499878e+000
6.989765e+002,1.367035e+000
6.999407e+002,2.621475e+000
7.009050e+002,4.173660e+000
7.018692e+002,5.143845e+000
7.028334e+002,5.238571e+000
7.037977e+002,4.924652e+000
7.047619e+002,5.082199e+000
7.057261e+002,5.395920e+000
7.066904e+002,4.870102e+000
7.076546e+002,3.345566e+000
7.086188e+002,1.653931e+000
7.095831e+002,1.140930e+000
7.105473e+002,2.220612e+000
7.115115e+002,3.173676e+000
7.124758e+002,4.122559e+000
7.134400e+002,4.817200e+000
7.144042e+002,4.908081e+000
7.153685e+002,4.457260e+000
7.163327e+002,4.477463e+000
7.172969e+002,6.207184e+000
7.182612e+002,7.815384e+000
7.192254e+002,8.751740e+000
7.201896e+002,8.897934e+000
7.211539e+002,8.056412e+000
7.221181e+002,5.891754e+000
7.230823e+002,3.315445e+000
7.240466e+002,3.039413e+000
7.250108e+002,4.572815e+000
7.259750e+002,5.802597e+000
7.269393e+002,5.359100e+000
7.279035e+002,3.420547e+000
7.288677e+002,2.158539e+000
7.298320e+002,3.060745e+000
7.307962e+002,3.061508e+000
7.317604e+002,7.217102e-001
7.327247e+002,-2.124481e+000
7.336889e+002,-2.640991e+000
7.346531e+002,5.480042e-001
7.356174e+002,3.333679e+000
7.365816e+002,3.384140e+000
7.375458e+002,2.505081e+000
7.385101e+002,1.773697e+000
7.394743e+002,1.622437e+000
7.404385e+002,1.967224e+000
7.414028e+002,2.757629e+000
7.423670e+002,3.787003e+000
7.433312e+002,4.899963e+000
7.442955e+002,6.281143e+000
7.452597e+002,7.257721e+000
7.462239e+002,6.828110e+000
7.471882e+002,4.439575e+000
7.481524e+002,2.883804e+000
7.491166e+002,1.638260e+000
7.500809e+002,1.386551e+000
7.510451e+002,3.307968e+000
7.520093e+002,6.608994e+000
7.529736e+002,8.533066e+000
7.539378e+002,6.884888e+000
7.549020e+002,5.149521e+000
7.558663e+002,6.078156e+000
7.568306e+002,8.149612e+000
7.577948e+002,9.103226e+000
7.587590e+002,7.608353e+000
7.597233e+002,4.579575e+000
7.606875e+002,2.792572e+000
7.616517e+002,2.173477e+000
7.626160e+002,2.082840e+000
7.635802e+002,2.555893e+000
7.645444e+002,3.339310e+000
7.655087e+002,3.932465e+000
7.664729e+002,4.437714e+000
7.674371e+002,4.378876e+000
7.684014e+002,2.992813e+000
7.693656e+002,1.786713e+000
7.703298e+002,1.858368e+000
7.712941e+002,3.270615e+000
7.722583e+002,4.994843e+000
7.732225e+002,6.914886e+000
7.741868e+002,8.169693e+000
7.751510e+002,7.412445e+000
7.761152e+002,5.406548e+000
7.770795e+002,4.033409e+000
7.780437e+002,4.959816e+000
7.790079e+002,7.768440e+000
7.799722e+002,8.983955e+000
7.809364e+002,8.633621e+000
7.819006e+002,7.920700e+000
7.828649e+002,7.120636e+000
7.838291e+002,6.366760e+000
7.847933e+002,6.039810e+000
7.857576e+002,6.578568e+000
7.867218e+002,6.540985e+000
7.876860e+002,5.064667e+000
7.886503e+002,3.570740e+000
7.896145e+002,3.363831e+000
7.905787e+002,4.726364e+000
7.915430e+002,6.541718e+000
7.925072e+002,8.114258e+000
7.934714e+002,8.967331e+000
7.944357e+002,8.268768e+000
7.953999e+002,6.268707e+000
7.963641e+002,4.050201e+000
7.973284e+002,2.772598e+000
7.982926e+002,2.478683e+000
7.992568e+002,2.671799e+000
8.002211e+002,3.289017e+000
8.011853e+002,3.978439e+000
8.021495e+002,4.875107e+000
8.031138e+002,5.974976e+000
8.040780e+002,6.914215e+000
8.050422e+002,7.385132e+000
8.060065e+002,7.853348e+000
8.069707e+002,8.699905e+000
8.079349e+002,9.400970e+000
8.088992e+002,9.273117e+000
8.098634e+002,8.204803e+000
8.108276e+002,7.101700e+000
8.117919e+002,7.523438e+000
8.127561e+002,8.550613e+000
8.137203e+002,8.461563e+000
8.146846e+002,7.156937e+000
8.156488e+002,5.488297e+000
8.166130e+002,4.348389e+000
8.175773e+002,3.614998e+000
8.185415e+002,4.108513e+000
8.195057e+002,7.169487e+000
8.204700e+002,9.448494e+000
8.214342e+002,9.359932e+000
8.223984e+002,7.635536e+000
8.233627e+002,6.346764e+000
8.243269e+002,6.472069e+000
8.252911e+002,6.599632e+000
8.262554e+002,5.753151e+000
8.272196e+002,4.552711e+000
8.281838e+002,3.379890e+000
8.291481e+002,2.516029e+000
8.301123e+002,2.372864e+000
8.310765e+002,4.031738e+000
8.320408e+002,7.193665e+000
8.330050e+002,8.601105e+000
8.339692e+002,7.833176e+000
8.349335e+002,6.143173e+000
8.358977e+002,4.467575e+000
8.368619e+002,2.668472e+000
8.378262e+002,2.230278e+000
8.387904e+002,4.366547e+000
8.397546e+002,6.385071e+000
8.407189e+002,8.161499e+000
8.416831e+002,9.261780e+000
8.426473e+002,8.744583e+000
8.436116e+002,5.776581e+000
8.445758e+002,2.952057e+000
8.455400e+002,3.215302e+000
8.465043e+002,4.887115e+000
8.474685e+002,6.541382e+000
8.484327e+002,7.690704e+000
8.493970e+002,8.354309e+000
8.503612e+002,8.445557e+000
8.513254e+002,7.814163e+000
8.522897e+002,7.257858e+000
8.532539e+002,6.427124e+000
8.542181e+002,5.986206e+000
8.551824e+002,6.932816e+000
8.561466e+002,9.056244e+000
8.571108e+002,9.839844e+000
8.580751e+002,6.705536e+000
8.590393e+002,4.568665e+000
8.600035e+002,5.697906e+000
8.609678e+002,8.358658e+000
8.619320e+002,1.069308e+001
8.628962e+002,1.188345e+001
8.638605e+002,1.235658e+001
8.648247e+002,1.244608e+001
8.657889e+002,1.236076e+001
8.667532e+002,1.259745e+001
8.677174e+002,1.321978e+001
8.686816e+002,1.408517e+001
8.696459e+002,1.519199e+001
8.706101e+002,1.676701e+001
8.715743e+002,1.706257e+001
8.725386e+002,1.481699e+001
8.735028e+002,1.304047e+001
8.744670e+002,1.238857e+001
8.754313e+002,1.262040e+001
8.763955e+002,1.330973e+001
8.773597e+002,1.441984e+001
8.783240e+002,1.583163e+001
8.792882e+002,1.823314e+001
8.802524e+002,2.031638e+001
8.812167e+002,2.043318e+001
8.821809e+002,1.862698e+001
8.831451e+002,1.652428e+001
8.841094e+002,1.625153e+001
8.850736e+002,1.784770e+001
8.860378e+002,1.954555e+001
8.870021e+002,2.154567e+001
8.879663e+002,2.287802e+001
8.889305e+002,2.255476e+001
8.898948e+002,2.093933e+001
8.908590e+002,2.006805e+001
8.918232e+002,2.060538e+001
8.927875e+002,2.119162e+001
8.937517e+002,2.131842e+001
8.947159e+002,2.152197e+001
8.956802e+002,2.237576e+001
8.966444e+002,2.385684e+001
8.976086e+002,2.525778e+001
8.985729e+002,2.609274e+001
8.995371e+002,2.627928e+001
9.005013e+002,2.548764e+001
9.014656e+002,2.394371e+001
9.024298e+002,2.240607e+001
9.033940e+002,2.134106e+001
9.043583e+002,2.075258e+001
9.053225e+002,2.114572e+001
9.062867e+002,2.404135e+001
9.072510e+002,2.580768e+001
9.082152e+002,2.570314e+001
9.091794e+002,2.504053e+001
9.101437e+002,2.513586e+001
9.111079e+002,2.619360e+001
9.120721e+002,2.720111e+001
9.130364e+002,2.768237e+001
9.140006e+002,2.765247e+001
9.149648e+002,2.663011e+001
9.159291e+002,2.524883e+001
9.168933e+002,2.476077e+001
9.178575e+002,2.598060e+001
9.188218e+002,2.817944e+001
9.197860e+002,2.890090e+001
9.207502e+002,2.809739e+001
9.217145e+002,2.726926e+001
9.226787e+002,2.689628e+001
9.236429e+002,2.660433e+001
9.246072e+002,2.565070e+001
9.255714e+002,2.371238e+001
9.265356e+002,2.250050e+001
9.274999e+002,2.247004e+001
9.284641e+002,2.294110e+001
9.294283e+002,2.444897e+001
9.303926e+002,2.618645e+001
9.313568e+002,2.679323e+001
9.323210e+002,2.552510e+001
9.332853e+002,2.334409e+001
9.342495e+002,2.088017e+001
9.352137e+002,1.873863e+001
9.361780e+002,1.867844e+001
9.371422e+002,2.106647e+001
9.381064e+002,2.392485e+001
9.390707e+002,2.445789e+001
9.400349e+002,2.217949e+001
9.409991e+002,2.029269e+001
9.419634e+002,1.835617e+001
9.429276e+002,1.725035e+001
9.438918e+002,1.803711e+001
9.448561e+002,1.956502e+001
9.458203e+002,1.959203e+001
9.467845e+002,1.712154e+001
9.477488e+002,1.520529e+001
9.487130e+002,1.712140e+001
9.496772e+002,1.980754e+001
9.506415e+002,2.112256e+001
9.516057e+002,2.077437e+001
9.525699e+002,1.927855e+001
9.535342e+002,1.709401e+001
9.544984e+002,1.436389e+001
9.554626e+002,1.270993e+001
9.564269e+002,1.239714e+001
9.573911e+002,1.208607e+001
9.583553e+002,1.079800e+001
9.593196e+002,9.543762e+000
9.602838e+002,1.052388e+001
9.612480e+002,1.472652e+001
9.622123e+002,1.715356e+001
9.631765e+002,1.468573e+001
9.641407e+002,1.190994e+001
9.651050e+002,1.084028e+001
9.660692e+002,1.114646e+001
9.670334e+002,1.160731e+001
9.679977e+002,1.150640e+001
9.689619e+002,1.126339e+001
9.699261e+002,1.156246e+001
9.708904e+002,1.227906e+001
9.718546e+002,1.349160e+001
9.728188e+002,1.529462e+001
9.737831e+002,1.716553e+001
9.747473e+002,1.848013e+001
9.757115e+002,1.921461e+001
9.766758e+002,1.962809e+001
9.776400e+002,1.959161e+001
9.786042e+002,1.951610e+001
9.795685e+002,1.963522e+001
9.805327e+002,1.960486e+001
9.814969e+002,1.891257e+001
9.824612e+002,1.743219e+001
9.834254e+002,1.588824e+001
9.843896e+002,1.525597e+001
9.853539e+002,1.460609e+001
9.863181e+002,1.251904e+001
9.872823e+002,9.233963e+000
9.882466e+002,6.363777e+000
9.892108e+002,5.369072e+000
9.901750e+002,6.059654e+000
9.911393e+002,6.399376e+000
9.921035e+002,5.821777e+000
9.930677e+002,5.415909e+000
9.940320e+002,5.610588e+000
9.949962e+002,5.830620e+000
9.959604e+002,5.171417e+000
9.969247e+002,3.683800e+000
9.978889e+002,3.317223e+000
9.988531e+002,6.031609e+000
9.998174e+002,8.623932e+000
1.000782e+003,9.248146e+000
1.001746e+003,8.567680e+000
1.002710e+003,7.455635e+000
1.003674e+003,6.377296e+000
1.004639e+003,5.404167e+000
1.005603e+003,4.671303e+000
1.006567e+003,4.181030e+000
1.007531e+003,3.838737e+000
1.008495e+003,3.665817e+000
1.009460e+003,3.602577e+000
1.010424e+003,3.573746e+000
1.011388e+003,3.643898e+000
1.012352e+003,4.098114e+000
1.013317e+003,5.329521e+000
1.014281e+003,6.104424e+000
1.015245e+003,5.853439e+000
1.016209e+003,5.229042e+000
1.017174e+003,4.663300e+000
1.018138e+003,4.237274e+000
1.019102e+003,3.869766e+000
1.020066e+003,3.554428e+000
1.021031e+003,3.145676e+000
1.021995e+003,1.625618e+000
1.022959e+003,-7.500076e-001
1.023923e+003,-1.908897e+000
1.024887e+003,-8.834839e-001
1.025852e+003,1.121483e+000
1.026816e+003,2.177795e+000
1.027780e+003,2.053902e+000
1.028744e+003,2.325462e+000
1.029709e+003,4.374794e+000
1.030673e+003,5.322533e+000
1.031637e+003,3.158813e+000
1.032601e+003,-1.992493e-001
1.033566e+003,-1.934891e+000
1.034530e+003,-1.070892e+000
1.035494e+003,6.576691e-001
1.036458e+003,1.679520e+000
1.037422e+003,2.043846e+000
1.038387e+003,1.539261e+000
1.039351e+003,3.283310e-001
1.040315e+003,-3.258896e-001
1.041279e+003,6.663055e-001
1.042244e+003,2.860558e+000
1.043208e+003,3.895935e+000
1.044172e+003,2.926933e+000
1.045136e+003,1.997749e+000
1.046101e+003,7.789154e-001
1.047065e+003,3.276825e-002
1.048029e+003,6.124496e-001
1.048993e+003,2.125755e+000
1.049958e+003,3.023872e+000
1.050922e+003,2.285019e+000
1.051886e+003,1.653854e+000
1.052850e+003,3.857758e+000
1.053814e+003,6.786217e+000
1.054779e+003,7.308723e+000
1.055743e+003,4.953316e+000
1.056707e+003,1.980568e+000
1.057671e+003,1.172112e+000
1.058636e+003,2.532143e+000
1.059600e+003,2.399193e+000
1.060564e+003,-1.282333e+000
1.061528e+003,-3.248161e+000
1.062493e+003,-1.676086e+000
1.063457e+003,1.082550e+000
1.064421e+003,2.597160e+000
1.065385e+003,2.608727e+000
1.066349e+003,2.119751e+000
1.067314e+003,8.237228e-001
1.068278e+003,2.077866e-001
1.069242e+003,2.254364e+000
1.070206e+003,5.345650e+000
1.071171e+003,6.648277e+000
1.072135e+003,5.096870e+000
1.073099e+003,2.412941e+000
1.074063e+003,1.578430e+000
1.075028e+003,2.850037e+000
1.075992e+003,3.210320e+000
1.076956e+003,2.308998e+000
1.077920e+003,1.182289e+000
1.078885e+003,-1.433411e-001
1.079849e+003,-1.244240e+000
1.080813e+003,-1.137154e+000
1.081777e+003,6.036377e-001
1.082741e+003,1.966362e+000
1.083706e+003,1.129456e+000
1.084670e+003,1.957626e-001
1.085634e+003,7.391052e-001
1.086598e+003,2.022133e+000
1.087563e+003,2.280693e+000
1.088527e+003,6.522675e-001
1.089491e+003,-1.640152e+000
1.090455e+003,-2.247810e+000
1.091420e+003,-9.898758e-001
1.092384e+003,-5.748749e-002
1.093348e+003,5.232620e-001
1.094312e+003,7.606735e-001
1.095276e+003,5.749664e-001
1.096241e+003,1.288605e-001
1.097205e+003,-1.160507e-001
1.098169e+003,7.151794e-002
1.099133e+003,-2.292786e-001
1.100098e+003,-2.406586e+000
1.101062e+003,-4.141037e+000
1.102026e+003,-3.400734e+000
1.102990e+003,-1.008301e+000
1.103955e+003,7.281876e-001
1.104919e+003,4.172134e-001
1.105883e+003,-7.386093e-001
1.106847e+003,1.771698e-001
1.107812e+003,3.130211e+000
1.108776e+003,3.646538e+000
1.109740e+003,4.074173e-001
1.110704e+003,-2.922310e+000
1.111668e+003,-3.321716e+000
1.112633e+003,-1.484741e+000
1.113597e+003,-6.828842e-001
1.114561e+003,-1.736404e+000
1.115525e+003,-2.733940e+000
1.116490e+003,-3.237907e+000
1.117454e+003,-3.378456e+000
1.118418e+003,-3.112251e+000
1.119382e+003,-2.494225e+000
1.120347e+003,-1.534538e+000
1.121311e+003,-2.920303e-001
1.122275e+003,7.185974e-001
1.123239e+003,4.648132e-001
1.124203e+003,-8.792572e-001
1.125168e+003,-1.862122e+000
1.126132e+003,-2.234131e+000
1.127096e+003,-2.577347e+000
1.128060e+003,-3.458160e+000
1.129025e+003,-4.749458e+000
1.129989e+003,-5.807114e+000
1.130953e+003,-6.870827e+000
1.131917e+003,-7.039253e+000
1.132882e+003,-5.434227e+000
1.133846e+003,-3.593391e+000
1.134810e+003,-2.522400e+000
1.135774e+003,-1.992363e+000
1.136739e+003,-1.079636e+000
1.137703e+003,7.125092e-001
1.138667e+003,2.541962e+000
1.139631e+003,2.719795e+000
1.140595e+003,1.476891e+000
1.141560e+003,1.267021e+000
1.142524e+003,2.516632e+000
1.143488e+003,3.833267e+000
1.144452e+003,4.184319e+000
1.145417e+003,3.821358e+000
1.146381e+003,3.679756e+000
1.147345e+003,3.787537e+000
1.148309e+003,4.029976e+000
1.149274e+003,3.831566e+000
1.150238e+003,4.334114e+000
1.151202e+003,6.730972e+000
1.152166e+003,1.018009e+001
1.153130e+003,1.321344e+001
1.154095e+003,1.506368e+001
1.155059e+003,1.589118e+001
1.156023e+003,1.591351e+001
1.156987e+003,1.520185e+001
1.157952e+003,1.433929e+001
1.158916e+003,1.341875e+001
1.159880e+003,1.241148e+001
1.160844e+003,1.112332e+001
1.161809e+003,9.612076e+000
1.162773e+003,8.233017e+000
1.163737e+003,7.108429e+000
1.164701e+003,5.601288e+000
1.165666e+003,2.742592e+000
1.166630e+003,3.999634e-001
1.167594e+003,-4.520645e-001
1.168558e+003,-4.958649e-001
1.169522e+003,-7.226181e-001
1.170487e+003,-1.409782e+000
1.171451e+003,-1.940186e+000
1.172415e+003,-1.555466e+000
1.173379e+003,-5.426941e-001
1.174344e+003,-3.621445e-001
1.175308e+003,-9.831772e-001
1.176272e+003,-1.827873e+000
1.177236e+003,-3.184311e+000
1.178201e+003,-4.280350e+000
1.179165e+003,-3.752266e+000
1.180129e+003,-1.606918e+000
1.181093e+003,-6.373444e-001
1.182057e+003,-2.197990e+000
1.183022e+003,-3.810272e+000
1.183986e+003,-5.050636e+000
1.184950e+003,-5.552200e+000
1.185914e+003,-4.516830e+000
1.186879e+003,-2.283981e+000
1.187843e+003,-1.842499e-001
1.188807e+003,6.961136e-001
1.189771e+003,4.762421e-001
1.190736e+003,-7.042160e-001
1.191700e+003,-3.037170e+000
1.192664e+003,-4.188446e+000
1.193628e+003,-2.905930e+000
1.194593e+003,-1.709869e+000
1.195557e+003,-2.799530e+000
1.196521e+003,-5.468849e+000
1.197485e+003,-7.118416e+000
1.198449e+003,-7.071800e+000
1.199414e+003,-6.889519e+000
1.200378e+003,-7.673538e+000
1.201342e+003,-8.194565e+000
1.202306e+003,-7.300102e+000
1.203271e+003,-5.600204e+000
1.204235e+003,-4.310287e+000
1.205199e+003,-4.065231e+000
1.206163e+003,-4.740044e+000
1.207128e+003,-6.256439e+000
1.208092e+003,-8.682289e+000
1.209056e+003,-1.004843e+001
1.210020e+003,-1.041205e+001
1.210984e+003,-9.893204e+000
1.211949e+003,-7.584915e+000
1.212913e+003,-5.010864e+000
1.213877e+003,-4.127640e+000
1.214841e+003,-5.034180e+000
1.215806e+003,-6.660606e+000
1.216770e+003,-9.195549e+000
1.217734e+003,-1.143829e+001
1.218698e+003,-1.256432e+001
1.219663e+003,-1.304766e+001
1.220627e+003,-1.350930e+001
1.221591e+003,-1.401134e+001
1.222555e+003,-1.403836e+001
1.223520e+003,-1.306802e+001
1.224484e+003,-1.142863e+001
1.225448e+003,-1.080011e+001
1.226412e+003,-1.184988e+001
1.227376e+003,-1.250470e+001
1.228341e+003,-1.256797e+001
1.229305e+003,-1.251046e+001
1.230269e+003,-1.245197e+001
1.231233e+003,-1.249483e+001
1.232198e+003,-1.297108e+001
1.233162e+003,-1.399225e+001
1.234126e+003,-1.451729e+001
1.235090e+003,-1.332983e+001
1.236055e+003,-1.178709e+001
1.237019e+003,-1.147713e+001
1.237983e+003,-1.203525e+001
1.238947e+003,-1.224127e+001
1.239911e+003,-1.157041e+001
1.240876e+003,-1.086928e+001
1.241840e+003,-1.155344e+001
1.242804e+003,-1.374676e+001
1.243768e+003,-1.497104e+001
1.244733e+003,-1.444476e+001
1.245697e+003,-1.389649e+001
1.246661e+003,-1.374664e+001
1.247625e+003,-1.344506e+001
1.248590e+003,-1.217628e+001
1.249554e+003,-1.032562e+001
1.250518e+003,-9.312057e+000
1.251482e+003,-9.871407e+000
1.252447e+003,-1.065028e+001
1.253411e+003,-9.510986e+000
1.254375e+003,-7.624840e+000
1.255339e+003,-7.906807e+000
1.256303e+003,-1.033524e+001
1.257268e+003,-1.218817e+001
1.258232e+003,-1.184626e+001
1.259196e+003,-1.025301e+001
1.260160e+003,-9.158592e+000
1.261125e+003,-8.575508e+000
1.262089e+003,-8.173058e+000
1.263053e+003,-8.179565e+000
1.264017e+003,-8.150398e+000
1.264982e+003,-7.663857e+000
1.265946e+003,-7.288544e+000
1.266910e+003,-7.721001e+000
1.267874e+003,-8.825737e+000
1.268839e+003,-9.908470e+000
1.269803e+003,-1.051041e+001
1.270767e+003,-1.065588e+001
1.271731e+003,-1.023898e+001
1.272695e+003,-9.274345e+000
1.273660e+003,-8.809975e+000
1.274624e+003,-9.102242e+000
1.275588e+003,-9.492088e+000
1.276552e+003,-9.523148e+000
1.277517e+003,-9.379257e+000
1.278481e+003,-9.634712e+000
1.279445e+003,-1.041109e+001
1.280409e+003,-1.043044e+001
1.281374e+003,-7.991676e+000
1.282338e+003,-6.497177e+000
1.283302e+003,-8.854462e+000
1.284266e+003,-1.232768e+001
1.285230e+003,-1.377685e+001
1.286195e+003,-1.283231e+001
1.287159e+003,-1.102564e+001
1.288123e+003,-9.585350e+000
1.289087e+003,-8.592636e+000
1.290052e+003,-8.432426e+000
1.291016e+003,-9.498596e+000
1.291980e+003,-1.014745e+001
1.292944e+003,-1.018813e+001
1.293909e+003,-1.019061e+001
1.294873e+003,-1.005231e+001
1.295837e+003,-1.009694e+001
1.296801e+003,-1.117328e+001
1.297766e+003,-1.322178e+001
1.298730e+003,-1.434826e+001
1.299694e+003,-1.324698e+001
1.300658e+003,-1.149260e+001
1.301622e+003,-1.063626e+001
1.302587e+003,-1.036859e+001
1.303551e+003,-1.036517e+001
1.304515e+003,-1.051098e+001
1.305479e+003,-1.060831e+001
1.306444e+003,-1.053070e+001
1.307408e+003,-1.031511e+001
1.308372e+003,-9.939682e+000
1.309336e+003,-9.171768e+000
1.310301e+003,-8.995735e+000
1.311265e+003,-1.003153e+001
1.312229e+003,-1.088512e+001
1.313193e+003,-1.142640e+001
1.314157e+003,-1.142211e+001
1.315122e+003,-1.022399e+001
1.316086e+003,-8.180992e+000
1.317050e+003,-6.736679e+000
1.318014e+003,-6.843506e+000
1.318979e+003,-7.778618e+000
1.319943e+003,-8.382988e+000
1.320907e+003,-8.655602e+000
1.321871e+003,-8.931511e+000
1.322836e+003,-9.404526e+000
1.323800e+003,-9.467598e+000
1.324764e+003,-8.215134e+000
1.325728e+003,-6.629990e+000
1.326693e+003,-6.466782e+000
1.327657e+003,-7.816017e+000
1.328621e+003,-9.705513e+000
1.329585e+003,-1.275465e+001
1.330549e+003,-1.451863e+001
1.331514e+003,-1.316330e+001
1.332478e+003,-1.082581e+001
1.333442e+003,-9.278969e+000
1.334406e+003,-8.699722e+000
1.335371e+003,-8.576477e+000
1.336335e+003,-8.584686e+000
1.337299e+003,-8.762375e+000
1.338263e+003,-9.230637e+000
1.339228e+003,-1.006001e+001
1.340192e+003,-1.049324e+001
1.341156e+003,-1.022725e+001
1.342120e+003,-1.004790e+001
1.343084e+003,-1.033692e+001
1.344049e+003,-1.059280e+001
1.345013e+003,-1.010541e+001
1.345977e+003,-9.168655e+000
1.346941e+003,-8.919159e+000
1.347906e+003,-9.813820e+000
1.348870e+003,-1.072517e+001
1.349834e+003,-1.060606e+001
1.350798e+003,-9.846062e+000
1.351763e+003,-9.083664e+000
1.352727e+003,-8.353928e+000
1.353691e+003,-7.948395e+000
1.354655e+003,-8.054039e+000
1.355620e+003,-8.199928e+000
1.356584e+003,-7.699295e+000
1.357548e+003,-6.643776e+000
1.358512e+003,-6.049591e+000
1.359476e+003,-6.192703e+000
1.360441e+003,-6.334404e+000
1.361405e+003,-6.347786e+000
1.362369e+003,-6.202400e+000
1.363333e+003,-5.680832e+000
1.364298e+003,-5.080093e+000
1.365262e+003,-4.715492e+000
1.366226e+003,-4.722603e+000
1.367190e+003,-5.310204e+000
1.368155e+003,-6.701706e+000
1.369119e+003,-8.298653e+000
1.370083e+003,-8.078445e+000
1.371047e+003,-5.257370e+000
1.372011e+003,-3.883446e+000
1.372976e+003,-4.731483e+000
1.373940e+003,-6.024330e+000
1.374904e+003,-7.645020e+000
1.375868e+003,-8.972328e+000
1.376833e+003,-8.848495e+000
1.377797e+003,-7.485153e+000
1.378761e+003,-6.921989e+000
1.379725e+003,-8.262024e+000
1.380690e+003,-9.808647e+000
1.381654e+003,-9.888016e+000
1.382618e+003,-9.004608e+000
1.383582e+003,-7.318672e+000
1.384547e+003,-5.119179e+000
1.385511e+003,-4.050186e+000
1.386475e+003,-5.219147e+000
1.387439e+003,-7.022324e+000
1.388403e+003,-6.613312e+000
1.389368e+003,-4.008965e+000
1.390332e+003,-3.159210e+000
1.391296e+003,-5.088455e+000
1.392260e+003,-6.879379e+000
1.393225e+003,-8.472527e+000
1.394189e+003,-9.179054e+000
1.395153e+003,-7.768044e+000
1.396117e+003,-5.559906e+000
1.397082e+003,-4.590752e+000
1.398046e+003,-5.305244e+000
1.399010e+003,-6.556664e+000
1.399974e+003,-7.347206e+000
1.400938e+003,-7.757286e+000
1.401903e+003,-7.901863e+000
1.402867e+003,-7.741821e+000
1.403831e+003,-6.686829e+000
1.404795e+003,-3.484680e+000
1.405760e+003,-1.215553e+000
1.406724e+003,-1.547180e+000
1.407688e+003,-3.103851e+000
1.408652e+003,-4.316643e+000
1.409617e+003,-5.013092e+000
1.410581e+003,-5.687447e+000
1.411545e+003,-6.581093e+000
1.412509e+003,-7.257278e+000
1.413474e+003,-7.354683e+000
1.414438e+003,-6.964577e+000
1.415402e+003,-5.803680e+000
1.416366e+003,-4.074478e+000
1.417330e+003,-3.252007e+000
1.418295e+003,-4.092606e+000
1.419259e+003,-5.327850e+000
1.420223e+003,-5.645370e+000
1.421187e+003,-5.133682e+000
1.422152e+003,-3.890472e+000
1.423116e+003,-1.240112e+000
1.424080e+003,6.630707e-002
1.425044e+003,-2.230019e+000
1.426009e+003,-4.528152e+000
1.426973e+003,-5.371925e+000
1.427937e+003,-5.382782e+000
1.428901e+003,-5.222023e+000
1.429865e+003,-5.067528e+000
1.430830e+003,-4.905998e+000
1.431794e+003,-4.745750e+000
1.432758e+003,-4.485359e+000
1.433722e+003,-3.802162e+000
1.434687e+003,-2.518303e+000
1.435651e+003,-2.149841e+000
1.436615e+003,-4.047684e+000
1.437579e+003,-5.171959e+000
1.438544e+003,-4.748253e+000
1.439508e+003,-3.953117e+000
1.440472e+003,-3.440231e+000
1.441436e+003,-3.122147e+000
1.442401e+003,-2.748230e+000
1.443365e+003,-2.269958e+000
1.444329e+003,-1.784332e+000
1.445293e+003,-1.319069e+000
1.446257e+003,-9.456863e-001
1.447222e+003,-8.330002e-001
1.448186e+003,-9.746017e-001
1.449150e+003,-1.338997e+000
1.450114e+003,-1.968765e+000
1.451079e+003,-2.704674e+000
1.452043e+003,-3.815636e+000
1.453007e+003,-4.677605e+000
1.453971e+003,-4.191048e+000
1.454936e+003,-2.576813e+000
1.455900e+003,-1.351852e+000
1.456864e+003,-7.558746e-001
1.457828e+003,-7.380600e-001
1.458792e+003,-1.849449e+000
1.459757e+003,-3.087372e+000
1.460721e+003,-3.425217e+000
1.461685e+003,-3.307236e+000
1.462649e+003,-3.921005e+000
1.463614e+003,-5.439041e+000
1.464578e+003,-6.463280e+000
1.465542e+003,-5.676254e+000
1.466506e+003,-3.723305e+000
1.467471e+003,-2.332832e+000
1.468435e+003,-1.401146e+000
1.469399e+003,-1.262978e+000
1.470363e+003,-3.055656e+000
1.471328e+003,-4.166557e+000
1.472292e+003,-3.616776e+000
1.473256e+003,-2.698883e+000
1.474220e+003,-1.970337e+000
1.475184e+003,-1.629654e+000
1.476149e+003,-2.002510e+000
1.477113e+003,-3.097763e+000
1.478077e+003,-4.360970e+000
1.479041e+003,-5.230507e+000
1.480006e+003,-5.613541e+000
1.480970e+003,-5.223038e+000
1.481934e+003,-3.785316e+000
1.482898e+003,-2.966522e+000
1.483863e+003,-3.191994e+000
1.484827e+003,-3.390198e+000
1.485791e+003,-3.296837e+000
1.486755e+003,-2.968513e+000
1.487719e+003,-2.233253e+000
1.488684e+003,-1.400024e+000
1.489648e+003,-1.354027e+000
1.490612e+003,-2.311943e+000
1.491576e+003,-2.976051e+000
1.492541e+003,-2.184715e+000
1.493505e+003,-6.646500e-001
1.494469e+003,-9.803772e-002
1.495433e+003,-3.346558e-001
1.496398e+003,-4.248810e-002
1.497362e+003,1.226624e+000
1.498326e+003,2.344444e+000
1.499290e+003,2.796936e+000
1.500255e+003,2.701950e+000
1.501219e+003,1.762680e+000
1.502183e+003,2.695389e-001
1.503147e+003,-2.272797e-002
1.504111e+003,1.438622e+000
1.505076e+003,3.252754e+000
1.506040e+003,4.826477e+000
1.507004e+003,6.179733e+000
1.507968e+003,7.478981e+000
1.508933e+003,8.572670e+000
1.509897e+003,8.869614e+000
1.510861e+003,8.416260e+000
1.511825e+003,8.725769e+000
1.512790e+003,1.102445e+001
1.513754e+003,1.423174e+001
1.514718e+003,1.616332e+001
1.515682e+003,1.679441e+001
1.516646e+003,1.845234e+001
1.517611e+003,2.215051e+001
1.518575e+003,2.499384e+001
1.519539e+003,2.554537e+001
1.520503e+003,2.564940e+001
1.521468e+003,2.633896e+001
1.522432e+003,2.708415e+001
1.523396e+003,2.690337e+001
1.524360e+003,2.583899e+001
1.525325e+003,2.492918e+001
1.526289e+003,2.487743e+001
1.527253e+003,2.513780e+001
1.528217e+003,2.477395e+001
1.529182e+003,2.382026e+001
1.530146e+003,2.193536e+001
1.531110e+003,1.789054e+001
1.532074e+003,1.517236e+001
1.533039e+003,1.518434e+001
1.534003e+003,1.485674e+001
1.534967e+003,1.255395e+001
1.535931e+003,9.569107e+000
1.536896e+003,7.293861e+000
1.537860e+003,5.898766e+000
1.538824e+003,5.009911e+000
1.539788e+003,4.356918e+000
1.540752e+003,3.484245e+000
1.541717e+003,1.738869e+000
1.542681e+003,-5.549240e-001
1.543645e+003,-1.482430e+000
1.544609e+003,-2.921753e-001
1.545573e+003,5.342407e-001
1.546538e+003,5.896606e-001
1.547502e+003,6.898193e-001
1.548466e+003,1.337250e+000
1.549430e+003,2.126671e+000
1.550395e+003,2.573486e+000
1.551359e+003,2.719276e+000
1.552323e+003,2.893768e+000
1.553287e+003,3.216393e+000
1.554252e+003,3.554695e+000
1.555216e+003,3.844368e+000
1.556180e+003,3.908295e+000
1.557144e+003,3.271980e+000
1.558109e+003,1.924416e+000
1.559073e+003,4.672699e-001
1.560037e+003,-1.750786e+000
1.561001e+003,-2.810959e+000
1.561966e+003,-9.038391e-001
1.562930e+003,1.445168e+000
1.563894e+003,1.490364e+000
1.564858e+003,1.519699e-001
1.565823e+003,2.992249e-002
1.566787e+003,1.570259e+000
1.567751e+003,3.241898e+000
1.568715e+003,4.329247e+000
1.569679e+003,4.844414e+000
1.570644e+003,4.657539e+000
1.571608e+003,3.863808e+000
1.572572e+003,2.640259e+000
1.573536e+003,9.990768e-001
1.574500e+003,2.702408e-001
1.575465e+003,1.475014e+000
1.576429e+003,2.753571e+000
1.577393e+003,2.046463e+000
1.578357e+003,5.747070e-001
1.579322e+003,1.155006e+000
1.580286e+003,3.780106e+000
1.581250e+003,5.504486e+000
1.582214e+003,5.251183e+000
1.583179e+003,4.616997e+000
1.584143e+003,4.514038e+000
1.585107e+003,4.852318e+000
1.586071e+003,6.052979e+000
1.587036e+003,7.635529e+000
1.588000e+003,7.761032e+000
1.588964e+003,5.931503e+000
1.589928e+003,3.717880e+000
1.590893e+003,1.543343e+000
1.591857e+003,1.809387e-001
1.592821e+003,1.354393e+000
1.593785e+003,4.570206e+000
1.594750e+003,6.943779e+000
1.595714e+003,8.086777e+000
1.596678e+003,8.438057e+000
1.597642e+003,7.607613e+000
1.598606e+003,6.885178e+000
1.599571e+003,7.502098e+000
1.600535e+003,8.734879e+000
1.601499e+003,9.792740e+000
1.602463e+003,1.054605e+001
1.603427e+003,1.089632e+001
1.604392e+003,1.077974e+001
1.605356e+003,1.050208e+001
1.606320e+003,1.032726e+001
1.607284e+003,1.025079e+001
1.608249e+003,1.025150e+001
1.609213e+003,1.033040e+001
1.610177e+003,1.043600e+001
1.611141e+003,1.041636e+001
1.612106e+003,1.079327e+001
1.613070e+003,1.299886e+001
1.614034e+003,1.456245e+001
1.614998e+003,1.274767e+001
1.615963e+003,9.423820e+000
1.616927e+003,7.824219e+000
1.617891e+003,8.368805e+000
1.618855e+003,9.496574e+000
1.619820e+003,1.033775e+001
1.620784e+003,1.091041e+001
1.621748e+003,1.121487e+001
1.622712e+003,1.139018e+001
1.623677e+003,1.200951e+001
1.624641e+003,1.327625e+001
1.625605e+003,1.375076e+001
1.626569e+003,1.211582e+001
1.627533e+003,1.108731e+001
1.628498e+003,1.325338e+001
1.629462e+003,1.556391e+001
1.630426e+003,1.500114e+001
1.631390e+003,1.258054e+001
1.632354e+003,1.070210e+001
1.633319e+003,1.002966e+001
1.634283e+003,1.015073e+001
1.635247e+003,1.081370e+001
1.636211e+003,1.188976e+001
1.637176e+003,1.343679e+001
1.638140e+003,1.538960e+001
1.639104e+003,1.639480e+001
1.640068e+003,1.623570e+001
1.641033e+003,1.571333e+001
1.641997e+003,1.489732e+001
1.642961e+003,1.397365e+001
1.643925e+003,1.258894e+001
1.644890e+003,1.148248e+001
1.645854e+003,1.155152e+001
1.646818e+003,1.248491e+001
1.647782e+003,1.351077e+001
1.648747e+003,1.433080e+001
1.649711e+003,1.468669e+001
1.650675e+003,1.432888e+001
1.651639e+003,1.357192e+001
1.652604e+003,1.299191e+001
1.653568e+003,1.255078e+001
1.654532e+003,1.200945e+001
1.655496e+003,1.135593e+001
1.656460e+003,1.059510e+001
1.657425e+003,9.392166e+000
1.658389e+003,8.596191e+000
1.659353e+003,8.935265e+000
1.660317e+003,9.658211e+000
1.661281e+003,1.002063e+001
1.662246e+003,1.001352e+001
1.663210e+003,9.849098e+000
1.664174e+003,9.632004e+000
1.665138e+003,9.613403e+000
1.666103e+003,1.013850e+001
1.667067e+003,1.071520e+001
1.668031e+003,1.024156e+001
1.668995e+003,8.816666e+000
1.669960e+003,7.688843e+000
1.670924e+003,7.012070e+000
1.671888e+003,6.410286e+000
1.672852e+003,5.642899e+000
1.673817e+003,5.055305e+000
1.674781e+003,4.739548e+000
1.675745e+003,4.778976e+000
1.676709e+003,5.585602e+000
1.677674e+003,6.815002e+000
1.678638e+003,7.247925e+000
1.679602e+003,6.520439e+000
1.680566e+003,6.235489e+000
1.681531e+003,8.133392e+000
1.682495e+003,1.059417e+001
1.683459e+003,1.054739e+001
1.684423e+003,8.382805e+000
1.685387e+003,6.783119e+000
1.686352e+003,6.057564e+000
1.687316e+003,5.327568e+000
1.688280e+003,3.970963e+000
1.689244e+003,3.181274e+000
1.690208e+003,4.279335e+000
1.691173e+003,6.109520e+000
1.692137e+003,7.931671e+000
1.693101e+003,9.439049e+000
1.694065e+003,9.466202e+000
1.695030e+003,7.613266e+000
1.695994e+003,6.121956e+000
1.696958e+003,6.863991e+000
1.697922e+003,8.122162e+000
1.698887e+003,7.525360e+000
1.699851e+003,5.732933e+000
1.700815e+003,4.810913e+000
1.701779e+003,4.896935e+000
1.702744e+003,4.648315e+000
1.703708e+003,3.563606e+000
1.704672e+003,2.605225e+000
1.705636e+003,2.404526e+000
1.706601e+003,2.667152e+000
1.707565e+003,3.245583e+000
1.708529e+003,3.992599e+000
1.709493e+003,4.242874e+000
1.710458e+003,3.848595e+000
1.711422e+003,3.578644e+000
1.712386e+003,3.968292e+000
1.713350e+003,4.398499e+000
1.714314e+003,4.269661e+000
1.715279e+003,3.835983e+000
1.716243e+003,3.482811e+000
1.717207e+003,3.279037e+000
1.718171e+003,3.447853e+000
1.719135e+003,4.059708e+000
1.720100e+003,4.207535e+000
1.721064e+003,3.101013e+000
1.722028e+003,1.710701e+000
1.722992e+003,1.528656e+000
1.723957e+003,2.373520e+000
1.724921e+003,2.920944e+000
1.725885e+003,3.068314e+000
1.726849e+003,3.136749e+000
1.727814e+003,3.263275e+000
1.728778e+003,3.365219e+000
1.729742e+003,3.288734e+000
1.730706e+003,3.246017e+000
1.731671e+003,3.475563e+000
1.732635e+003,3.807167e+000
1.733599e+003,3.990532e+000
1.734563e+003,4.011108e+000
1.735528e+003,3.928284e+000
1.736492e+003,3.753143e+000
1.737456e+003,3.490929e+000
1.738420e+003,3.168259e+000
1.739385e+003,2.668106e+000
1.740349e+003,1.584991e+000
1.741313e+003,-4.659500e-001
1.742277e+003,-9.421616e-001
1.743241e+003,1.728493e+000
1.744206e+003,3.474297e+000
1.745170e+003,3.146202e+000
1.746134e+003,2.473991e+000
1.747098e+003,2.231003e+000
1.748063e+003,2.289146e+000
1.749027e+003,2.521729e+000
1.749991e+003,2.831520e+000
1.750955e+003,3.157906e+000
1.751919e+003,3.417160e+000
1.752884e+003,3.323029e+000
1.753848e+003,2.627975e+000
1.754812e+003,1.681740e+000
1.755776e+003,1.173950e+000
1.756741e+003,1.145851e+000
1.757705e+003,1.905716e+000
1.758669e+003,4.056847e+000
1.759633e+003,5.098381e+000
1.760598e+003,3.963753e+000
1.761562e+003,2.782013e+000
1.762526e+003,2.372368e+000
1.763490e+003,2.034874e+000
1.764455e+003,1.050125e+000
1.765419e+003,-8.403778e-002
1.766383e+003,-6.223755e-001
1.767347e+003,-4.930954e-001
1.768312e+003,7.359314e-002
1.769276e+003,9.694061e-001
1.770240e+003,1.838562e+000
1.771204e+003,2.441475e+000
1.772168e+003,2.762070e+000
1.773133e+003,2.559959e+000
1.774097e+003,1.895622e+000
1.775061e+003,1.419304e+000
1.776025e+003,1.176147e+000
1.776990e+003,9.161835e-001
1.777954e+003,6.160049e-001
1.778918e+003,2.824860e-001
1.779882e+003,-2.954102e-001
1.780846e+003,-8.079910e-001
1.781811e+003,-7.619934e-001
1.782775e+003,-2.653427e-001
1.783739e+003,3.685379e-001
1.784703e+003,1.146057e+000
1.785668e+003,1.648163e+000
1.786632e+003,1.427086e+000
1.787596e+003,1.143181e+000
1.788560e+003,1.535622e+000
1.789525e+003,2.086006e+000
1.790489e+003,1.753845e+000
1.791453e+003,8.835678e-001
1.792417e+003,9.726486e-001
1.793382e+003,2.192238e+000
1.794346e+003,2.785179e+000
1.795310e+003,1.761986e+000
1.796274e+003,4.193344e-001
1.797239e+003,2.751465e-001
1.798203e+003,1.001999e+000
1.799167e+003,1.352859e+000
1.800131e+003,1.078606e+000
1.801095e+003,1.542274e+000
1.802060e+003,3.818810e+000
1.803024e+003,5.204865e+000
1.803988e+003,4.900063e+000
1.804952e+003,4.264305e+000
1.805917e+003,3.742050e+000
1.806881e+003,3.362305e+000
1.807845e+003,3.154457e+000
1.808809e+003,3.083023e+000
1.809773e+003,3.168495e+000
1.810738e+003,3.322701e+000
1.811702e+003,3.104095e+000
1.812666e+003,2.256485e+000
1.813630e+003,1.566872e+000
1.814595e+003,2.222534e+000
1.815559e+003,3.743027e+000
1.816523e+003,4.101273e+000
1.817487e+003,3.177597e+000
1.818452e+003,2.559433e+000
1.819416e+003,2.444901e+000
1.820380e+003,2.377747e+000
1.821344e+003,1.945282e+000
1.822309e+003,1.863602e+000
1.823273e+003,3.488991e+000
1.824237e+003,4.986191e+000
1.825201e+003,3.741028e+000
1.826166e+003,8.838654e-001
1.827130e+003,-3.917770e-001
1.828094e+003,4.378815e-001
1.829058e+003,1.817688e+000
1.830022e+003,3.335892e+000
1.830987e+003,4.573280e+000
1.831951e+003,5.135803e+000
1.832915e+003,5.242256e+000
1.833879e+003,5.233109e+000
1.834844e+003,5.038780e+000
1.835808e+003,4.105835e+000
1.836772e+003,2.532188e+000
1.837736e+003,1.844391e+000
1.838700e+003,2.713760e+000
1.839665e+003,3.981117e+000
1.840629e+003,4.659035e+000
1.841593e+003,4.939316e+000
1.842557e+003,5.243813e+000
1.843522e+003,5.561684e+000
1.844486e+003,5.167809e+000
1.845450e+003,3.304581e+000
1.846414e+003,2.311897e+000
1.847379e+003,2.721992e+000
1.848343e+003,3.131439e+000
1.849307e+003,3.009727e+000
1.850271e+003,2.924973e+000
1.851236e+003,3.607208e+000
1.852200e+003,4.436623e+000
1.853164e+003,4.306114e+000
1.854128e+003,3.383171e+000
1.855093e+003,2.770309e+000
1.856057e+003,2.907188e+000
1.857021e+003,3.243088e+000
1.857985e+003,3.274796e+000
1.858949e+003,3.312637e+000
1.859914e+003,4.146645e+000
1.860878e+003,5.530182e+000
1.861842e+003,5.897003e+000
1.862806e+003,5.200325e+000
1.863771e+003,4.492081e+000
1.864735e+003,3.830421e+000
1.865699e+003,3.642090e+000
1.866663e+003,4.448441e+000
1.867627e+003,5.203522e+000
1.868592e+003,4.703949e+000
1.869556e+003,3.642265e+000
1.870520e+003,3.550438e+000
1.871484e+003,4.230705e+000
1.872449e+003,4.338539e+000
1.873413e+003,3.701477e+000
1.874377e+003,3.135498e+000
1.875341e+003,2.428246e+000
1.876306e+003,2.211716e+000
1.877270e+003,3.304573e+000
1.878234e+003,4.588348e+000
1.879198e+003,5.006874e+000
1.880163e+003,4.757553e+000
1.881127e+003,4.178345e+000
1.882091e+003,3.507645e+000
1.883055e+003,3.090355e+000
1.884020e+003,3.080376e+000
1.884984e+003,3.529793e+000
1.885948e+003,4.519310e+000
1.886912e+003,5.572571e+000
1.887876e+003,5.681839e+000
1.888841e+003,4.940659e+000
1.889805e+003,4.385124e+000
1.890769e+003,3.958855e+000
1.891733e+003,4.091362e+000
1.892698e+003,5.131271e+000
1.893662e+003,5.898048e+000
1.894626e+003,5.917664e+000
1.895590e+003,5.674438e+000
1.896554e+003,5.450867e+000
1.897519e+003,5.232376e+000
1.898483e+003,4.989609e+000
1.899447e+003,4.671257e+000
1.900411e+003,4.090843e+000
1.901376e+003,3.186447e+000
1.902340e+003,2.896080e+000
1.903304e+003,3.907028e+000
1.904268e+003,5.068138e+000
1.905233e+003,5.761650e+000
1.906197e+003,6.221413e+000
1.907161e+003,6.888458e+000
1.908125e+003,7.416603e+000
1.909090e+003,6.830826e+000
1.910054e+003,5.399498e+000
1.911018e+003,4.498131e+000
1.911982e+003,4.599930e+000
1.912947e+003,5.142838e+000
1.913911e+003,5.701981e+000
1.914875e+003,6.393028e+000
1.915839e+003,7.457596e+000
1.916803e+003,8.644798e+000
1.917768e+003,8.670975e+000
1.918732e+003,7.267532e+000
1.919696e+003,6.741081e+000
1.920660e+003,7.603058e+000
1.921625e+003,8.005417e+000
1.922589e+003,6.999496e+000
1.923553e+003,6.309700e+000
1.924517e+003,7.414116e+000
1.925481e+003,8.729317e+000
1.926446e+003,8.936134e+000
1.927410e+003,8.324463e+000
1.928374e+003,7.067940e+000
1.929338e+003,5.350571e+000
1.930303e+003,5.142799e+000
1.931267e+003,7.739632e+000
1.932231e+003,9.486023e+000
1.933195e+003,7.794853e+000
1.934160e+003,5.723534e+000
1.935124e+003,5.440819e+000
1.936088e+003,6.056717e+000
1.937052e+003,6.893097e+000
1.938017e+003,7.554893e+000
1.938981e+003,7.172859e+000
1.939945e+003,5.926598e+000
1.940909e+003,5.315643e+000
1.941874e+003,5.925964e+000
1.942838e+003,6.360611e+000
1.943802e+003,5.288269e+000
1.944766e+003,3.841843e+000
1.945730e+003,4.381256e+000
1.946695e+003,6.568886e+000
1.947659e+003,7.777687e+000
1.948623e+003,7.904404e+000
1.949587e+003,8.146896e+000
1.950552e+003,8.678833e+000
1.951516e+003,9.257019e+000
1.952480e+003,9.997208e+000
1.953444e+003,1.033205e+001
1.954408e+003,9.657822e+000
1.955373e+003,8.513954e+000
1.956337e+003,7.595093e+000
1.957301e+003,6.928482e+000
1.958265e+003,6.281502e+000
1.959230e+003,5.527748e+000
1.960194e+003,5.948082e+000
1.961158e+003,9.077324e+000
1.962122e+003,1.117731e+001
1.963087e+003,1.094569e+001
1.964051e+003,9.880341e+000
1.965015e+003,8.106514e+000
1.965979e+003,6.636345e+000
1.966944e+003,6.887268e+000
1.967908e+003,7.871506e+000
1.968872e+003,7.373352e+000
1.969836e+003,5.560524e+000
1.970801e+003,4.831223e+000
1.971765e+003,6.142380e+000
1.972729e+003,7.711632e+000
1.973693e+003,7.960213e+000
1.974657e+003,7.851242e+000
1.975622e+003,9.161346e+000
1.976586e+003,1.110663e+001
1.977550e+003,1.149602e+001
1.978514e+003,1.053421e+001
1.979479e+003,9.439835e+000
1.980443e+003,8.431473e+000
1.981407e+003,7.835777e+000
1.982371e+003,7.787750e+000
1.983335e+003,8.282654e+000
1.984300e+003,9.390152e+000
1.985264e+003,1.054035e+001
1.986228e+003,1.085659e+001
1.987192e+003,1.048759e+001
1.988157e+003,1.018920e+001
1.989121e+003,9.943520e+000
1.990085e+003,9.987183e+000
1.991049e+003,1.079782e+001
1.992014e+003,1.097475e+001
1.992978e+003,9.634644e+000
1.993942e+003,8.574860e+000
1.994906e+003,8.702179e+000
1.995871e+003,9.022995e+000
1.996835e+003,8.555313e+000
1.997799e+003,7.998108e+000
1.998763e+003,8.617676e+000
1.999728e+003,1.013005e+001
