5.003444e+002,2.000571e+002
5.013087e+002,1.976594e+002
5.022729e+002,1.966965e+002
5.032371e+002,1.968760e+002
5.042014e+002,1.937188e+002
5.051656e+002,1.880280e+002
5.061298e+002,1.831799e+002
5.070941e+002,1.821675e+002
5.080583e+002,1.854614e+002
5.090225e+002,1.877627e+002
5.099868e+002,1.903652e+002
5.109510e+002,1.910895e+002
5.119152e+002,1.881735e+002
5.128795e+002,1.813846e+002
5.138437e+002,1.750461e+002
5.148079e+002,1.711953e+002
5.157722e+002,1.679375e+002
5.167364e+002,1.637706e+002
5.177006e+002,1.586669e+002
5.186649e+002,1.542781e+002
5.196291e+002,1.547875e+002
5.205933e+002,1.572809e+002
5.215576e+002,1.569635e+002
5.225218e+002,1.530178e+002
5.234860e+002,1.471631e+002
5.244503e+002,1.432295e+002
5.254145e+002,1.428964e+002
5.263787e+002,1.428521e+002
5.273430e+002,1.436952e+002
5.283072e+002,1.444449e+002
5.292714e+002,1.432744e+002
5.302357e+002,1.378945e+002
5.311999e+002,1.330654e+002
5.321641e+002,1.305756e+002
5.331284e+002,1.294810e+002
5.340926e+002,1.288484e+002
5.350568e+002,1.279929e+002
5.360211e+002,1.265049e+002
5.369853e+002,1.254174e+002
5.379495e+002,1.243085e+002
5.389138e+002,1.222074e+002
5.398780e+002,1.187473e+002
5.408422e+002,1.145348e+002
5.418065e+002,1.116669e+002
5.427707e+002,1.099111e+002
5.437349e+002,1.075067e+002
5.446992e+002,1.036167e+002
5.456634e+002,9.880103e+001
5.466276e+002,9.527344e+001
5.475919e+002,9.402344e+001
5.485561e+002,9.376855e+001
5.495203e+002,9.510071e+001
5.504846e+002,9.659448e+001
5.514488e+002,9.658069e+001
5.524130e+002,9.477356e+001
5.533773e+002,9.164978e+001
5.543415e+002,8.596997e+001
5.553057e+002,8.020679e+001
5.562700e+002,7.710718e+001
5.572342e+002,7.822644e+001
5.581984e+002,8.134387e+001
5.591627e+002,8.241895e+001
5.601269e+002,8.214087e+001
5.610911e+002,7.998584e+001
5.620554e+002,7.524658e+001
5.630196e+002,6.823547e+001
5.639838e+002,6.437183e+001
5.649481e+002,6.733350e+001
5.659123e+002,6.817944e+001
5.668765e+002,6.465820e+001
5.678408e+002,5.886487e+001
5.688050e+002,5.576160e+001
5.697692e+002,5.754932e+001
5.707335e+002,5.869556e+001
5.716977e+002,5.754700e+001
5.726619e+002,5.531848e+001
5.736262e+002,5.387488e+001
5.745904e+002,5.472400e+001
5.755546e+002,5.637842e+001
5.765189e+002,5.617883e+001
5.774831e+002,5.404041e+001
5.784473e+002,5.006128e+001
5.794116e+002,4.463647e+001
5.803758e+002,3.854834e+001
5.813400e+002,3.655103e+001
5.823043e+002,3.880176e+001
5.832685e+002,4.048865e+001
5.842327e+002,4.049805e+001
5.851970e+002,3.950012e+001
5.861612e+002,3.897144e+001
5.871254e+002,3.846411e+001
5.880897e+002,3.815393e+001
5.890539e+002,3.826025e+001
5.900181e+002,3.816614e+001
5.909824e+002,3.682947e+001
5.919466e+002,3.314050e+001
5.929108e+002,2.986353e+001
5.938751e+002,3.035974e+001
5.948393e+002,3.284790e+001
5.958035e+002,3.451782e+001
5.967678e+002,3.344238e+001
5.977320e+002,3.051001e+001
5.986962e+002,3.096301e+001
5.996605e+002,3.397827e+001
6.006247e+002,3.666614e+001
6.015889e+002,3.828821e+001
6.025532e+002,3.885925e+001
6.035174e+002,3.757959e+001
6.044816e+002,3.095618e+001
6.054459e+002,2.650940e+001
6.064101e+002,2.630420e+001
6.073743e+002,2.879150e+001
6.083386e+002,3.130383e+001
6.093028e+002,3.298669e+001
6.102670e+002,3.371973e+001
6.112313e+002,3.290125e+001
6.121955e+002,3.134583e+001
6.131597e+002,2.983423e+001
6.141240e+002,2.892126e+001
6.150882e+002,2.876660e+001
6.160524e+002,3.208643e+001
6.170167e+002,3.854102e+001
6.179809e+002,4.206519e+001
6.189451e+002,3.853308e+001
6.199094e+002,2.881799e+001
6.208736e+002,2.221973e+001
6.218378e+002,2.367993e+001
6.228021e+002,2.417664e+001
6.237663e+002,2.202820e+001
6.247305e+002,1.890723e+001
6.256948e+002,1.753076e+001
6.266590e+002,1.917102e+001
6.276232e+002,2.048291e+001
6.285875e+002,2.008484e+001
6.295517e+002,1.898914e+001
6.305159e+002,1.789392e+001
6.314802e+002,1.702527e+001
6.324444e+002,1.602527e+001
6.334086e+002,1.489185e+001
6.343729e+002,1.408691e+001
6.353371e+002,1.310315e+001
6.363013e+002,1.135339e+001
6.372656e+002,9.289917e+000
6.382298e+002,9.204956e+000
6.391940e+002,1.539478e+001
6.401583e+002,1.709839e+001
6.411225e+002,1.165845e+001
6.420867e+002,4.367798e+000
6.430510e+002,1.274170e+000
6.440152e+002,4.443604e+000
6.449794e+002,7.696655e+000
6.459437e+002,9.033447e+000
6.469079e+002,8.442505e+000
6.478721e+002,4.956787e+000
6.488364e+002,-1.051514e+000
6.498006e+002,-6.895508e+000
6.507648e+002,-7.657837e+000
6.517291e+002,-5.013306e+000
6.526933e+002,-2.074463e+000
6.536575e+002,6.068115e-001
6.546218e+002,2.813477e+000
6.555860e+002,4.266357e+000
6.565502e+002,5.337769e+000
6.575145e+002,4.048340e+000
6.584787e+002,-1.266235e+000
6.594429e+002,-7.174561e+000
6.604072e+002,-1.150012e+001
6.613714e+002,-1.404114e+001
6.623356e+002,-1.393555e+001
6.632999e+002,-7.860840e+000
6.642641e+002,-2.415771e+000
6.652283e+002,-1.258789e+000
6.661926e+002,-3.861450e+000
6.671568e+002,-6.786011e+000
6.681210e+002,-6.318115e+000
6.690853e+002,-3.635620e+000
6.700495e+002,-1.402222e+000
6.710137e+002,3.477783e-001
6.719780e+002,1.957642e+000
6.729422e+002,3.855713e+000
6.739064e+002,6.208618e+000
6.748707e+002,6.007813e+000
6.758349e+002,1.572754e+000
6.767991e+002,-2.932129e+000
6.777634e+002,-5.516235e+000
6.787276e+002,-5.823975e+000
6.796918e+002,-4.610107e+000
6.806561e+002,-5.122070e-001
6.816203e+002,1.938477e+000
6.825845e+002,-4.544678e-001
6.835488e+002,-5.339478e+000
6.845130e+002,-8.898682e+000
6.854772e+002,-8.185059e+000
6.864415e+002,-4.059448e+000
6.874057e+002,1.688354e+000
6.883699e+002,7.429443e+000
6.893342e+002,9.871216e+000
6.902984e+002,7.078857e+000
6.912626e+002,2.391357e-001
6.922269e+002,-3.791260e+000
6.931911e+002,-1.145752e+000
6.941553e+002,9.141846e-001
6.951196e+002,7.734375e-001
6.960838e+002,-1.002930e+000
6.970480e+002,-3.361816e+000
6.980123e+002,-6.601563e+000
6.989765e+002,-8.027954e+000
6.999407e+002,-5.815674e+000
7.009050e+002,-2.603882e+000
7.018692e+002,-3.466797e-001
7.028334e+002,1.508789e-001
7.037977e+002,-6.003418e-001
7.047619e+002,-1.903931e+000
7.057261e+002,-3.013184e+000
7.066904e+002,-3.400024e+000
7.076546e+002,-3.016113e+000
7.086188e+002,-2.051880e+000
7.095831e+002,-8.265381e-001
7.105473e+002,2.854004e-001
7.115115e+002,1.859009e+000
7.124758e+002,5.021606e+000
7.134400e+002,7.084961e+000
7.144042e+002,6.223022e+000
7.153685e+002,2.699463e+000
7.163327e+002,-4.490967e-001
7.172969e+002,-1.249878e+000
7.182612e+002,-1.797974e+000
7.192254e+002,-3.461426e+000
7.201896e+002,-5.854614e+000
7.211539e+002,-7.874756e+000
7.221181e+002,-8.529053e+000
7.230823e+002,-8.051270e+000
7.240466e+002,-6.946655e+000
7.250108e+002,-4.906860e+000
7.259750e+002,-2.662231e+000
7.269393e+002,-1.075806e+000
7.279035e+002,-8.493652e-001
7.288677e+002,-2.347168e+000
7.298320e+002,-6.864380e+000
7.307962e+002,-8.840698e+000
7.317604e+002,-6.890259e+000
7.327247e+002,-2.436401e+000
7.336889e+002,2.702759e+000
7.346531e+002,8.028931e+000
7.356174e+002,9.906494e+000
7.365816e+002,5.924927e+000
7.375458e+002,9.197998e-001
7.385101e+002,-1.888428e+000
7.394743e+002,-1.524536e+000
7.404385e+002,9.858398e-001
7.414028e+002,4.443359e+000
7.423670e+002,7.175171e+000
7.433312e+002,7.900879e+000
7.442955e+002,7.433838e+000
7.452597e+002,6.533813e+000
7.462239e+002,5.181274e+000
7.471882e+002,2.443848e+000
7.481524e+002,2.234375e+000
7.491166e+002,5.029297e+000
7.500809e+002,7.471680e+000
7.510451e+002,8.915894e+000
7.520093e+002,9.104858e+000
7.529736e+002,7.557251e+000
7.539378e+002,3.823364e+000
7.549020e+002,2.048340e-001
7.558663e+002,-3.211182e+000
7.568306e+002,-5.405273e+000
7.577948e+002,-4.753296e+000
7.587590e+002,-6.479492e-001
7.597233e+002,5.106812e+000
7.606875e+002,8.622925e+000
7.616517e+002,1.056433e+001
7.626160e+002,1.156653e+001
7.635802e+002,1.174377e+001
7.645444e+002,1.133960e+001
7.655087e+002,1.056323e+001
7.664729e+002,8.729248e+000
7.674371e+002,7.641968e+000
7.684014e+002,7.056885e+000
7.693656e+002,7.230591e+000
7.703298e+002,9.137573e+000
7.712941e+002,1.262170e+001
7.722583e+002,1.521484e+001
7.732225e+002,1.382605e+001
7.741868e+002,1.194275e+001
7.751510e+002,1.262451e+001
7.761152e+002,1.527332e+001
7.770795e+002,1.785132e+001
7.780437e+002,1.847009e+001
7.790079e+002,1.723291e+001
7.799722e+002,1.640283e+001
7.809364e+002,1.584009e+001
7.819006e+002,1.575256e+001
7.828649e+002,1.713672e+001
7.838291e+002,1.974390e+001
7.847933e+002,2.179810e+001
7.857576e+002,2.306506e+001
7.867218e+002,2.174036e+001
7.876860e+002,1.591516e+001
7.886503e+002,1.013794e+001
7.896145e+002,8.411987e+000
7.905787e+002,1.162744e+001
7.915430e+002,1.647498e+001
7.925072e+002,1.939404e+001
7.934714e+002,2.090295e+001
7.944357e+002,2.254749e+001
7.953999e+002,2.465393e+001
7.963641e+002,2.634607e+001
7.973284e+002,2.633508e+001
7.982926e+002,2.449146e+001
7.992568e+002,2.356140e+001
8.002211e+002,2.262573e+001
8.011853e+002,2.099609e+001
8.021495e+002,1.925464e+001
8.031138e+002,1.838257e+001
8.040780e+002,1.905859e+001
8.050422e+002,2.141125e+001
8.060065e+002,2.339600e+001
8.069707e+002,2.428418e+001
8.079349e+002,2.384351e+001
8.088992e+002,2.128345e+001
8.098634e+002,1.698218e+001
8.108276e+002,1.386951e+001
8.117919e+002,1.712708e+001
8.127561e+002,2.267651e+001
8.137203e+002,2.384534e+001
8.146846e+002,2.062207e+001
8.156488e+002,1.696631e+001
8.166130e+002,1.745789e+001
8.175773e+002,2.298132e+001
8.185415e+002,2.618616e+001
8.195057e+002,2.477576e+001
8.204700e+002,2.315918e+001
8.214342e+002,2.292139e+001
8.223984e+002,2.362830e+001
8.233627e+002,2.409448e+001
8.243269e+002,2.448071e+001
8.252911e+002,2.384998e+001
8.262554e+002,2.013513e+001
8.272196e+002,1.610962e+001
8.281838e+002,1.499402e+001
8.291481e+002,1.764990e+001
8.301123e+002,2.180164e+001
8.310765e+002,2.339490e+001
8.320408e+002,2.249670e+001
8.330050e+002,2.305310e+001
8.339692e+002,2.598584e+001
8.349335e+002,2.866040e+001
8.358977e+002,2.811926e+001
8.368619e+002,2.408606e+001
8.378262e+002,2.166223e+001
8.387904e+002,1.952100e+001
8.397546e+002,1.969800e+001
8.407189e+002,2.453882e+001
8.416831e+002,3.176807e+001
8.426473e+002,3.761328e+001
8.436116e+002,4.039111e+001
8.445758e+002,4.195483e+001
8.455400e+002,4.407019e+001
8.465043e+002,4.504041e+001
8.474685e+002,4.290112e+001
8.484327e+002,3.803381e+001
8.493970e+002,3.320593e+001
8.503612e+002,3.231799e+001
8.513254e+002,3.587598e+001
8.522897e+002,3.823315e+001
8.532539e+002,3.901282e+001
8.542181e+002,3.847583e+001
8.551824e+002,3.593860e+001
8.561466e+002,3.265393e+001
8.571108e+002,3.413416e+001
8.580751e+002,4.386316e+001
8.590393e+002,5.240723e+001
8.600035e+002,5.749548e+001
8.609678e+002,6.060107e+001
8.619320e+002,6.324512e+001
8.628962e+002,6.600696e+001
8.638605e+002,6.851782e+001
8.648247e+002,7.089771e+001
8.657889e+002,7.222375e+001
8.667532e+002,6.959131e+001
8.677174e+002,6.265674e+001
8.686816e+002,5.627197e+001
8.696459e+002,5.659546e+001
8.706101e+002,6.520093e+001
8.715743e+002,7.132031e+001
8.725386e+002,7.227917e+001
8.735028e+002,7.453003e+001
8.744670e+002,8.010803e+001
8.754313e+002,8.706604e+001
8.763955e+002,9.217798e+001
8.773597e+002,9.436182e+001
8.783240e+002,9.606628e+001
8.792882e+002,9.864270e+001
8.802524e+002,1.013387e+002
8.812167e+002,1.038993e+002
8.821809e+002,1.060945e+002
8.831451e+002,1.075094e+002
8.841094e+002,1.076085e+002
8.850736e+002,1.069764e+002
8.860378e+002,1.081803e+002
8.870021e+002,1.111682e+002
8.879663e+002,1.143776e+002
8.889305e+002,1.166702e+002
8.898948e+002,1.180519e+002
8.908590e+002,1.196956e+002
8.918232e+002,1.232482e+002
8.927875e+002,1.254119e+002
8.937517e+002,1.234645e+002
8.947159e+002,1.215195e+002
8.956802e+002,1.234077e+002
8.966444e+002,1.291075e+002
8.976086e+002,1.342968e+002
8.985729e+002,1.350339e+002
8.995371e+002,1.334624e+002
9.005013e+002,1.317123e+002
9.014656e+002,1.306023e+002
9.024298e+002,1.324039e+002
9.033940e+002,1.388774e+002
9.043583e+002,1.485157e+002
9.053225e+002,1.533505e+002
9.062867e+002,1.473352e+002
9.072510e+002,1.431299e+002
9.082152e+002,1.427101e+002
9.091794e+002,1.445426e+002
9.101437e+002,1.474885e+002
9.111079e+002,1.513293e+002
9.120721e+002,1.543507e+002
9.130364e+002,1.544836e+002
9.140006e+002,1.531121e+002
9.149648e+002,1.507837e+002
9.159291e+002,1.485216e+002
9.168933e+002,1.474963e+002
9.178575e+002,1.482035e+002
9.188218e+002,1.496451e+002
9.197860e+002,1.494421e+002
9.207502e+002,1.473038e+002
9.217145e+002,1.446891e+002
9.226787e+002,1.427657e+002
9.236429e+002,1.411622e+002
9.246072e+002,1.385531e+002
9.255714e+002,1.340775e+002
9.265356e+002,1.305026e+002
9.274999e+002,1.280867e+002
9.284641e+002,1.262827e+002
9.294283e+002,1.257476e+002
9.303926e+002,1.260099e+002
9.313568e+002,1.264727e+002
9.323210e+002,1.268719e+002
9.332853e+002,1.262052e+002
9.342495e+002,1.212310e+002
9.352137e+002,1.142860e+002
9.361780e+002,1.095900e+002
9.371422e+002,1.085151e+002
9.381064e+002,1.098557e+002
9.390707e+002,1.115930e+002
9.400349e+002,1.132855e+002
9.409991e+002,1.137257e+002
9.419634e+002,1.121743e+002
9.429276e+002,1.101927e+002
9.438918e+002,1.081606e+002
9.448561e+002,1.062089e+002
9.458203e+002,1.045472e+002
9.467845e+002,1.034564e+002
9.477488e+002,1.025669e+002
9.487130e+002,1.008287e+002
9.496772e+002,9.942053e+001
9.506415e+002,9.973389e+001
9.516057e+002,1.014854e+002
9.525699e+002,1.031812e+002
9.535342e+002,1.032887e+002
9.544984e+002,1.016953e+002
9.554626e+002,9.927454e+001
9.564269e+002,9.651245e+001
9.573911e+002,9.506104e+001
9.583553e+002,9.528967e+001
9.593196e+002,9.672632e+001
9.602838e+002,9.894507e+001
9.612480e+002,1.020546e+002
9.622123e+002,1.044661e+002
9.631765e+002,1.064564e+002
9.641407e+002,1.074271e+002
9.651050e+002,1.068444e+002
9.660692e+002,1.045602e+002
9.670334e+002,1.002031e+002
9.679977e+002,9.379431e+001
9.689619e+002,8.789612e+001
9.699261e+002,8.712610e+001
9.708904e+002,8.994336e+001
9.718546e+002,9.471472e+001
9.728188e+002,1.011251e+002
9.737831e+002,1.081559e+002
9.747473e+002,1.149115e+002
9.757115e+002,1.216692e+002
9.766758e+002,1.277947e+002
9.776400e+002,1.337257e+002
9.786042e+002,1.395491e+002
9.795685e+002,1.476677e+002
9.805327e+002,1.537178e+002
9.814969e+002,1.514417e+002
9.824612e+002,1.391161e+002
9.834254e+002,1.244839e+002
9.843896e+002,1.127917e+002
9.853539e+002,1.031346e+002
9.863181e+002,9.504297e+001
9.872823e+002,8.806299e+001
9.882466e+002,8.216260e+001
9.892108e+002,7.798596e+001
9.901750e+002,7.613831e+001
9.911393e+002,7.500256e+001
9.921035e+002,7.173706e+001
9.930677e+002,7.061438e+001
9.940320e+002,7.356970e+001
9.949962e+002,7.859497e+001
9.959604e+002,8.440088e+001
9.969247e+002,9.086182e+001
9.978889e+002,9.676013e+001
9.988531e+002,1.000850e+002
9.998174e+002,1.025117e+002
1.000782e+003,1.060040e+002
1.001746e+003,1.100610e+002
1.002710e+003,1.137307e+002
1.003674e+003,1.164182e+002
1.004639e+003,1.179250e+002
1.005603e+003,1.177899e+002
1.006567e+003,1.155918e+002
1.007531e+003,1.145865e+002
1.008495e+003,1.151107e+002
1.009460e+003,1.162588e+002
1.010424e+003,1.183975e+002
1.011388e+003,1.211100e+002
1.012352e+003,1.219041e+002
1.013317e+003,1.191497e+002
1.014281e+003,1.163198e+002
1.015245e+003,1.163240e+002
1.016209e+003,1.146731e+002
1.017174e+003,1.074080e+002
1.018138e+003,9.522986e+001
1.019102e+003,8.196948e+001
1.020066e+003,7.065393e+001
1.021031e+003,6.161072e+001
1.021995e+003,5.497058e+001
1.022959e+003,4.975830e+001
1.023923e+003,4.536975e+001
1.024887e+003,4.189722e+001
1.025852e+003,3.838977e+001
1.026816e+003,3.326611e+001
1.027780e+003,2.635364e+001
1.028744e+003,2.094336e+001
1.029709e+003,1.669641e+001
1.030673e+003,1.435596e+001
1.031637e+003,1.576416e+001
1.032601e+003,1.821509e+001
1.033566e+003,1.775073e+001
1.034530e+003,1.326270e+001
1.035494e+003,8.827393e+000
1.036458e+003,9.115967e+000
1.037422e+003,1.183179e+001
1.038387e+003,1.325183e+001
1.039351e+003,1.319067e+001
1.040315e+003,1.322900e+001
1.041279e+003,1.493054e+001
1.042244e+003,1.788257e+001
1.043208e+003,1.860986e+001
1.044172e+003,1.321753e+001
1.045136e+003,1.129102e+001
1.046101e+003,1.676416e+001
1.047065e+003,2.239880e+001
1.048029e+003,2.250159e+001
1.048993e+003,1.818640e+001
1.049958e+003,1.569849e+001
1.050922e+003,1.906165e+001
1.051886e+003,2.316638e+001
1.052850e+003,2.098694e+001
1.053814e+003,1.689063e+001
1.054779e+003,1.742249e+001
1.055743e+003,2.339514e+001
1.056707e+003,2.968616e+001
1.057671e+003,3.002490e+001
1.058636e+003,2.424207e+001
1.059600e+003,2.108655e+001
1.060564e+003,2.359241e+001
1.061528e+003,2.565393e+001
1.062493e+003,2.531250e+001
1.063457e+003,2.380139e+001
1.064421e+003,2.316284e+001
1.065385e+003,2.381677e+001
1.066349e+003,2.341626e+001
1.067314e+003,1.886292e+001
1.068278e+003,1.535376e+001
1.069242e+003,1.847534e+001
1.070206e+003,2.467896e+001
1.071171e+003,2.731909e+001
1.072135e+003,2.376526e+001
1.073099e+003,1.816577e+001
1.074063e+003,1.815564e+001
1.075028e+003,2.473462e+001
1.075992e+003,2.719409e+001
1.076956e+003,2.327417e+001
1.077920e+003,1.892700e+001
1.078885e+003,1.673291e+001
1.079849e+003,1.617493e+001
1.080813e+003,1.582861e+001
1.081777e+003,1.547437e+001
1.082741e+003,1.606482e+001
1.083706e+003,1.779175e+001
1.084670e+003,1.969983e+001
1.085634e+003,2.216211e+001
1.086598e+003,2.426782e+001
1.087563e+003,2.443298e+001
1.088527e+003,2.215186e+001
1.089491e+003,1.906152e+001
1.090455e+003,1.754395e+001
1.091420e+003,1.734949e+001
1.092384e+003,1.651843e+001
1.093348e+003,1.419385e+001
1.094312e+003,1.191797e+001
1.095276e+003,1.098181e+001
1.096241e+003,1.146082e+001
1.097205e+003,1.288123e+001
1.098169e+003,1.556079e+001
1.099133e+003,1.671802e+001
1.100098e+003,1.406653e+001
1.101062e+003,1.137891e+001
1.102026e+003,1.100696e+001
1.102990e+003,1.269080e+001
1.103955e+003,1.518579e+001
1.104919e+003,1.758936e+001
1.105883e+003,1.942188e+001
1.106847e+003,1.971094e+001
1.107812e+003,1.837036e+001
1.108776e+003,1.852100e+001
1.109740e+003,2.114856e+001
1.110704e+003,2.352002e+001
1.111668e+003,2.412097e+001
1.112633e+003,2.354651e+001
1.113597e+003,2.240576e+001
1.114561e+003,1.910278e+001
1.115525e+003,1.806860e+001
1.116490e+003,2.203418e+001
1.117454e+003,2.687305e+001
1.118418e+003,3.139355e+001
1.119382e+003,3.499500e+001
1.120347e+003,3.601111e+001
1.121311e+003,3.299780e+001
1.122275e+003,2.841858e+001
1.123239e+003,2.981934e+001
1.124203e+003,3.711804e+001
1.125168e+003,3.900745e+001
1.126132e+003,3.219397e+001
1.127096e+003,2.690234e+001
1.128060e+003,3.294641e+001
1.129025e+003,4.710010e+001
1.129989e+003,5.427661e+001
1.130953e+003,4.971033e+001
1.131917e+003,4.612402e+001
1.132882e+003,4.801160e+001
1.133846e+003,5.123547e+001
1.134810e+003,5.281165e+001
1.135774e+003,5.371802e+001
1.136739e+003,5.701965e+001
1.137703e+003,6.434937e+001
1.138667e+003,7.343048e+001
1.139631e+003,8.006110e+001
1.140595e+003,8.472870e+001
1.141560e+003,9.262628e+001
1.142524e+003,1.046194e+002
1.143488e+003,1.192607e+002
1.144452e+003,1.355990e+002
1.145417e+003,1.535983e+002
1.146381e+003,1.733042e+002
1.147345e+003,1.949900e+002
1.148309e+003,2.171191e+002
1.149274e+003,2.389118e+002
1.150238e+003,2.619886e+002
1.151202e+003,2.881495e+002
1.152166e+003,3.166054e+002
1.153130e+003,3.464832e+002
1.154095e+003,3.764725e+002
1.155059e+003,4.029031e+002
1.156023e+003,4.219711e+002
1.156987e+003,4.331528e+002
1.157952e+003,4.363691e+002
1.158916e+003,4.324625e+002
1.159880e+003,4.231269e+002
1.160844e+003,4.075202e+002
1.161809e+003,3.855031e+002
1.162773e+003,3.575904e+002
1.163737e+003,3.223678e+002
1.164701e+003,2.880364e+002
1.165666e+003,2.551111e+002
1.166630e+003,2.260707e+002
1.167594e+003,2.020303e+002
1.168558e+003,1.822441e+002
1.169522e+003,1.658989e+002
1.170487e+003,1.526447e+002
1.171451e+003,1.428696e+002
1.172415e+003,1.370380e+002
1.173379e+003,1.346512e+002
1.174344e+003,1.344755e+002
1.175308e+003,1.369691e+002
1.176272e+003,1.377579e+002
1.177236e+003,1.354259e+002
1.178201e+003,1.311089e+002
1.179165e+003,1.253844e+002
1.180129e+003,1.177961e+002
1.181093e+003,1.103265e+002
1.182057e+003,1.030416e+002
1.183022e+003,9.714288e+001
1.183986e+003,9.335651e+001
1.184950e+003,9.082031e+001
1.185914e+003,8.869604e+001
1.186879e+003,8.712244e+001
1.187843e+003,8.717334e+001
1.188807e+003,8.960681e+001
1.189771e+003,9.314490e+001
1.190736e+003,9.448962e+001
1.191700e+003,9.330768e+001
1.192664e+003,9.268085e+001
1.193628e+003,9.420160e+001
1.194593e+003,9.529596e+001
1.195557e+003,9.370142e+001
1.196521e+003,8.998035e+001
1.197485e+003,8.655334e+001
1.198449e+003,8.427637e+001
1.199414e+003,8.103699e+001
1.200378e+003,7.442737e+001
1.201342e+003,6.795587e+001
1.202306e+003,6.390216e+001
1.203271e+003,6.143365e+001
1.204235e+003,5.882623e+001
1.205199e+003,5.525458e+001
1.206163e+003,5.096802e+001
1.207128e+003,4.624402e+001
1.208092e+003,4.114856e+001
1.209056e+003,3.480005e+001
1.210020e+003,2.634204e+001
1.210984e+003,1.865637e+001
1.211949e+003,1.300641e+001
1.212913e+003,8.027283e+000
1.213877e+003,2.064148e+000
1.214841e+003,-4.822510e+000
1.215806e+003,-1.124866e+001
1.216770e+003,-1.710620e+001
1.217734e+003,-2.189990e+001
1.218698e+003,-2.512756e+001
1.219663e+003,-2.787097e+001
1.220627e+003,-3.149921e+001
1.221591e+003,-3.608295e+001
1.222555e+003,-4.073914e+001
1.223520e+003,-4.460931e+001
1.224484e+003,-4.721576e+001
1.225448e+003,-4.722577e+001
1.226412e+003,-4.197284e+001
1.227376e+003,-4.063135e+001
1.228341e+003,-4.778937e+001
1.229305e+003,-5.393427e+001
1.230269e+003,-5.188611e+001
1.231233e+003,-4.577435e+001
1.232198e+003,-4.479443e+001
1.233162e+003,-5.134509e+001
1.234126e+003,-5.741901e+001
1.235090e+003,-5.669922e+001
1.236055e+003,-5.392975e+001
1.237019e+003,-5.452631e+001
1.237983e+003,-5.747620e+001
1.238947e+003,-5.922662e+001
1.239911e+003,-5.805988e+001
1.240876e+003,-5.534003e+001
1.241840e+003,-5.315485e+001
1.242804e+003,-5.142688e+001
1.243768e+003,-5.105872e+001
1.244733e+003,-5.536670e+001
1.245697e+003,-5.640710e+001
1.246661e+003,-5.102844e+001
1.247625e+003,-4.542670e+001
1.248590e+003,-4.470575e+001
1.249554e+003,-4.728625e+001
1.250518e+003,-4.775623e+001
1.251482e+003,-4.381384e+001
1.252447e+003,-3.893970e+001
1.253411e+003,-3.651819e+001
1.254375e+003,-3.579004e+001
1.255339e+003,-3.591034e+001
1.256303e+003,-3.653375e+001
1.257268e+003,-3.646429e+001
1.258232e+003,-3.551147e+001
1.259196e+003,-3.400470e+001
1.260160e+003,-3.150604e+001
1.261125e+003,-2.727081e+001
1.262089e+003,-2.393774e+001
1.263053e+003,-2.379523e+001
1.264017e+003,-2.303918e+001
1.264982e+003,-2.031122e+001
1.265946e+003,-1.654749e+001
1.266910e+003,-1.186224e+001
1.267874e+003,-7.034912e+000
1.268839e+003,-3.586243e+000
1.269803e+003,-2.503113e+000
1.270767e+003,-3.459290e+000
1.271731e+003,-6.117432e+000
1.272695e+003,-1.024261e+001
1.273660e+003,-1.413068e+001
1.274624e+003,-1.834796e+001
1.275588e+003,-2.284760e+001
1.276552e+003,-2.766016e+001
1.277517e+003,-3.184082e+001
1.278481e+003,-3.380615e+001
1.279445e+003,-3.343292e+001
1.280409e+003,-3.383759e+001
1.281374e+003,-3.710577e+001
1.282338e+003,-3.966943e+001
1.283302e+003,-3.921063e+001
1.284266e+003,-3.753778e+001
1.285230e+003,-3.622333e+001
1.286195e+003,-3.596527e+001
1.287159e+003,-3.732764e+001
1.288123e+003,-4.058832e+001
1.289087e+003,-4.454761e+001
1.290052e+003,-4.646112e+001
1.291016e+003,-4.624249e+001
1.291980e+003,-4.537335e+001
1.292944e+003,-4.292749e+001
1.293909e+003,-4.192133e+001
1.294873e+003,-4.389404e+001
1.295837e+003,-4.699402e+001
1.296801e+003,-4.870905e+001
1.297766e+003,-4.879260e+001
1.298730e+003,-4.941589e+001
1.299694e+003,-5.259241e+001
1.300658e+003,-5.580865e+001
1.301622e+003,-5.610266e+001
1.302587e+003,-5.427600e+001
1.303551e+003,-5.127924e+001
1.304515e+003,-4.727972e+001
1.305479e+003,-4.291479e+001
1.306444e+003,-3.865546e+001
1.307408e+003,-3.522443e+001
1.308372e+003,-3.464471e+001
1.309336e+003,-3.789832e+001
1.310301e+003,-4.114465e+001
1.311265e+003,-4.502283e+001
1.312229e+003,-4.728979e+001
1.313193e+003,-4.699463e+001
1.314157e+003,-4.512872e+001
1.315122e+003,-4.155786e+001
1.316086e+003,-3.746942e+001
1.317050e+003,-3.648480e+001
1.318014e+003,-4.107410e+001
1.318979e+003,-4.699164e+001
1.319943e+003,-4.609277e+001
1.320907e+003,-3.922876e+001
1.321871e+003,-3.691510e+001
1.322836e+003,-4.176898e+001
1.323800e+003,-4.551703e+001
1.324764e+003,-4.191089e+001
1.325728e+003,-3.524298e+001
1.326693e+003,-3.353705e+001
1.327657e+003,-3.736145e+001
1.328621e+003,-4.042780e+001
1.329585e+003,-3.959204e+001
1.330549e+003,-3.757819e+001
1.331514e+003,-3.706189e+001
1.332478e+003,-3.728918e+001
1.333442e+003,-3.706665e+001
1.334406e+003,-3.621722e+001
1.335371e+003,-3.530316e+001
1.336335e+003,-3.469354e+001
1.337299e+003,-3.430627e+001
1.338263e+003,-3.414325e+001
1.339228e+003,-3.418555e+001
1.340192e+003,-3.445477e+001
1.341156e+003,-3.577954e+001
1.342120e+003,-3.615997e+001
1.343084e+003,-3.491162e+001
1.344049e+003,-3.382532e+001
1.345013e+003,-3.423584e+001
1.345977e+003,-3.543536e+001
1.346941e+003,-3.574072e+001
1.347906e+003,-3.457404e+001
1.348870e+003,-3.274756e+001
1.349834e+003,-3.083490e+001
1.350798e+003,-2.928033e+001
1.351763e+003,-2.818738e+001
1.352727e+003,-2.749225e+001
1.353691e+003,-2.761530e+001
1.354655e+003,-2.877484e+001
1.355620e+003,-3.033447e+001
1.356584e+003,-3.161841e+001
1.357548e+003,-3.246576e+001
1.358512e+003,-3.279370e+001
1.359476e+003,-3.300806e+001
1.360441e+003,-3.330023e+001
1.361405e+003,-3.351996e+001
1.362369e+003,-3.352820e+001
1.363333e+003,-3.294293e+001
1.364298e+003,-3.220575e+001
1.365262e+003,-3.165088e+001
1.366226e+003,-3.155591e+001
1.367190e+003,-3.267694e+001
1.368155e+003,-3.575433e+001
1.369119e+003,-3.967798e+001
1.370083e+003,-4.075330e+001
1.371047e+003,-3.795215e+001
1.372011e+003,-3.525537e+001
1.372976e+003,-3.292065e+001
1.373940e+003,-3.137408e+001
1.374904e+003,-3.109113e+001
1.375868e+003,-3.105914e+001
1.376833e+003,-3.003595e+001
1.377797e+003,-2.818201e+001
1.378761e+003,-2.672131e+001
1.379725e+003,-2.605463e+001
1.380690e+003,-2.584302e+001
1.381654e+003,-2.605286e+001
1.382618e+003,-2.614215e+001
1.383582e+003,-2.504803e+001
1.384547e+003,-2.299536e+001
1.385511e+003,-2.197668e+001
1.386475e+003,-2.342468e+001
1.387439e+003,-2.567688e+001
1.388403e+003,-2.596600e+001
1.389368e+003,-2.434784e+001
1.390332e+003,-2.291510e+001
1.391296e+003,-2.117523e+001
1.392260e+003,-2.009869e+001
1.393225e+003,-2.159247e+001
1.394189e+003,-2.219678e+001
1.395153e+003,-1.817670e+001
1.396117e+003,-1.268884e+001
1.397082e+003,-1.089606e+001
1.398046e+003,-1.374060e+001
1.399010e+003,-1.800623e+001
1.399974e+003,-2.110889e+001
1.400938e+003,-2.334088e+001
1.401903e+003,-2.383197e+001
1.402867e+003,-2.044543e+001
1.403831e+003,-1.899420e+001
1.404795e+003,-2.279742e+001
1.405760e+003,-2.521320e+001
1.406724e+003,-2.383472e+001
1.407688e+003,-2.157678e+001
1.408652e+003,-2.082758e+001
1.409617e+003,-2.118817e+001
1.410581e+003,-2.163708e+001
1.411545e+003,-2.194196e+001
1.412509e+003,-2.146106e+001
1.413474e+003,-1.924664e+001
1.414438e+003,-1.687140e+001
1.415402e+003,-1.622095e+001
1.416366e+003,-1.664911e+001
1.417330e+003,-1.633710e+001
1.418295e+003,-1.437646e+001
1.419259e+003,-1.217371e+001
1.420223e+003,-1.184869e+001
1.421187e+003,-1.332526e+001
1.422152e+003,-1.434149e+001
1.423116e+003,-1.453784e+001
1.424080e+003,-1.344745e+001
1.425044e+003,-9.399597e+000
1.426009e+003,-6.710388e+000
1.426973e+003,-8.821472e+000
1.427937e+003,-1.235779e+001
1.428901e+003,-1.278699e+001
1.429865e+003,-9.861389e+000
1.430830e+003,-6.711182e+000
1.431794e+003,-5.636719e+000
1.432758e+003,-5.906555e+000
1.433722e+003,-5.546021e+000
1.434687e+003,-3.899963e+000
1.435651e+003,-6.950684e-001
1.436615e+003,3.931274e+000
1.437579e+003,7.003052e+000
1.438544e+003,7.938538e+000
1.439508e+003,8.003723e+000
1.440472e+003,7.849243e+000
1.441436e+003,8.140503e+000
1.442401e+003,1.005762e+001
1.443365e+003,1.342096e+001
1.444329e+003,1.548877e+001
1.445293e+003,1.433490e+001
1.446257e+003,1.108038e+001
1.447222e+003,6.364990e+000
1.448186e+003,8.142700e-001
1.449150e+003,-9.018555e-001
1.450114e+003,2.409729e+000
1.451079e+003,5.606567e+000
1.452043e+003,6.596130e+000
1.453007e+003,6.318359e+000
1.453971e+003,5.323547e+000
1.454936e+003,3.572266e+000
1.455900e+003,2.095581e+000
1.456864e+003,1.373779e+000
1.457828e+003,9.099121e-001
1.458792e+003,-7.167358e-001
1.459757e+003,-1.748901e+000
1.460721e+003,6.215820e-001
1.461685e+003,4.350464e+000
1.462649e+003,5.171387e+000
1.463614e+003,2.314270e+000
1.464578e+003,-1.525024e+000
1.465542e+003,-4.565674e+000
1.466506e+003,-6.369568e+000
1.467471e+003,-4.506348e+000
1.468435e+003,2.618225e+000
1.469399e+003,8.282959e+000
1.470363e+003,1.128052e+001
1.471328e+003,1.266565e+001
1.472292e+003,1.100348e+001
1.473256e+003,8.497131e+000
1.474220e+003,7.277222e+000
1.475184e+003,7.374390e+000
1.476149e+003,7.740784e+000
1.477113e+003,7.746338e+000
1.478077e+003,7.654419e+000
1.479041e+003,8.094482e+000
1.480006e+003,9.423035e+000
1.480970e+003,1.186780e+001
1.481934e+003,1.535229e+001
1.482898e+003,1.803143e+001
1.483863e+003,1.968024e+001
1.484827e+003,2.070081e+001
1.485791e+003,2.081982e+001
1.486755e+003,2.149280e+001
1.487719e+003,2.383795e+001
1.488684e+003,2.734607e+001
1.489648e+003,3.115125e+001
1.490612e+003,3.518182e+001
1.491576e+003,3.920081e+001
1.492541e+003,4.266528e+001
1.493505e+003,4.597241e+001
1.494469e+003,5.014392e+001
1.495433e+003,5.457855e+001
1.496398e+003,5.908417e+001
1.497362e+003,6.444293e+001
1.498326e+003,6.999298e+001
1.499290e+003,7.391681e+001
1.500255e+003,7.869348e+001
1.501219e+003,8.885693e+001
1.502183e+003,1.031017e+002
1.503147e+003,1.135706e+002
1.504111e+003,1.174010e+002
1.505076e+003,1.233503e+002
1.506040e+003,1.371808e+002
1.507004e+003,1.550714e+002
1.507968e+003,1.728790e+002
1.508933e+003,1.914802e+002
1.509897e+003,2.122859e+002
1.510861e+003,2.364666e+002
1.511825e+003,2.662230e+002
1.512790e+003,3.038308e+002
1.513754e+003,3.449568e+002
1.514718e+003,3.812347e+002
1.515682e+003,4.122124e+002
1.516646e+003,4.479361e+002
1.517611e+003,4.934276e+002
1.518575e+003,5.347793e+002
1.519539e+003,5.677994e+002
1.520503e+003,5.964514e+002
1.521468e+003,6.240771e+002
1.522432e+003,6.474323e+002
1.523396e+003,6.629784e+002
1.524360e+003,6.694109e+002
1.525325e+003,6.661565e+002
1.526289e+003,6.529599e+002
1.527253e+003,6.322176e+002
1.528217e+003,6.076140e+002
1.529182e+003,5.795717e+002
1.530146e+003,5.491510e+002
1.531110e+003,5.154572e+002
1.532074e+003,4.798867e+002
1.533039e+003,4.434230e+002
1.534003e+003,4.019731e+002
1.534967e+003,3.510427e+002
1.535931e+003,2.982190e+002
1.536896e+003,2.497227e+002
1.537860e+003,2.077846e+002
1.538824e+003,1.734050e+002
1.539788e+003,1.466486e+002
1.540752e+003,1.252848e+002
1.541717e+003,1.066887e+002
1.542681e+003,9.137024e+001
1.543645e+003,8.048334e+001
1.544609e+003,7.679218e+001
1.545573e+003,7.211218e+001
1.546538e+003,6.257764e+001
1.547502e+003,5.567975e+001
1.548466e+003,5.629718e+001
1.549430e+003,6.034125e+001
1.550395e+003,6.423871e+001
1.551359e+003,6.694946e+001
1.552323e+003,6.814850e+001
1.553287e+003,6.776654e+001
1.554252e+003,6.545081e+001
1.555216e+003,6.068573e+001
1.556180e+003,5.408063e+001
1.557144e+003,4.660602e+001
1.558109e+003,3.846069e+001
1.559073e+003,3.240906e+001
1.560037e+003,2.786047e+001
1.561001e+003,2.520477e+001
1.561966e+003,2.600098e+001
1.562930e+003,2.873962e+001
1.563894e+003,3.308411e+001
1.564858e+003,3.737354e+001
1.565823e+003,3.743884e+001
1.566787e+003,3.272803e+001
1.567751e+003,2.865302e+001
1.568715e+003,2.834827e+001
1.569679e+003,3.028839e+001
1.570644e+003,3.313458e+001
1.571608e+003,3.600232e+001
1.572572e+003,3.726227e+001
1.573536e+003,3.715210e+001
1.574500e+003,3.713873e+001
1.575465e+003,3.740759e+001
1.576429e+003,3.795734e+001
1.577393e+003,3.839337e+001
1.578357e+003,3.895386e+001
1.579322e+003,4.085254e+001
1.580286e+003,4.414795e+001
1.581250e+003,4.672705e+001
1.582214e+003,4.783044e+001
1.583179e+003,4.848376e+001
1.584143e+003,4.910309e+001
1.585107e+003,4.944171e+001
1.586071e+003,4.953070e+001
1.587036e+003,5.009875e+001
1.588000e+003,5.205792e+001
1.588964e+003,5.537390e+001
1.589928e+003,5.779785e+001
1.590893e+003,5.736902e+001
1.591857e+003,5.585620e+001
1.592821e+003,5.579651e+001
1.593785e+003,5.714026e+001
1.594750e+003,5.926465e+001
1.595714e+003,6.207684e+001
1.596678e+003,6.415204e+001
1.597642e+003,6.415106e+001
1.598606e+003,6.453479e+001
1.599571e+003,6.867596e+001
1.600535e+003,7.382660e+001
1.601499e+003,7.544202e+001
1.602463e+003,7.400696e+001
1.603427e+003,7.443652e+001
1.604392e+003,7.898315e+001
1.605356e+003,8.416156e+001
1.606320e+003,8.726398e+001
1.607284e+003,8.807544e+001
1.608249e+003,8.484320e+001
1.609213e+003,7.737048e+001
1.610177e+003,7.261145e+001
1.611141e+003,7.222150e+001
1.612106e+003,7.336029e+001
1.613070e+003,7.627319e+001
1.614034e+003,7.864178e+001
1.614998e+003,7.835706e+001
1.615963e+003,7.656897e+001
1.616927e+003,7.476801e+001
1.617891e+003,7.333582e+001
1.618855e+003,7.293396e+001
1.619820e+003,7.391663e+001
1.620784e+003,7.477997e+001
1.621748e+003,7.357379e+001
1.622712e+003,7.157892e+001
1.623677e+003,7.327588e+001
1.624641e+003,7.973273e+001
1.625605e+003,8.403284e+001
1.626569e+003,8.253394e+001
1.627533e+003,7.974860e+001
1.628498e+003,7.751373e+001
1.629462e+003,7.643164e+001
1.630426e+003,7.765308e+001
1.631390e+003,8.002014e+001
1.632354e+003,8.113837e+001
1.633319e+003,8.044489e+001
1.634283e+003,7.917236e+001
1.635247e+003,7.792487e+001
1.636211e+003,7.725519e+001
1.637176e+003,7.909558e+001
1.638140e+003,8.336975e+001
1.639104e+003,8.535413e+001
1.640068e+003,8.409100e+001
1.641033e+003,8.275830e+001
1.641997e+003,8.172272e+001
1.642961e+003,8.188544e+001
1.643925e+003,8.486383e+001
1.644890e+003,8.809595e+001
1.645854e+003,8.890240e+001
1.646818e+003,8.763287e+001
1.647782e+003,8.575421e+001
1.648747e+003,8.376282e+001
1.649711e+003,8.185065e+001
1.650675e+003,8.021124e+001
1.651639e+003,7.960773e+001
1.652604e+003,8.176239e+001
1.653568e+003,8.623914e+001
1.654532e+003,8.801733e+001
1.655496e+003,8.654132e+001
1.656460e+003,8.339264e+001
1.657425e+003,7.751208e+001
1.658389e+003,7.248193e+001
1.659353e+003,6.981555e+001
1.660317e+003,6.907758e+001
1.661281e+003,7.132281e+001
1.662246e+003,7.475122e+001
1.663210e+003,7.437036e+001
1.664174e+003,6.889124e+001
1.665138e+003,6.367548e+001
1.666103e+003,6.328546e+001
1.667067e+003,6.533911e+001
1.668031e+003,6.556750e+001
1.668995e+003,6.415698e+001
1.669960e+003,6.177515e+001
1.670924e+003,5.799945e+001
1.671888e+003,5.593732e+001
1.672852e+003,5.752179e+001
1.673817e+003,5.909991e+001
1.674781e+003,5.796661e+001
1.675745e+003,5.583545e+001
1.676709e+003,5.400238e+001
1.677674e+003,5.285767e+001
1.678638e+003,5.367590e+001
1.679602e+003,5.681390e+001
1.680566e+003,5.838080e+001
1.681531e+003,5.489673e+001
1.682495e+003,4.932263e+001
1.683459e+003,4.572357e+001
1.684423e+003,4.380310e+001
1.685387e+003,4.394843e+001
1.686352e+003,4.677655e+001
1.687316e+003,4.819135e+001
1.688280e+003,4.632727e+001
1.689244e+003,4.377454e+001
1.690208e+003,4.160583e+001
1.691173e+003,4.009827e+001
1.692137e+003,3.998877e+001
1.693101e+003,4.134613e+001
1.694065e+003,4.374036e+001
1.695030e+003,4.675171e+001
1.695994e+003,4.803302e+001
1.696958e+003,4.563055e+001
1.697922e+003,4.188788e+001
1.698887e+003,3.994366e+001
1.699851e+003,3.912811e+001
1.700815e+003,3.637665e+001
1.701779e+003,3.132556e+001
1.702744e+003,2.850171e+001
1.703708e+003,3.040393e+001
1.704672e+003,3.252466e+001
1.705636e+003,3.049438e+001
1.706601e+003,2.673981e+001
1.707565e+003,2.640271e+001
1.708529e+003,2.833270e+001
1.709493e+003,2.702368e+001
1.710458e+003,2.117255e+001
1.711422e+003,1.785468e+001
1.712386e+003,2.276361e+001
1.713350e+003,2.856390e+001
1.714314e+003,2.878113e+001
1.715279e+003,2.560553e+001
1.716243e+003,2.249799e+001
1.717207e+003,2.000690e+001
1.718171e+003,1.861743e+001
1.719135e+003,1.855664e+001
1.720100e+003,1.910986e+001
1.721064e+003,1.979272e+001
1.722028e+003,2.022919e+001
1.722992e+003,2.035339e+001
1.723957e+003,2.053540e+001
1.724921e+003,2.003717e+001
1.725885e+003,1.781897e+001
1.726849e+003,1.654309e+001
1.727814e+003,1.850415e+001
1.728778e+003,2.057605e+001
1.729742e+003,2.180072e+001
1.730706e+003,2.187640e+001
1.731671e+003,1.891089e+001
1.732635e+003,1.432690e+001
1.733599e+003,1.247711e+001
1.734563e+003,1.399194e+001
1.735528e+003,1.486322e+001
1.736492e+003,1.277618e+001
1.737456e+003,1.029523e+001
1.738420e+003,1.054608e+001
1.739385e+003,1.235797e+001
1.740349e+003,1.271753e+001
1.741313e+003,1.167999e+001
1.742277e+003,1.057794e+001
1.743241e+003,1.038123e+001
1.744206e+003,9.359985e+000
1.745170e+003,5.363953e+000
1.746134e+003,2.254089e+000
1.747098e+003,3.044800e+000
1.748063e+003,5.129456e+000
1.749027e+003,5.543335e+000
1.749991e+003,4.464172e+000
1.750955e+003,3.460388e+000
1.751919e+003,3.003723e+000
1.752884e+003,2.278015e+000
1.753848e+003,5.792847e-001
1.754812e+003,-1.127625e+000
1.755776e+003,-3.939819e-001
1.756741e+003,3.047913e+000
1.757705e+003,5.382568e+000
1.758669e+003,5.792786e+000
1.759633e+003,6.493835e+000
1.760598e+003,9.317688e+000
1.761562e+003,9.342102e+000
1.762526e+003,1.688171e+000
1.763490e+003,-4.887512e+000
1.764455e+003,-2.341003e+000
1.765419e+003,4.561218e+000
1.766383e+003,7.542236e+000
1.767347e+003,5.819092e+000
1.768312e+003,4.036255e+000
1.769276e+003,4.253601e+000
1.770240e+003,5.049622e+000
1.771204e+003,5.784973e+000
1.772168e+003,6.538269e+000
1.773133e+003,6.064941e+000
1.774097e+003,4.611938e+000
1.775061e+003,5.395386e+000
1.776025e+003,8.806946e+000
1.776990e+003,1.027417e+001
1.777954e+003,7.903137e+000
1.778918e+003,5.584045e+000
1.779882e+003,5.869080e+000
1.780846e+003,7.166321e+000
1.781811e+003,8.380371e+000
1.782775e+003,9.247009e+000
1.783739e+003,7.924561e+000
1.784703e+003,3.941956e+000
1.785668e+003,2.077454e+000
1.786632e+003,5.315247e+000
1.787596e+003,8.828186e+000
1.788560e+003,9.653015e+000
1.789525e+003,9.369995e+000
1.790489e+003,9.146423e+000
1.791453e+003,9.092224e+000
1.792417e+003,9.924561e+000
1.793382e+003,1.168951e+001
1.794346e+003,1.337250e+001
1.795310e+003,1.447876e+001
1.796274e+003,1.370990e+001
1.797239e+003,9.295776e+000
1.798203e+003,3.521423e+000
1.799167e+003,2.280334e+000
1.800131e+003,5.584473e+000
1.801095e+003,7.165894e+000
1.802060e+003,6.430969e+000
1.803024e+003,6.770081e+000
1.803988e+003,9.016479e+000
1.804952e+003,1.115173e+001
1.805917e+003,1.197284e+001
1.806881e+003,1.240552e+001
1.807845e+003,1.393073e+001
1.808809e+003,1.598224e+001
1.809773e+003,1.719122e+001
1.810738e+003,1.713690e+001
1.811702e+003,1.585651e+001
1.812666e+003,1.337927e+001
1.813630e+003,1.073712e+001
1.814595e+003,9.231934e+000
1.815559e+003,8.728271e+000
1.816523e+003,9.567749e+000
1.817487e+003,1.208643e+001
1.818452e+003,1.320325e+001
1.819416e+003,1.264172e+001
1.820380e+003,1.226062e+001
1.821344e+003,1.204620e+001
1.822309e+003,1.198676e+001
1.823273e+003,1.220648e+001
1.824237e+003,1.308081e+001
1.825201e+003,1.554565e+001
1.826166e+003,1.847888e+001
1.827130e+003,1.911542e+001
1.828094e+003,1.687073e+001
1.829058e+003,1.376404e+001
1.830022e+003,1.034033e+001
1.830987e+003,7.959167e+000
1.831951e+003,8.350220e+000
1.832915e+003,1.004285e+001
1.833879e+003,1.113708e+001
1.834844e+003,1.156805e+001
1.835808e+003,1.115143e+001
1.836772e+003,1.013379e+001
1.837736e+003,1.037402e+001
1.838700e+003,1.253918e+001
1.839665e+003,1.451367e+001
1.840629e+003,1.463531e+001
1.841593e+003,1.320819e+001
1.842557e+003,1.000275e+001
1.843522e+003,5.074585e+000
1.844486e+003,4.448303e+000
1.845450e+003,1.249139e+001
1.846414e+003,1.749060e+001
1.847379e+003,1.613605e+001
1.848343e+003,1.487360e+001
1.849307e+003,1.710309e+001
1.850271e+003,1.896320e+001
1.851236e+003,1.756860e+001
1.852200e+003,1.448102e+001
1.853164e+003,1.059869e+001
1.854128e+003,6.755432e+000
1.855093e+003,5.416138e+000
1.856057e+003,7.607239e+000
1.857021e+003,1.085162e+001
1.857985e+003,1.296332e+001
1.858949e+003,1.412115e+001
1.859914e+003,1.426447e+001
1.860878e+003,1.391840e+001
1.861842e+003,1.599207e+001
1.862806e+003,2.044415e+001
1.863771e+003,2.238849e+001
1.864735e+003,2.013422e+001
1.865699e+003,1.868353e+001
1.866663e+003,2.109778e+001
1.867627e+003,2.403143e+001
1.868592e+003,2.395911e+001
1.869556e+003,2.200800e+001
1.870520e+003,2.120728e+001
1.871484e+003,2.125232e+001
1.872449e+003,2.011963e+001
1.873413e+003,1.800763e+001
1.874377e+003,1.802612e+001
1.875341e+003,2.150763e+001
1.876306e+003,2.464160e+001
1.877270e+003,2.472388e+001
1.878234e+003,2.384296e+001
1.879198e+003,2.480157e+001
1.880163e+003,2.641113e+001
1.881127e+003,2.563574e+001
1.882091e+003,2.289032e+001
1.883055e+003,2.146161e+001
1.884020e+003,2.263879e+001
1.884984e+003,2.505017e+001
1.885948e+003,2.758679e+001
1.886912e+003,2.895667e+001
1.887876e+003,2.585437e+001
1.888841e+003,1.905450e+001
1.889805e+003,1.838153e+001
1.890769e+003,2.536035e+001
1.891733e+003,3.027307e+001
1.892698e+003,3.165509e+001
1.893662e+003,3.148706e+001
1.894626e+003,3.051379e+001
1.895590e+003,2.835333e+001
1.896554e+003,2.243048e+001
1.897519e+003,1.724805e+001
1.898483e+003,1.913031e+001
1.899447e+003,2.584698e+001
1.900411e+003,3.066931e+001
1.901376e+003,3.265759e+001
1.902340e+003,3.296008e+001
1.903304e+003,3.092090e+001
1.904268e+003,2.885486e+001
1.905233e+003,2.855450e+001
1.906197e+003,2.886743e+001
1.907161e+003,2.829535e+001
1.908125e+003,2.778650e+001
1.909090e+003,2.933301e+001
1.910054e+003,3.220685e+001
1.911018e+003,3.354987e+001
1.911982e+003,3.278729e+001
1.912947e+003,3.236633e+001
1.913911e+003,3.396667e+001
1.914875e+003,3.594202e+001
1.915839e+003,3.534198e+001
1.916803e+003,3.282751e+001
1.917768e+003,3.416644e+001
1.918732e+003,4.093317e+001
1.919696e+003,4.264764e+001
1.920660e+003,3.658026e+001
1.921625e+003,3.374982e+001
1.922589e+003,3.846802e+001
1.923553e+003,4.302942e+001
1.924517e+003,4.295349e+001
1.925481e+003,4.147205e+001
1.926446e+003,4.122943e+001
1.927410e+003,4.175421e+001
1.928374e+003,4.183954e+001
1.929338e+003,4.120392e+001
1.930303e+003,4.061792e+001
1.931267e+003,4.086505e+001
1.932231e+003,4.138007e+001
1.933195e+003,4.173621e+001
1.934160e+003,4.154480e+001
1.935124e+003,4.004468e+001
1.936088e+003,3.798273e+001
1.937052e+003,3.645032e+001
1.938017e+003,3.574762e+001
1.938981e+003,3.630768e+001
1.939945e+003,3.758966e+001
1.940909e+003,3.710742e+001
1.941874e+003,3.396979e+001
1.942838e+003,3.186859e+001
1.943802e+003,3.467889e+001
1.944766e+003,4.053979e+001
1.945730e+003,4.546649e+001
1.946695e+003,4.891425e+001
1.947659e+003,4.789233e+001
1.948623e+003,4.167310e+001
1.949587e+003,3.824835e+001
1.950552e+003,3.935309e+001
1.951516e+003,4.046960e+001
1.952480e+003,3.989722e+001
1.953444e+003,3.942780e+001
1.954408e+003,4.054492e+001
1.955373e+003,4.169189e+001
1.956337e+003,4.037915e+001
1.957301e+003,3.811932e+001
1.958265e+003,3.916492e+001
1.959230e+003,4.415613e+001
1.960194e+003,4.822058e+001
1.961158e+003,4.961761e+001
1.962122e+003,5.026648e+001
1.963087e+003,5.179742e+001
1.964051e+003,5.152893e+001
1.965015e+003,4.576471e+001
1.965979e+003,4.014667e+001
1.966944e+003,4.053748e+001
1.967908e+003,4.458679e+001
1.968872e+003,4.786072e+001
1.969836e+003,4.954254e+001
1.970801e+003,5.080444e+001
1.971765e+003,5.221118e+001
1.972729e+003,5.331201e+001
1.973693e+003,5.354633e+001
1.974657e+003,5.366577e+001
1.975622e+003,5.487482e+001
1.976586e+003,5.653979e+001
1.977550e+003,5.743036e+001
1.978514e+003,5.774365e+001
1.979479e+003,5.807568e+001
1.980443e+003,5.837683e+001
1.981407e+003,5.753723e+001
1.982371e+003,5.521222e+001
1.983335e+003,5.360065e+001
1.984300e+003,5.416071e+001
1.985264e+003,5.579248e+001
1.986228e+003,5.718085e+001
1.987192e+003,5.834229e+001
1.988157e+003,5.948993e+001
1.989121e+003,6.108844e+001
1.990085e+003,6.104327e+001
1.991049e+003,5.839526e+001
1.992014e+003,5.653168e+001
1.992978e+003,5.513098e+001
1.993942e+003,5.510156e+001
1.994906e+003,5.855878e+001
1.995871e+003,6.167059e+001
1.996835e+003,6.068152e+001
1.997799e+003,5.840167e+001
1.998763e+003,5.880725e+001
1.999728e+003,6.152631e+001
