5.003444e+002,3.342300e+001
5.013087e+002,3.191327e+001
5.022729e+002,2.976135e+001
5.032371e+002,2.761130e+001
5.042014e+002,2.679102e+001
5.051656e+002,2.715112e+001
5.061298e+002,2.788574e+001
5.070941e+002,2.823837e+001
5.080583e+002,2.800949e+001
5.090225e+002,2.794077e+001
5.099868e+002,2.819427e+001
5.109510e+002,2.837628e+001
5.119152e+002,2.824918e+001
5.128795e+002,2.779648e+001
5.138437e+002,2.743759e+001
5.148079e+002,2.757730e+001
5.157722e+002,2.769333e+001
5.167364e+002,2.742111e+001
5.177006e+002,2.672882e+001
5.186649e+002,2.595651e+001
5.196291e+002,2.597034e+001
5.205933e+002,2.616653e+001
5.215576e+002,2.505484e+001
5.225218e+002,2.264041e+001
5.234860e+002,2.033673e+001
5.244503e+002,2.098090e+001
5.254145e+002,2.613028e+001
5.263787e+002,2.857330e+001
5.273430e+002,2.709842e+001
5.283072e+002,2.377515e+001
5.292714e+002,2.120749e+001
5.302357e+002,1.919897e+001
5.311999e+002,1.803705e+001
5.321641e+002,1.851227e+001
5.331284e+002,1.947260e+001
5.340926e+002,2.004715e+001
5.350568e+002,1.983554e+001
5.360211e+002,1.896014e+001
5.369853e+002,1.728485e+001
5.379495e+002,1.558112e+001
5.389138e+002,1.422833e+001
5.398780e+002,1.344263e+001
5.408422e+002,1.340329e+001
5.418065e+002,1.540210e+001
5.427707e+002,1.900906e+001
5.437349e+002,2.082443e+001
5.446992e+002,1.952023e+001
5.456634e+002,1.602847e+001
5.466276e+002,1.369104e+001
5.475919e+002,1.335327e+001
5.485561e+002,1.353769e+001
5.495203e+002,1.450751e+001
5.504846e+002,1.571027e+001
5.514488e+002,1.657504e+001
5.524130e+002,1.727106e+001
5.533773e+002,1.690192e+001
5.543415e+002,1.448941e+001
5.553057e+002,1.136862e+001
5.562700e+002,8.557495e+000
5.572342e+002,6.676239e+000
5.581984e+002,5.992432e+000
5.591627e+002,8.752258e+000
5.601269e+002,1.333731e+001
5.610911e+002,1.546198e+001
5.620554e+002,1.263992e+001
5.630196e+002,5.653473e+000
5.639838e+002,2.270294e+000
5.649481e+002,5.445740e+000
5.659123e+002,7.896576e+000
5.668765e+002,8.358429e+000
5.678408e+002,7.492676e+000
5.688050e+002,6.890198e+000
5.697692e+002,6.797699e+000
5.707335e+002,6.644104e+000
5.716977e+002,6.166290e+000
5.726619e+002,5.682373e+000
5.736262e+002,5.807159e+000
5.745904e+002,7.153137e+000
5.755546e+002,8.552307e+000
5.765189e+002,7.456360e+000
5.774831e+002,4.969086e+000
5.784473e+002,3.402435e+000
5.794116e+002,4.391479e+000
5.803758e+002,7.716400e+000
5.813400e+002,9.025787e+000
5.823043e+002,7.805573e+000
5.832685e+002,6.064941e+000
5.842327e+002,4.099915e+000
5.851970e+002,2.197723e+000
5.861612e+002,1.545410e+000
5.871254e+002,3.648590e+000
5.880897e+002,5.376801e+000
5.890539e+002,6.211395e+000
5.900181e+002,6.164764e+000
5.909824e+002,5.234802e+000
5.919466e+002,2.985992e+000
5.929108e+002,1.047668e+000
5.938751e+002,1.382263e+000
5.948393e+002,2.957794e+000
5.958035e+002,4.204651e+000
5.967678e+002,4.006592e+000
5.977320e+002,2.691162e+000
5.986962e+002,2.325928e+000
5.996605e+002,2.698181e+000
6.006247e+002,3.030914e+000
6.015889e+002,3.172272e+000
6.025532e+002,3.110504e+000
6.035174e+002,2.414246e+000
6.044816e+002,-6.433411e-001
6.054459e+002,-2.338379e+000
6.064101e+002,-1.204102e+000
6.073743e+002,1.501465e+000
6.083386e+002,3.491516e+000
6.093028e+002,3.427643e+000
6.102670e+002,2.790283e+000
6.112313e+002,2.365479e+000
6.121955e+002,2.306305e+000
6.131597e+002,3.026550e+000
6.141240e+002,4.766144e+000
6.150882e+002,6.992065e+000
6.160524e+002,7.316956e+000
6.170167e+002,6.168640e+000
6.179809e+002,4.838196e+000
6.189451e+002,3.597382e+000
6.199094e+002,2.465973e+000
6.208736e+002,2.221100e+000
6.218378e+002,5.228302e+000
6.228021e+002,6.680450e+000
6.237663e+002,5.052795e+000
6.247305e+002,1.951416e+000
6.256948e+002,-1.728516e-001
6.266590e+002,-5.378723e-001
6.276232e+002,2.699890e-001
6.285875e+002,2.616425e+000
6.295517e+002,5.398529e+000
6.305159e+002,7.547211e+000
6.314802e+002,8.397034e+000
6.324444e+002,8.027069e+000
6.334086e+002,6.080444e+000
6.343729e+002,3.262665e+000
6.353371e+002,1.119019e+000
6.363013e+002,1.333313e-001
6.372656e+002,1.423035e-001
6.382298e+002,7.601929e-001
6.391940e+002,3.840424e+000
6.401583e+002,4.747253e+000
6.411225e+002,1.929504e+000
6.420867e+002,-1.961273e+000
6.430510e+002,-3.744873e+000
6.440152e+002,-2.162384e+000
6.449794e+002,-5.698853e-001
6.459437e+002,-9.796753e-001
6.469079e+002,-1.910278e+000
6.478721e+002,-2.048218e+000
6.488364e+002,-9.806824e-001
6.498006e+002,4.302368e-001
6.507648e+002,3.733521e-001
6.517291e+002,-6.317139e-001
6.526933e+002,-1.187836e+000
6.536575e+002,-1.033173e+000
6.546218e+002,-4.671021e-001
6.555860e+002,3.601074e-003
6.565502e+002,7.358398e-001
6.575145e+002,3.014526e-001
6.584787e+002,-2.351959e+000
6.594429e+002,-5.149811e+000
6.604072e+002,-6.491180e+000
6.613714e+002,-6.086945e+000
6.623356e+002,-4.964752e+000
6.632999e+002,-2.308655e+000
6.642641e+002,-3.863220e-001
6.652283e+002,-7.650757e-001
6.661926e+002,-3.127594e+000
6.671568e+002,-5.915894e+000
6.681210e+002,-7.718201e+000
6.690853e+002,-8.230438e+000
6.700495e+002,-6.587585e+000
6.710137e+002,-2.938354e+000
6.719780e+002,7.493286e-001
6.729422e+002,2.297699e+000
6.739064e+002,1.064850e+000
6.748707e+002,1.077026e+000
6.758349e+002,3.953156e+000
6.767991e+002,5.814911e+000
6.777634e+002,4.444946e+000
6.787276e+002,4.393311e-001
6.796918e+002,-2.443024e+000
6.806561e+002,-2.039764e+000
6.816203e+002,-1.371368e+000
6.825845e+002,-1.906097e+000
6.835488e+002,-2.926758e+000
6.845130e+002,-2.816223e+000
6.854772e+002,-1.501770e-001
6.864415e+002,3.376648e+000
6.874057e+002,3.224884e+000
6.883699e+002,4.497070e-001
6.893342e+002,-1.888428e+000
6.902984e+002,-1.988586e+000
6.912626e+002,-2.216187e-001
6.922269e+002,4.714966e-001
6.931911e+002,-3.010864e-001
6.941553e+002,-1.204651e+000
6.951196e+002,-3.156860e+000
6.960838e+002,-5.150391e+000
6.970480e+002,-5.195038e+000
6.980123e+002,-1.896851e+000
6.989765e+002,1.108765e+000
6.999407e+002,2.697968e+000
7.009050e+002,3.179718e+000
7.018692e+002,2.247101e+000
7.028334e+002,5.566406e-002
7.037977e+002,-2.204346e+000
7.047619e+002,-2.115540e+000
7.057261e+002,-6.456909e-001
7.066904e+002,-1.418762e-001
7.076546e+002,-9.840393e-001
7.086188e+002,-2.294983e+000
7.095831e+002,-2.675934e+000
7.105473e+002,-1.806396e+000
7.115115e+002,-1.225708e+000
7.124758e+002,-1.338318e+000
7.134400e+002,-1.389526e+000
7.144042e+002,-6.257324e-001
7.153685e+002,9.906616e-001
7.163327e+002,2.151062e+000
7.172969e+002,1.815430e+000
7.182612e+002,1.302612e+000
7.192254e+002,1.082825e+000
7.201896e+002,1.025818e+000
7.211539e+002,7.461853e-001
7.221181e+002,-9.371948e-002
7.230823e+002,-1.193085e+000
7.240466e+002,-2.046204e+000
7.250108e+002,-2.456207e+000
7.259750e+002,-1.642059e+000
7.269393e+002,1.003052e+000
7.279035e+002,4.879883e+000
7.288677e+002,6.388794e+000
7.298320e+002,3.865662e+000
7.307962e+002,1.544678e+000
7.317604e+002,-8.454590e-001
7.327247e+002,-2.647186e+000
7.336889e+002,-2.864441e+000
7.346531e+002,-1.034424e+000
7.356174e+002,6.918335e-001
7.365816e+002,1.977142e+000
7.375458e+002,2.674255e+000
7.385101e+002,2.067047e+000
7.394743e+002,3.309326e-001
7.404385e+002,-1.152039e+000
7.414028e+002,1.565552e-002
7.423670e+002,2.822052e+000
7.433312e+002,3.790833e+000
7.442955e+002,2.812592e+000
7.452597e+002,1.465576e+000
7.462239e+002,1.547577e+000
7.471882e+002,3.570190e+000
7.481524e+002,4.423126e+000
7.491166e+002,2.652374e+000
7.500809e+002,1.114685e+000
7.510451e+002,1.250305e+000
7.520093e+002,2.607605e+000
7.529736e+002,3.332489e+000
7.539378e+002,2.320129e+000
7.549020e+002,1.269684e+000
7.558663e+002,1.543091e+000
7.568306e+002,2.335754e+000
7.577948e+002,2.224182e+000
7.587590e+002,3.928833e-001
7.597233e+002,-2.268341e+000
7.606875e+002,-2.333954e+000
7.616517e+002,-5.340576e-002
7.626160e+002,1.550568e+000
7.635802e+002,1.590698e+000
7.645444e+002,7.648621e-001
7.655087e+002,5.064392e-001
7.664729e+002,1.212097e+000
7.674371e+002,1.498749e+000
7.684014e+002,5.697937e-001
7.693656e+002,-1.393433e-001
7.703298e+002,7.941589e-001
7.712941e+002,3.311646e+000
7.722583e+002,5.159119e+000
7.732225e+002,3.598663e+000
7.741868e+002,1.734772e+000
7.751510e+002,2.712006e+000
7.761152e+002,5.552063e+000
7.770795e+002,7.323639e+000
7.780437e+002,5.385376e+000
7.790079e+002,3.961182e-001
7.799722e+002,-1.192139e+000
7.809364e+002,7.509460e-001
7.819006e+002,2.585999e+000
7.828649e+002,2.958588e+000
7.838291e+002,2.352631e+000
7.847933e+002,2.158112e+000
7.857576e+002,2.661987e+000
7.867218e+002,2.630157e+000
7.876860e+002,1.570160e+000
7.886503e+002,4.728394e-001
7.896145e+002,-4.388428e-002
7.905787e+002,2.412109e-001
7.915430e+002,1.463196e+000
7.925072e+002,4.617279e+000
7.934714e+002,7.993286e+000
7.944357e+002,9.957275e+000
7.953999e+002,1.049579e+001
7.963641e+002,1.019617e+001
7.973284e+002,9.619965e+000
7.982926e+002,8.758667e+000
7.992568e+002,7.809174e+000
8.002211e+002,6.086548e+000
8.011853e+002,4.666656e+000
8.021495e+002,4.731750e+000
8.031138e+002,5.938934e+000
8.040780e+002,6.135742e+000
8.050422e+002,3.492554e+000
8.060065e+002,1.766205e+000
8.069707e+002,2.428345e+000
8.079349e+002,4.084076e+000
8.088992e+002,5.593506e+000
8.098634e+002,6.550171e+000
8.108276e+002,7.252075e+000
8.117919e+002,8.114716e+000
8.127561e+002,8.558289e+000
8.137203e+002,7.770020e+000
8.146846e+002,5.857574e+000
8.156488e+002,3.713043e+000
8.166130e+002,2.197296e+000
8.175773e+002,1.116821e+000
8.185415e+002,1.667297e+000
8.195057e+002,5.659302e+000
8.204700e+002,8.468231e+000
8.214342e+002,7.508881e+000
8.223984e+002,4.196228e+000
8.233627e+002,2.535614e+000
8.243269e+002,4.797607e+000
8.252911e+002,7.194641e+000
8.262554e+002,7.074677e+000
8.272196e+002,6.117706e+000
8.281838e+002,6.299255e+000
8.291481e+002,8.157806e+000
8.301123e+002,1.025055e+001
8.310765e+002,9.775116e+000
8.320408e+002,6.980530e+000
8.330050e+002,6.027405e+000
8.339692e+002,7.664124e+000
8.349335e+002,9.629883e+000
8.358977e+002,9.438354e+000
8.368619e+002,6.760834e+000
8.378262e+002,5.086090e+000
8.387904e+002,4.708252e+000
8.397546e+002,4.863861e+000
8.407189e+002,5.800873e+000
8.416831e+002,7.084747e+000
8.426473e+002,8.011353e+000
8.436116e+002,8.226013e+000
8.445758e+002,8.325409e+000
8.455400e+002,9.128174e+000
8.465043e+002,9.775269e+000
8.474685e+002,9.346039e+000
8.484327e+002,7.785492e+000
8.493970e+002,5.716766e+000
8.503612e+002,3.910950e+000
8.513254e+002,2.194489e+000
8.522897e+002,2.262787e+000
8.532539e+002,5.434357e+000
8.542181e+002,8.249512e+000
8.551824e+002,8.289917e+000
8.561466e+002,6.140930e+000
8.571108e+002,5.471954e+000
8.580751e+002,7.855865e+000
8.590393e+002,9.959320e+000
8.600035e+002,1.066479e+001
8.609678e+002,1.084326e+001
8.619320e+002,1.151584e+001
8.628962e+002,1.305728e+001
8.638605e+002,1.489862e+001
8.648247e+002,1.644189e+001
8.657889e+002,1.750601e+001
8.667532e+002,1.752838e+001
8.677174e+002,1.643753e+001
8.686816e+002,1.517520e+001
8.696459e+002,1.487341e+001
8.706101e+002,1.575745e+001
8.715743e+002,1.661990e+001
8.725386e+002,1.831076e+001
8.735028e+002,1.898315e+001
8.744670e+002,1.677341e+001
8.754313e+002,1.330777e+001
8.763955e+002,1.190182e+001
8.773597e+002,1.412277e+001
8.783240e+002,1.714148e+001
8.792882e+002,1.955176e+001
8.802524e+002,2.117828e+001
8.812167e+002,2.149435e+001
8.821809e+002,2.065503e+001
8.831451e+002,1.951978e+001
8.841094e+002,1.922476e+001
8.850736e+002,1.988275e+001
8.860378e+002,2.055676e+001
8.870021e+002,2.096439e+001
8.879663e+002,2.189749e+001
8.889305e+002,2.456332e+001
8.898948e+002,2.826047e+001
8.908590e+002,2.936758e+001
8.918232e+002,2.541507e+001
8.927875e+002,2.282840e+001
8.937517e+002,2.370648e+001
8.947159e+002,2.578299e+001
8.956802e+002,2.704202e+001
8.966444e+002,2.699332e+001
8.976086e+002,2.681903e+001
8.985729e+002,2.824454e+001
8.995371e+002,3.007651e+001
9.005013e+002,2.953067e+001
9.014656e+002,2.720215e+001
9.024298e+002,2.592047e+001
9.033940e+002,2.786026e+001
9.043583e+002,3.238568e+001
9.053225e+002,3.542148e+001
9.062867e+002,3.630667e+001
9.072510e+002,3.602145e+001
9.082152e+002,3.399329e+001
9.091794e+002,3.155811e+001
9.101437e+002,2.982431e+001
9.111079e+002,2.894708e+001
9.120721e+002,2.874567e+001
9.130364e+002,2.985031e+001
9.140006e+002,3.069397e+001
9.149648e+002,3.023889e+001
9.159291e+002,2.901730e+001
9.168933e+002,2.796445e+001
9.178575e+002,2.767368e+001
9.188218e+002,2.804810e+001
9.197860e+002,2.939828e+001
9.207502e+002,3.173883e+001
9.217145e+002,3.257742e+001
9.226787e+002,3.079562e+001
9.236429e+002,2.830896e+001
9.246072e+002,2.758014e+001
9.255714e+002,2.878693e+001
9.265356e+002,3.016470e+001
9.274999e+002,3.257190e+001
9.284641e+002,3.371347e+001
9.294283e+002,3.187665e+001
9.303926e+002,2.852069e+001
9.313568e+002,2.634091e+001
9.323210e+002,2.678296e+001
9.332853e+002,2.794675e+001
9.342495e+002,2.652533e+001
9.352137e+002,2.375757e+001
9.361780e+002,2.145264e+001
9.371422e+002,2.013760e+001
9.381064e+002,1.959845e+001
9.390707e+002,1.936832e+001
9.400349e+002,1.917862e+001
9.409991e+002,2.003690e+001
9.419634e+002,2.352432e+001
9.429276e+002,2.582742e+001
9.438918e+002,2.513037e+001
9.448561e+002,2.295441e+001
9.458203e+002,2.219473e+001
9.467845e+002,2.408685e+001
9.477488e+002,2.542279e+001
9.487130e+002,2.242462e+001
9.496772e+002,1.876563e+001
9.506415e+002,1.743799e+001
9.516057e+002,1.848273e+001
9.525699e+002,2.007028e+001
9.535342e+002,2.036884e+001
9.544984e+002,1.961417e+001
9.554626e+002,2.078601e+001
9.564269e+002,2.481717e+001
9.573911e+002,2.737128e+001
9.583553e+002,2.631555e+001
9.593196e+002,2.343747e+001
9.602838e+002,2.146921e+001
9.612480e+002,2.043579e+001
9.622123e+002,2.047433e+001
9.631765e+002,2.288812e+001
9.641407e+002,2.520682e+001
9.651050e+002,2.637564e+001
9.660692e+002,2.638721e+001
9.670334e+002,2.561401e+001
9.679977e+002,2.436252e+001
9.689619e+002,2.294775e+001
9.699261e+002,2.140408e+001
9.708904e+002,1.983356e+001
9.718546e+002,1.911780e+001
9.728188e+002,1.941467e+001
9.737831e+002,2.046054e+001
9.747473e+002,2.211942e+001
9.757115e+002,2.460931e+001
9.766758e+002,2.683017e+001
9.776400e+002,2.950153e+001
9.786042e+002,3.128894e+001
9.795685e+002,3.114685e+001
9.805327e+002,3.000275e+001
9.814969e+002,2.959140e+001
9.824612e+002,3.060751e+001
9.834254e+002,3.085913e+001
9.843896e+002,2.636356e+001
9.853539e+002,2.072626e+001
9.863181e+002,1.813284e+001
9.872823e+002,1.840363e+001
9.882466e+002,1.922266e+001
9.892108e+002,1.878821e+001
9.901750e+002,1.756540e+001
9.911393e+002,1.738754e+001
9.921035e+002,1.836096e+001
9.930677e+002,1.941406e+001
9.940320e+002,2.131516e+001
9.949962e+002,2.298868e+001
9.959604e+002,2.259271e+001
9.969247e+002,2.025381e+001
9.978889e+002,2.015558e+001
9.988531e+002,2.615820e+001
9.998174e+002,3.212094e+001
1.000782e+003,3.405566e+001
1.001746e+003,3.386151e+001
1.002710e+003,3.466864e+001
1.003674e+003,3.767883e+001
1.004639e+003,4.103625e+001
1.005603e+003,4.131284e+001
1.006567e+003,3.808618e+001
1.007531e+003,3.682437e+001
1.008495e+003,3.857043e+001
1.009460e+003,4.015323e+001
1.010424e+003,3.936249e+001
1.011388e+003,3.688184e+001
1.012352e+003,3.549884e+001
1.013317e+003,3.643796e+001
1.014281e+003,3.636880e+001
1.015245e+003,3.328619e+001
1.016209e+003,2.974020e+001
1.017174e+003,2.773550e+001
1.018138e+003,2.728189e+001
1.019102e+003,2.704739e+001
1.020066e+003,2.603839e+001
1.021031e+003,2.443433e+001
1.021995e+003,2.208658e+001
1.022959e+003,1.904431e+001
1.023923e+003,1.654160e+001
1.024887e+003,1.490741e+001
1.025852e+003,1.404337e+001
1.026816e+003,1.420447e+001
1.027780e+003,1.602609e+001
1.028744e+003,1.643344e+001
1.029709e+003,1.372113e+001
1.030673e+003,1.124182e+001
1.031637e+003,1.024829e+001
1.032601e+003,9.871277e+000
1.033566e+003,8.786255e+000
1.034530e+003,6.586060e+000
1.035494e+003,4.244446e+000
1.036458e+003,2.440979e+000
1.037422e+003,1.364777e+000
1.038387e+003,1.397217e+000
1.039351e+003,2.462891e+000
1.040315e+003,4.329590e+000
1.041279e+003,7.115723e+000
1.042244e+003,1.038150e+001
1.043208e+003,1.149213e+001
1.044172e+003,8.384827e+000
1.045136e+003,6.242859e+000
1.046101e+003,5.506439e+000
1.047065e+003,5.507263e+000
1.048029e+003,6.285950e+000
1.048993e+003,7.410858e+000
1.049958e+003,7.572174e+000
1.050922e+003,5.744659e+000
1.051886e+003,4.149231e+000
1.052850e+003,5.488037e+000
1.053814e+003,8.115417e+000
1.054779e+003,1.016034e+001
1.055743e+003,1.108719e+001
1.056707e+003,1.111282e+001
1.057671e+003,1.048102e+001
1.058636e+003,9.154449e+000
1.059600e+003,7.658417e+000
1.060564e+003,5.572296e+000
1.061528e+003,4.305756e+000
1.062493e+003,4.079590e+000
1.063457e+003,4.457581e+000
1.064421e+003,5.345825e+000
1.065385e+003,6.752991e+000
1.066349e+003,7.698029e+000
1.067314e+003,7.186615e+000
1.068278e+003,6.678650e+000
1.069242e+003,7.396484e+000
1.070206e+003,8.830383e+000
1.071171e+003,1.005646e+001
1.072135e+003,1.062631e+001
1.073099e+003,1.085663e+001
1.074063e+003,1.142654e+001
1.075028e+003,1.247208e+001
1.075992e+003,1.275229e+001
1.076956e+003,1.206766e+001
1.077920e+003,1.089032e+001
1.078885e+003,9.579895e+000
1.079849e+003,8.043427e+000
1.080813e+003,5.477905e+000
1.081777e+003,1.300140e+000
1.082741e+003,-1.092590e+000
1.083706e+003,1.627350e+000
1.084670e+003,4.993378e+000
1.085634e+003,7.163391e+000
1.086598e+003,7.962311e+000
1.087563e+003,7.472046e+000
1.088527e+003,5.901154e+000
1.089491e+003,3.880554e+000
1.090455e+003,2.297211e+000
1.091420e+003,1.080933e+000
1.092384e+003,1.399689e+000
1.093348e+003,3.923981e+000
1.094312e+003,6.492737e+000
1.095276e+003,8.098419e+000
1.096241e+003,8.965881e+000
1.097205e+003,9.487793e+000
1.098169e+003,9.661194e+000
1.099133e+003,9.238739e+000
1.100098e+003,7.888184e+000
1.101062e+003,6.340698e+000
1.102026e+003,4.565979e+000
1.102990e+003,3.045410e+000
1.103955e+003,2.836060e+000
1.104919e+003,4.505219e+000
1.105883e+003,6.786591e+000
1.106847e+003,6.822205e+000
1.107812e+003,4.566467e+000
1.108776e+003,3.861206e+000
1.109740e+003,5.520874e+000
1.110704e+003,7.381378e+000
1.111668e+003,7.837036e+000
1.112633e+003,7.354553e+000
1.113597e+003,7.598999e+000
1.114561e+003,8.902191e+000
1.115525e+003,1.021393e+001
1.116490e+003,1.114041e+001
1.117454e+003,1.197739e+001
1.118418e+003,1.326511e+001
1.119382e+003,1.478488e+001
1.120347e+003,1.572061e+001
1.121311e+003,1.545447e+001
1.122275e+003,1.438657e+001
1.123239e+003,1.366589e+001
1.124203e+003,1.348239e+001
1.125168e+003,1.346463e+001
1.126132e+003,1.353445e+001
1.127096e+003,1.404373e+001
1.128060e+003,1.532031e+001
1.129025e+003,1.716959e+001
1.129989e+003,1.899329e+001
1.130953e+003,2.097528e+001
1.131917e+003,2.220828e+001
1.132882e+003,2.193506e+001
1.133846e+003,2.159973e+001
1.134810e+003,2.208722e+001
1.135774e+003,2.328513e+001
1.136739e+003,2.456882e+001
1.137703e+003,2.558014e+001
1.138667e+003,2.672589e+001
1.139631e+003,2.882770e+001
1.140595e+003,3.179819e+001
1.141560e+003,3.483328e+001
1.142524e+003,3.791449e+001
1.143488e+003,4.146280e+001
1.144452e+003,4.593784e+001
1.145417e+003,5.105603e+001
1.146381e+003,5.547510e+001
1.147345e+003,5.805396e+001
1.148309e+003,6.289630e+001
1.149274e+003,7.273883e+001
1.150238e+003,8.326859e+001
1.151202e+003,9.272769e+001
1.152166e+003,1.012728e+002
1.153130e+003,1.099380e+002
1.154095e+003,1.189388e+002
1.155059e+003,1.265439e+002
1.156023e+003,1.304279e+002
1.156987e+003,1.307758e+002
1.157952e+003,1.303425e+002
1.158916e+003,1.296226e+002
1.159880e+003,1.273182e+002
1.160844e+003,1.220974e+002
1.161809e+003,1.144451e+002
1.162773e+003,1.056792e+002
1.163737e+003,9.548914e+001
1.164701e+003,8.571289e+001
1.165666e+003,7.647842e+001
1.166630e+003,6.837894e+001
1.167594e+003,6.175809e+001
1.168558e+003,5.632449e+001
1.169522e+003,5.153912e+001
1.170487e+003,4.734689e+001
1.171451e+003,4.470251e+001
1.172415e+003,4.493848e+001
1.173379e+003,4.721667e+001
1.174344e+003,4.702994e+001
1.175308e+003,4.432391e+001
1.176272e+003,4.213547e+001
1.177236e+003,4.222311e+001
1.178201e+003,4.280573e+001
1.179165e+003,4.101541e+001
1.180129e+003,3.669376e+001
1.181093e+003,3.385434e+001
1.182057e+003,3.484329e+001
1.183022e+003,3.528934e+001
1.183986e+003,3.265140e+001
1.184950e+003,2.942676e+001
1.185914e+003,2.792929e+001
1.186879e+003,2.847943e+001
1.187843e+003,3.025363e+001
1.188807e+003,3.257916e+001
1.189771e+003,3.495419e+001
1.190736e+003,3.593405e+001
1.191700e+003,3.534210e+001
1.192664e+003,3.488980e+001
1.193628e+003,3.493900e+001
1.194593e+003,3.506003e+001
1.195557e+003,3.487311e+001
1.196521e+003,3.445325e+001
1.197485e+003,3.435590e+001
1.198449e+003,3.514774e+001
1.199414e+003,3.479190e+001
1.200378e+003,3.104150e+001
1.201342e+003,2.708157e+001
1.202306e+003,2.485193e+001
1.203271e+003,2.395190e+001
1.204235e+003,2.335611e+001
1.205199e+003,2.249335e+001
1.206163e+003,2.112186e+001
1.207128e+003,1.863678e+001
1.208092e+003,1.493741e+001
1.209056e+003,1.351321e+001
1.210020e+003,1.545941e+001
1.210984e+003,1.706064e+001
1.211949e+003,1.754404e+001
1.212913e+003,1.688522e+001
1.213877e+003,1.477612e+001
1.214841e+003,1.131009e+001
1.215806e+003,7.971710e+000
1.216770e+003,5.160645e+000
1.217734e+003,2.827454e+000
1.218698e+003,8.133545e-001
1.219663e+003,-9.142761e-001
1.220627e+003,-2.476379e+000
1.221591e+003,-3.800873e+000
1.222555e+003,-4.443237e+000
1.223520e+003,-3.923676e+000
1.224484e+003,-2.573944e+000
1.225448e+003,-2.266571e+000
1.226412e+003,-3.688843e+000
1.227376e+003,-4.757568e+000
1.228341e+003,-5.326843e+000
1.229305e+003,-5.818146e+000
1.230269e+003,-6.415741e+000
1.231233e+003,-7.121674e+000
1.232198e+003,-8.080841e+000
1.233162e+003,-9.326279e+000
1.234126e+003,-9.681915e+000
1.235090e+003,-7.354858e+000
1.236055e+003,-4.828644e+000
1.237019e+003,-5.216095e+000
1.237983e+003,-7.592133e+000
1.238947e+003,-9.244034e+000
1.239911e+003,-8.974640e+000
1.240876e+003,-7.741119e+000
1.241840e+003,-6.970490e+000
1.242804e+003,-6.666962e+000
1.243768e+003,-6.582092e+000
1.244733e+003,-6.783173e+000
1.245697e+003,-7.135986e+000
1.246661e+003,-8.454041e+000
1.247625e+003,-9.441544e+000
1.248590e+003,-8.636215e+000
1.249554e+003,-6.476135e+000
1.250518e+003,-4.750031e+000
1.251482e+003,-4.361450e+000
1.252447e+003,-4.340546e+000
1.253411e+003,-3.071106e+000
1.254375e+003,-1.379791e+000
1.255339e+003,-1.605988e+000
1.256303e+003,-3.651276e+000
1.257268e+003,-4.654602e+000
1.258232e+003,-2.782593e+000
1.259196e+003,4.620361e-001
1.260160e+003,2.357849e+000
1.261125e+003,2.910278e+000
1.262089e+003,2.760010e+000
1.263053e+003,5.110168e-001
1.264017e+003,-8.643799e-001
1.264982e+003,-8.773804e-002
1.265946e+003,1.524841e+000
1.266910e+003,2.982086e+000
1.267874e+003,3.998840e+000
1.268839e+003,4.653992e+000
1.269803e+003,5.006775e+000
1.270767e+003,4.906372e+000
1.271731e+003,3.874939e+000
1.272695e+003,2.030304e+000
1.273660e+003,1.004333e+000
1.274624e+003,9.861450e-001
1.275588e+003,8.024902e-001
1.276552e+003,-1.648560e-001
1.277517e+003,-1.476196e+000
1.278481e+003,-2.381348e+000
1.279445e+003,-2.830475e+000
1.280409e+003,-3.704590e+000
1.281374e+003,-6.012939e+000
1.282338e+003,-7.731339e+000
1.283302e+003,-7.181244e+000
1.284266e+003,-5.949860e+000
1.285230e+003,-5.949951e+000
1.286195e+003,-7.345276e+000
1.287159e+003,-9.084320e+000
1.288123e+003,-1.025685e+001
1.289087e+003,-1.046866e+001
1.290052e+003,-8.601166e+000
1.291016e+003,-3.417877e+000
1.291980e+003,-1.172668e+000
1.292944e+003,-3.890228e+000
1.293909e+003,-6.857544e+000
1.294873e+003,-8.430832e+000
1.295837e+003,-8.928497e+000
1.296801e+003,-8.636246e+000
1.297766e+003,-7.697235e+000
1.298730e+003,-6.868439e+000
1.299694e+003,-6.523346e+000
1.300658e+003,-6.698944e+000
1.301622e+003,-7.639404e+000
1.302587e+003,-8.879959e+000
1.303551e+003,-1.001138e+001
1.304515e+003,-1.080759e+001
1.305479e+003,-1.039452e+001
1.306444e+003,-7.845505e+000
1.307408e+003,-4.087982e+000
1.308372e+003,-2.164551e+000
1.309336e+003,-2.622253e+000
1.310301e+003,-3.307159e+000
1.311265e+003,-4.327850e+000
1.312229e+003,-5.134521e+000
1.313193e+003,-5.529816e+000
1.314157e+003,-5.707092e+000
1.315122e+003,-5.685181e+000
1.316086e+003,-5.671417e+000
1.317050e+003,-6.227158e+000
1.318014e+003,-7.708878e+000
1.318979e+003,-9.510345e+000
1.319943e+003,-1.088889e+001
1.320907e+003,-1.165065e+001
1.321871e+003,-1.077544e+001
1.322836e+003,-7.722504e+000
1.323800e+003,-5.432617e+000
1.324764e+003,-6.206451e+000
1.325728e+003,-8.278717e+000
1.326693e+003,-8.560120e+000
1.327657e+003,-7.004913e+000
1.328621e+003,-5.714050e+000
1.329585e+003,-4.834137e+000
1.330549e+003,-4.257874e+000
1.331514e+003,-4.881500e+000
1.332478e+003,-5.555939e+000
1.333442e+003,-4.520813e+000
1.334406e+003,-2.241547e+000
1.335371e+003,-9.140015e-001
1.336335e+003,-1.842499e+000
1.337299e+003,-3.911316e+000
1.338263e+003,-5.066467e+000
1.339228e+003,-5.221954e+000
1.340192e+003,-5.210449e+000
1.341156e+003,-4.534729e+000
1.342120e+003,-4.439514e+000
1.343084e+003,-5.935593e+000
1.344049e+003,-7.558578e+000
1.345013e+003,-8.139267e+000
1.345977e+003,-7.605804e+000
1.346941e+003,-6.133865e+000
1.347906e+003,-3.733063e+000
1.348870e+003,-1.283936e+000
1.349834e+003,8.577881e-001
1.350798e+003,1.972321e+000
1.351763e+003,4.628296e-001
1.352727e+003,-3.095856e+000
1.353691e+003,-5.440750e+000
1.354655e+003,-5.167267e+000
1.355620e+003,-4.067902e+000
1.356584e+003,-4.332092e+000
1.357548e+003,-5.714462e+000
1.358512e+003,-6.349991e+000
1.359476e+003,-6.123672e+000
1.360441e+003,-5.743301e+000
1.361405e+003,-4.660782e+000
1.362369e+003,-4.106445e+000
1.363333e+003,-5.395248e+000
1.364298e+003,-7.247345e+000
1.365262e+003,-7.561722e+000
1.366226e+003,-6.112030e+000
1.367190e+003,-4.841965e+000
1.368155e+003,-5.512924e+000
1.369119e+003,-7.274170e+000
1.370083e+003,-7.354568e+000
1.371047e+003,-5.074371e+000
1.372011e+003,-3.658508e+000
1.372976e+003,-3.540436e+000
1.373940e+003,-3.941101e+000
1.374904e+003,-5.249496e+000
1.375868e+003,-6.376923e+000
1.376833e+003,-5.508560e+000
1.377797e+003,-2.910278e+000
1.378761e+003,-1.220856e+000
1.379725e+003,-1.660522e+000
1.380690e+003,-2.846130e+000
1.381654e+003,-3.904373e+000
1.382618e+003,-4.484222e+000
1.383582e+003,-3.735474e+000
1.384547e+003,-1.848145e+000
1.385511e+003,-3.460999e-001
1.386475e+003,-9.588623e-002
1.387439e+003,-4.570923e-001
1.388403e+003,-2.810974e-001
1.389368e+003,4.137268e-001
1.390332e+003,3.875732e-002
1.391296e+003,-2.354767e+000
1.392260e+003,-3.782318e+000
1.393225e+003,-2.757080e+000
1.394189e+003,-1.638702e+000
1.395153e+003,-2.303406e+000
1.396117e+003,-3.520157e+000
1.397082e+003,-2.722931e+000
1.398046e+003,3.356934e-001
1.399010e+003,2.890656e+000
1.399974e+003,2.291840e+000
1.400938e+003,-5.798340e-001
1.401903e+003,-2.565430e+000
1.402867e+003,-3.149109e+000
1.403831e+003,-3.272156e+000
1.404795e+003,-3.179413e+000
1.405760e+003,-2.661835e+000
1.406724e+003,-1.635651e+000
1.407688e+003,-5.877991e-001
1.408652e+003,5.062256e-001
1.409617e+003,1.531250e+000
1.410581e+003,1.185730e+000
1.411545e+003,-1.400360e+000
1.412509e+003,-3.564636e+000
1.413474e+003,-2.073273e+000
1.414438e+003,8.647156e-001
1.415402e+003,1.747437e+000
1.416366e+003,8.866577e-001
1.417330e+003,3.454590e-002
1.418295e+003,-1.836243e-001
1.419259e+003,3.506470e-002
1.420223e+003,7.418823e-001
1.421187e+003,1.647888e+000
1.422152e+003,1.100220e+000
1.423116e+003,-1.705841e+000
1.424080e+003,-2.894043e+000
1.425044e+003,6.403809e-001
1.426009e+003,3.524231e+000
1.426973e+003,2.785461e+000
1.427937e+003,5.973206e-001
1.428901e+003,-4.692688e-001
1.429865e+003,-8.880615e-003
1.430830e+003,1.083496e+000
1.431794e+003,2.126282e+000
1.432758e+003,2.874512e+000
1.433722e+003,2.979156e+000
1.434687e+003,2.571930e+000
1.435651e+003,2.391571e+000
1.436615e+003,1.095337e+000
1.437579e+003,1.141998e+000
1.438544e+003,4.157928e+000
1.439508e+003,7.257050e+000
1.440472e+003,8.906311e+000
1.441436e+003,9.259644e+000
1.442401e+003,8.244812e+000
1.443365e+003,6.090454e+000
1.444329e+003,4.918915e+000
1.445293e+003,6.623993e+000
1.446257e+003,9.470642e+000
1.447222e+003,1.017056e+001
1.448186e+003,8.974915e+000
1.449150e+003,6.943695e+000
1.450114e+003,3.692322e+000
1.451079e+003,1.326630e+000
1.452043e+003,1.217377e+000
1.453007e+003,2.561554e+000
1.453971e+003,4.736664e+000
1.454936e+003,7.417328e+000
1.455900e+003,8.707977e+000
1.456864e+003,7.990234e+000
1.457828e+003,6.911987e+000
1.458792e+003,6.182434e+000
1.459757e+003,5.503235e+000
1.460721e+003,4.542572e+000
1.461685e+003,3.478821e+000
1.462649e+003,2.644073e+000
1.463614e+003,2.206604e+000
1.464578e+003,2.348877e+000
1.465542e+003,3.325836e+000
1.466506e+003,4.634003e+000
1.467471e+003,4.869568e+000
1.468435e+003,3.950134e+000
1.469399e+003,3.138397e+000
1.470363e+003,1.689117e+000
1.471328e+003,1.242615e+000
1.472292e+003,2.598297e+000
1.473256e+003,4.355255e+000
1.474220e+003,6.414246e+000
1.475184e+003,8.089050e+000
1.476149e+003,7.747131e+000
1.477113e+003,5.179657e+000
1.478077e+003,2.590240e+000
1.479041e+003,2.213348e+000
1.480006e+003,3.771271e+000
1.480970e+003,6.243774e+000
1.481934e+003,1.022070e+001
1.482898e+003,1.180215e+001
1.483863e+003,9.383759e+000
1.484827e+003,7.050629e+000
1.485791e+003,5.525482e+000
1.486755e+003,5.044678e+000
1.487719e+003,6.074036e+000
1.488684e+003,8.120728e+000
1.489648e+003,1.029944e+001
1.490612e+003,1.235269e+001
1.491576e+003,1.376083e+001
1.492541e+003,1.373596e+001
1.493505e+003,1.325809e+001
1.494469e+003,1.476831e+001
1.495433e+003,1.778000e+001
1.496398e+003,2.034644e+001
1.497362e+003,2.245001e+001
1.498326e+003,2.418037e+001
1.499290e+003,2.532332e+001
1.500255e+003,2.624725e+001
1.501219e+003,2.693942e+001
1.502183e+003,2.766547e+001
1.503147e+003,3.019318e+001
1.504111e+003,3.515851e+001
1.505076e+003,4.066031e+001
1.506040e+003,4.596028e+001
1.507004e+003,5.099113e+001
1.507968e+003,5.516957e+001
1.508933e+003,5.922365e+001
1.509897e+003,6.463669e+001
1.510861e+003,7.188986e+001
1.511825e+003,8.052332e+001
1.512790e+003,9.013483e+001
1.513754e+003,1.006240e+002
1.514718e+003,1.124044e+002
1.515682e+003,1.253168e+002
1.516646e+003,1.370581e+002
1.517611e+003,1.474692e+002
1.518575e+003,1.570455e+002
1.519539e+003,1.661427e+002
1.520503e+003,1.745311e+002
1.521468e+003,1.835320e+002
1.522432e+003,1.908490e+002
1.523396e+003,1.928055e+002
1.524360e+003,1.895591e+002
1.525325e+003,1.845638e+002
1.526289e+003,1.801634e+002
1.527253e+003,1.762736e+002
1.528217e+003,1.729637e+002
1.529182e+003,1.703969e+002
1.530146e+003,1.644628e+002
1.531110e+003,1.538293e+002
1.532074e+003,1.418747e+002
1.533039e+003,1.285367e+002
1.534003e+003,1.138672e+002
1.534967e+003,9.621913e+001
1.535931e+003,7.899904e+001
1.536896e+003,6.603050e+001
1.537860e+003,5.725601e+001
1.538824e+003,5.027585e+001
1.539788e+003,4.370700e+001
1.540752e+003,3.770880e+001
1.541717e+003,3.256412e+001
1.542681e+003,2.831818e+001
1.543645e+003,2.465315e+001
1.544609e+003,2.191624e+001
1.545573e+003,1.932747e+001
1.546538e+003,1.582243e+001
1.547502e+003,1.345004e+001
1.548466e+003,1.411810e+001
1.549430e+003,1.566876e+001
1.550395e+003,1.570416e+001
1.551359e+003,1.445383e+001
1.552323e+003,1.362033e+001
1.553287e+003,1.377455e+001
1.554252e+003,1.365367e+001
1.555216e+003,1.202696e+001
1.556180e+003,9.654984e+000
1.557144e+003,8.283051e+000
1.558109e+003,8.017120e+000
1.559073e+003,8.223267e+000
1.560037e+003,9.125244e+000
1.561001e+003,9.546997e+000
1.561966e+003,8.886658e+000
1.562930e+003,8.165237e+000
1.563894e+003,8.280899e+000
1.564858e+003,8.926010e+000
1.565823e+003,9.549393e+000
1.566787e+003,9.969788e+000
1.567751e+003,9.490570e+000
1.568715e+003,7.441864e+000
1.569679e+003,5.342590e+000
1.570644e+003,5.046600e+000
1.571608e+003,6.100433e+000
1.572572e+003,7.744003e+000
1.573536e+003,1.008662e+001
1.574500e+003,1.106804e+001
1.575465e+003,9.211868e+000
1.576429e+003,6.957275e+000
1.577393e+003,6.057220e+000
1.578357e+003,6.138245e+000
1.579322e+003,6.886871e+000
1.580286e+003,8.201508e+000
1.581250e+003,8.709686e+000
1.582214e+003,7.647934e+000
1.583179e+003,7.022507e+000
1.584143e+003,8.678726e+000
1.585107e+003,1.111467e+001
1.586071e+003,1.256223e+001
1.587036e+003,1.334033e+001
1.588000e+003,1.398053e+001
1.588964e+003,1.450760e+001
1.589928e+003,1.472827e+001
1.590893e+003,1.439807e+001
1.591857e+003,1.385255e+001
1.592821e+003,1.353627e+001
1.593785e+003,1.347505e+001
1.594750e+003,1.368568e+001
1.595714e+003,1.413000e+001
1.596678e+003,1.475067e+001
1.597642e+003,1.595877e+001
1.598606e+003,1.671448e+001
1.599571e+003,1.543274e+001
1.600535e+003,1.376822e+001
1.601499e+003,1.422908e+001
1.602463e+003,1.648485e+001
1.603427e+003,1.807625e+001
1.604392e+003,1.799979e+001
1.605356e+003,1.718658e+001
1.606320e+003,1.608539e+001
1.607284e+003,1.514847e+001
1.608249e+003,1.610287e+001
1.609213e+003,1.904752e+001
1.610177e+003,2.069037e+001
1.611141e+003,2.044106e+001
1.612106e+003,1.899611e+001
1.613070e+003,1.496156e+001
1.614034e+003,1.141440e+001
1.614998e+003,1.099844e+001
1.615963e+003,1.248047e+001
1.616927e+003,1.385794e+001
1.617891e+003,1.467007e+001
1.618855e+003,1.514587e+001
1.619820e+003,1.541096e+001
1.620784e+003,1.504176e+001
1.621748e+003,1.294267e+001
1.622712e+003,9.863083e+000
1.623677e+003,9.930084e+000
1.624641e+003,1.393677e+001
1.625605e+003,1.657593e+001
1.626569e+003,1.547043e+001
1.627533e+003,1.426889e+001
1.628498e+003,1.560278e+001
1.629462e+003,1.716039e+001
1.630426e+003,1.632845e+001
1.631390e+003,1.424080e+001
1.632354e+003,1.391856e+001
1.633319e+003,1.590302e+001
1.634283e+003,1.768188e+001
1.635247e+003,1.729443e+001
1.636211e+003,1.588077e+001
1.637176e+003,1.567831e+001
1.638140e+003,1.662952e+001
1.639104e+003,1.685194e+001
1.640068e+003,1.603563e+001
1.641033e+003,1.522237e+001
1.641997e+003,1.452467e+001
1.642961e+003,1.422668e+001
1.643925e+003,1.463345e+001
1.644890e+003,1.529858e+001
1.645854e+003,1.586978e+001
1.646818e+003,1.625937e+001
1.647782e+003,1.638629e+001
1.648747e+003,1.623314e+001
1.649711e+003,1.605327e+001
1.650675e+003,1.622108e+001
1.651639e+003,1.639415e+001
1.652604e+003,1.543011e+001
1.653568e+003,1.332742e+001
1.654532e+003,1.212213e+001
1.655496e+003,1.198056e+001
1.656460e+003,1.258075e+001
1.657425e+003,1.487646e+001
1.658389e+003,1.658467e+001
1.659353e+003,1.609544e+001
1.660317e+003,1.472505e+001
1.661281e+003,1.357774e+001
1.662246e+003,1.281693e+001
1.663210e+003,1.269379e+001
1.664174e+003,1.328159e+001
1.665138e+003,1.354736e+001
1.666103e+003,1.236945e+001
1.667067e+003,1.054028e+001
1.668031e+003,9.850540e+000
1.668995e+003,1.023885e+001
1.669960e+003,1.012749e+001
1.670924e+003,9.105392e+000
1.671888e+003,9.131897e+000
1.672852e+003,1.191940e+001
1.673817e+003,1.413757e+001
1.674781e+003,1.305997e+001
1.675745e+003,1.080032e+001
1.676709e+003,9.318390e+000
1.677674e+003,8.752853e+000
1.678638e+003,9.005753e+000
1.679602e+003,1.003828e+001
1.680566e+003,1.100258e+001
1.681531e+003,1.144730e+001
1.682495e+003,1.133167e+001
1.683459e+003,1.012714e+001
1.684423e+003,8.011078e+000
1.685387e+003,6.590332e+000
1.686352e+003,6.078690e+000
1.687316e+003,6.093567e+000
1.688280e+003,6.871231e+000
1.689244e+003,7.459122e+000
1.690208e+003,6.779175e+000
1.691173e+003,5.719315e+000
1.692137e+003,5.242828e+000
1.693101e+003,5.368576e+000
1.694065e+003,5.810013e+000
1.695030e+003,6.408783e+000
1.695994e+003,6.786438e+000
1.696958e+003,6.932022e+000
1.697922e+003,6.599243e+000
1.698887e+003,5.094757e+000
1.699851e+003,2.948685e+000
1.700815e+003,1.756805e+000
1.701779e+003,1.584961e+000
1.702744e+003,1.275650e+000
1.703708e+003,3.905029e-001
1.704672e+003,2.481079e-001
1.705636e+003,2.400406e+000
1.706601e+003,4.860413e+000
1.707565e+003,4.238998e+000
1.708529e+003,1.739822e+000
1.709493e+003,1.095642e+000
1.710458e+003,2.918472e+000
1.711422e+003,4.604980e+000
1.712386e+003,5.286148e+000
1.713350e+003,5.423889e+000
1.714314e+003,5.012115e+000
1.715279e+003,4.290848e+000
1.716243e+003,3.595505e+000
1.717207e+003,3.086273e+000
1.718171e+003,3.561935e+000
1.719135e+003,5.266861e+000
1.720100e+003,5.872635e+000
1.721064e+003,3.430420e+000
1.722028e+003,8.094788e-002
1.722992e+003,-1.058716e+000
1.723957e+003,-1.652985e-001
1.724921e+003,1.031906e+000
1.725885e+003,2.414169e+000
1.726849e+003,3.516281e+000
1.727814e+003,5.035126e+000
1.728778e+003,5.680634e+000
1.729742e+003,3.783707e+000
1.730706e+003,1.680786e+000
1.731671e+003,1.989914e+000
1.732635e+003,3.538437e+000
1.733599e+003,3.817703e+000
1.734563e+003,2.593353e+000
1.735528e+003,1.157593e+000
1.736492e+003,1.394043e-001
1.737456e+003,-3.866882e-001
1.738420e+003,-2.519531e-001
1.739385e+003,1.770325e-001
1.740349e+003,-1.776276e-001
1.741313e+003,-1.615677e+000
1.742277e+003,-1.834564e+000
1.743241e+003,6.460419e-001
1.744206e+003,2.147415e+000
1.745170e+003,1.653625e+000
1.746134e+003,5.894775e-001
1.747098e+003,-8.850403e-001
1.748063e+003,-2.058868e+000
1.749027e+003,-1.952713e+000
1.749991e+003,-8.876953e-001
1.750955e+003,1.304016e-001
1.751919e+003,6.758423e-001
1.752884e+003,8.686523e-001
1.753848e+003,8.042145e-001
1.754812e+003,5.173950e-001
1.755776e+003,1.429443e-001
1.756741e+003,-2.104187e-001
1.757705e+003,-4.130707e-001
1.758669e+003,-4.683075e-001
1.759633e+003,-6.658630e-001
1.760598e+003,-1.606766e+000
1.761562e+003,-2.028763e+000
1.762526e+003,-8.188934e-001
1.763490e+003,4.884033e-001
1.764455e+003,7.852478e-001
1.765419e+003,5.012360e-001
1.766383e+003,3.217773e-001
1.767347e+003,2.809906e-001
1.768312e+003,8.453369e-002
1.769276e+003,-4.410706e-001
1.770240e+003,-1.183563e+000
1.771204e+003,-2.025482e+000
1.772168e+003,-2.650482e+000
1.773133e+003,-2.451538e+000
1.774097e+003,-1.529861e+000
1.775061e+003,-8.215027e-001
1.776025e+003,-5.161591e-001
1.776990e+003,-6.213531e-001
1.777954e+003,-1.137619e+000
1.778918e+003,-1.676376e+000
1.779882e+003,-2.244003e+000
1.780846e+003,-2.668488e+000
1.781811e+003,-2.583160e+000
1.782775e+003,-2.040726e+000
1.783739e+003,-1.183411e+000
1.784703e+003,7.304382e-002
1.785668e+003,9.133606e-001
1.786632e+003,7.618103e-001
1.787596e+003,1.204376e-001
1.788560e+003,-7.500153e-001
1.789525e+003,-1.499710e+000
1.790489e+003,-1.687424e+000
1.791453e+003,-1.537109e+000
1.792417e+003,-1.766403e+000
1.793382e+003,-2.434525e+000
1.794346e+003,-2.675232e+000
1.795310e+003,-2.040527e+000
1.796274e+003,-7.599182e-001
1.797239e+003,1.235870e+000
1.798203e+003,3.409836e+000
1.799167e+003,3.417435e+000
1.800131e+003,5.360107e-001
1.801095e+003,-1.370621e+000
1.802060e+003,-1.604507e+000
1.803024e+003,-1.606583e+000
1.803988e+003,-1.526901e+000
1.804952e+003,-1.394867e+000
1.805917e+003,-1.393539e+000
1.806881e+003,-1.210251e+000
1.807845e+003,-1.853638e-001
1.808809e+003,1.223145e+000
1.809773e+003,1.994461e+000
1.810738e+003,1.955841e+000
1.811702e+003,1.761322e+000
1.812666e+003,1.809677e+000
1.813630e+003,1.799286e+000
1.814595e+003,1.173660e+000
1.815559e+003,3.159027e-001
1.816523e+003,1.530807e+000
1.817487e+003,5.290100e+000
1.818452e+003,5.740463e+000
1.819416e+003,1.206955e+000
1.820380e+003,-2.217712e+000
1.821344e+003,-2.649078e+000
1.822309e+003,-2.177216e+000
1.823273e+003,-1.608734e+000
1.824237e+003,-9.484253e-001
1.825201e+003,6.422424e-002
1.826166e+003,1.003220e+000
1.827130e+003,7.016907e-001
1.828094e+003,-1.044388e+000
1.829058e+003,-2.907410e+000
1.830022e+003,-4.510788e+000
1.830987e+003,-5.303650e+000
1.831951e+003,-4.198959e+000
1.832915e+003,-2.460815e+000
1.833879e+003,-2.185135e+000
1.834844e+003,-2.862259e+000
1.835808e+003,-2.640717e+000
1.836772e+003,-1.276108e+000
1.837736e+003,3.416290e-001
1.838700e+003,1.794235e+000
1.839665e+003,2.726624e+000
1.840629e+003,2.846924e+000
1.841593e+003,2.326080e+000
1.842557e+003,1.338333e+000
1.843522e+003,-1.089478e-001
1.844486e+003,-1.072113e+000
1.845450e+003,-1.256973e+000
1.846414e+003,-1.202179e+000
1.847379e+003,-6.016541e-001
1.848343e+003,-5.759125e-001
1.849307e+003,-2.252625e+000
1.850271e+003,-3.645676e+000
1.851236e+003,-2.747375e+000
1.852200e+003,-9.283142e-001
1.853164e+003,-5.585938e-001
1.854128e+003,-1.476303e+000
1.855093e+003,-1.548004e+000
1.856057e+003,1.243591e-002
1.857021e+003,1.571777e+000
1.857985e+003,1.730789e+000
1.858949e+003,9.171295e-001
1.859914e+003,-6.398926e-001
1.860878e+003,-2.518661e+000
1.861842e+003,-2.080215e+000
1.862806e+003,7.211914e-001
1.863771e+003,2.196564e+000
1.864735e+003,1.332352e+000
1.865699e+003,8.631439e-001
1.866663e+003,2.437820e+000
1.867627e+003,4.085831e+000
1.868592e+003,3.718063e+000
1.869556e+003,2.272552e+000
1.870520e+003,1.898804e+000
1.871484e+003,2.350540e+000
1.872449e+003,1.945374e+000
1.873413e+003,5.249023e-001
1.874377e+003,-4.339447e-001
1.875341e+003,-1.003891e+000
1.876306e+003,-9.632263e-001
1.877270e+003,4.083252e-001
1.878234e+003,1.832458e+000
1.879198e+003,1.820663e+000
1.880163e+003,1.075928e+000
1.881127e+003,1.087616e+000
1.882091e+003,1.924561e+000
1.883055e+003,2.779465e+000
1.884020e+003,3.218643e+000
1.884984e+003,2.800766e+000
1.885948e+003,1.063858e+000
1.886912e+003,-8.416290e-001
1.887876e+003,-4.882355e-001
1.888841e+003,1.947556e+000
1.889805e+003,4.336929e+000
1.890769e+003,6.968292e+000
1.891733e+003,7.888077e+000
1.892698e+003,6.223038e+000
1.893662e+003,4.265213e+000
1.894626e+003,2.493210e+000
1.895590e+003,1.131226e+000
1.896554e+003,6.448669e-001
1.897519e+003,5.431213e-001
1.898483e+003,-1.427612e-001
1.899447e+003,-1.128998e+000
1.900411e+003,-7.621002e-001
1.901376e+003,1.386322e+000
1.902340e+003,2.689224e+000
1.903304e+003,1.363174e+000
1.904268e+003,1.734467e-001
1.905233e+003,1.651642e+000
1.906197e+003,3.367249e+000
1.907161e+003,2.322510e+000
1.908125e+003,-3.890991e-002
1.909090e+003,-1.026031e+000
1.910054e+003,-6.039429e-001
1.911018e+003,-9.947205e-002
1.911982e+003,7.060242e-002
1.912947e+003,4.077148e-001
1.913911e+003,1.250717e+000
1.914875e+003,2.120209e+000
1.915839e+003,2.202744e+000
1.916803e+003,1.581223e+000
1.917768e+003,1.014359e+000
1.918732e+003,4.523621e-001
1.919696e+003,9.099426e-001
1.920660e+003,3.007050e+000
1.921625e+003,4.603699e+000
1.922589e+003,5.241119e+000
1.923553e+003,5.141098e+000
1.924517e+003,3.682922e+000
1.925481e+003,2.213837e+000
1.926446e+003,2.065491e+000
1.927410e+003,2.716553e+000
1.928374e+003,2.972122e+000
1.929338e+003,2.750977e+000
1.930303e+003,3.158386e+000
1.931267e+003,4.969559e+000
1.932231e+003,6.391479e+000
1.933195e+003,6.185135e+000
1.934160e+003,5.578568e+000
1.935124e+003,5.427170e+000
1.936088e+003,5.346329e+000
1.937052e+003,5.185272e+000
1.938017e+003,4.747147e+000
1.938981e+003,3.122116e+000
1.939945e+003,6.580353e-001
1.940909e+003,-5.046387e-001
1.941874e+003,4.678345e-001
1.942838e+003,1.870605e+000
1.943802e+003,2.232635e+000
1.944766e+003,1.982437e+000
1.945730e+003,1.674454e+000
1.946695e+003,1.268066e+000
1.947659e+003,1.048676e+000
1.948623e+003,9.716492e-001
1.949587e+003,1.313171e+000
1.950552e+003,2.290359e+000
1.951516e+003,3.241241e+000
1.952480e+003,4.246002e+000
1.953444e+003,4.453644e+000
1.954408e+003,2.301193e+000
1.955373e+003,-1.560974e-001
1.956337e+003,8.114319e-001
1.957301e+003,4.102280e+000
1.958265e+003,5.083313e+000
1.959230e+003,3.262192e+000
1.960194e+003,2.668427e+000
1.961158e+003,4.479355e+000
1.962122e+003,6.212616e+000
1.963087e+003,7.765244e+000
1.964051e+003,8.494522e+000
1.965015e+003,7.631912e+000
1.965979e+003,6.340591e+000
1.966944e+003,5.368896e+000
1.967908e+003,4.856354e+000
1.968872e+003,5.117264e+000
1.969836e+003,5.949905e+000
1.970801e+003,6.479111e+000
1.971765e+003,6.353363e+000
1.972729e+003,5.985382e+000
1.973693e+003,5.572128e+000
1.974657e+003,5.516449e+000
1.975622e+003,6.981842e+000
1.976586e+003,9.004639e+000
1.977550e+003,8.660416e+000
1.978514e+003,6.466492e+000
1.979479e+003,5.348022e+000
1.980443e+003,5.710953e+000
1.981407e+003,7.157593e+000
1.982371e+003,9.700989e+000
1.983335e+003,1.099022e+001
1.984300e+003,8.893539e+000
1.985264e+003,6.047745e+000
1.986228e+003,6.882477e+000
1.987192e+003,1.026288e+001
1.988157e+003,1.004298e+001
1.989121e+003,4.938217e+000
1.990085e+003,3.264801e+000
1.991049e+003,7.663559e+000
1.992014e+003,1.027618e+001
1.992978e+003,8.604858e+000
1.993942e+003,7.042740e+000
1.994906e+003,6.970840e+000
1.995871e+003,7.653931e+000
1.996835e+003,9.140686e+000
1.997799e+003,1.076591e+001
1.998763e+003,1.157260e+001
1.999728e+003,1.152873e+001
