5.003444e+002,3.588428e+001
5.013087e+002,3.639413e+001
5.022729e+002,3.677515e+001
5.032371e+002,3.683760e+001
5.042014e+002,3.526033e+001
5.051656e+002,3.240440e+001
5.061298e+002,3.011766e+001
5.070941e+002,3.015794e+001
5.080583e+002,3.308710e+001
5.090225e+002,3.473819e+001
5.099868e+002,3.505092e+001
5.109510e+002,3.464580e+001
5.119152e+002,3.340126e+001
5.128795e+002,3.123911e+001
5.138437e+002,3.002791e+001
5.148079e+002,3.142380e+001
5.157722e+002,3.302281e+001
5.167364e+002,3.413574e+001
5.177006e+002,3.442003e+001
5.186649e+002,3.367262e+001
5.196291e+002,3.075917e+001
5.205933e+002,2.753304e+001
5.215576e+002,2.587897e+001
5.225218e+002,2.588513e+001
5.234860e+002,2.699532e+001
5.244503e+002,2.843767e+001
5.254145e+002,3.064661e+001
5.263787e+002,3.143585e+001
5.273430e+002,3.002232e+001
5.283072e+002,2.773265e+001
5.292714e+002,2.641443e+001
5.302357e+002,2.664122e+001
5.311999e+002,2.612793e+001
5.321641e+002,2.407310e+001
5.331284e+002,2.200319e+001
5.340926e+002,2.110350e+001
5.350568e+002,2.178531e+001
5.360211e+002,2.283569e+001
5.369853e+002,2.384724e+001
5.379495e+002,2.454219e+001
5.389138e+002,2.433447e+001
5.398780e+002,2.310062e+001
5.408422e+002,2.138896e+001
5.418065e+002,2.089731e+001
5.427707e+002,2.142935e+001
5.437349e+002,2.162601e+001
5.446992e+002,2.102596e+001
5.456634e+002,1.988426e+001
5.466276e+002,1.915495e+001
5.475919e+002,1.945609e+001
5.485561e+002,1.954713e+001
5.495203e+002,1.946033e+001
5.504846e+002,1.900552e+001
5.514488e+002,1.774474e+001
5.524130e+002,1.489224e+001
5.533773e+002,1.295940e+001
5.543415e+002,1.352272e+001
5.553057e+002,1.524136e+001
5.562700e+002,1.683870e+001
5.572342e+002,1.751050e+001
5.581984e+002,1.753746e+001
5.591627e+002,1.742307e+001
5.601269e+002,1.739589e+001
5.610911e+002,1.815924e+001
5.620554e+002,2.016702e+001
5.630196e+002,2.299355e+001
5.639838e+002,2.312215e+001
5.649481e+002,1.823741e+001
5.659123e+002,1.407349e+001
5.668765e+002,1.173776e+001
5.678408e+002,1.095709e+001
5.688050e+002,1.081049e+001
5.697692e+002,1.142664e+001
5.707335e+002,1.183812e+001
5.716977e+002,1.197011e+001
5.726619e+002,1.177583e+001
5.736262e+002,1.099251e+001
5.745904e+002,9.258453e+000
5.755546e+002,7.808075e+000
5.765189e+002,9.030167e+000
5.774831e+002,1.154567e+001
5.784473e+002,1.299861e+001
5.794116e+002,1.184915e+001
5.803758e+002,8.475830e+000
5.813400e+002,6.603912e+000
5.823043e+002,6.312485e+000
5.832685e+002,6.180237e+000
5.842327e+002,6.119705e+000
5.851970e+002,6.124115e+000
5.861612e+002,5.570786e+000
5.871254e+002,2.734924e+000
5.880897e+002,1.015442e+000
5.890539e+002,1.815323e+000
5.900181e+002,3.951721e+000
5.909824e+002,5.323746e+000
5.919466e+002,4.266800e+000
5.929108e+002,3.041290e+000
5.938751e+002,4.345184e+000
5.948393e+002,7.023529e+000
5.958035e+002,9.431351e+000
5.967678e+002,1.038303e+001
5.977320e+002,1.006653e+001
5.986962e+002,9.147919e+000
5.996605e+002,7.386490e+000
6.006247e+002,6.133286e+000
6.015889e+002,6.452850e+000
6.025532e+002,8.191528e+000
6.035174e+002,8.825073e+000
6.044816e+002,6.689209e+000
6.054459e+002,5.240448e+000
6.064101e+002,5.395432e+000
6.073743e+002,6.491165e+000
6.083386e+002,7.282776e+000
6.093028e+002,7.094635e+000
6.102670e+002,6.602875e+000
6.112313e+002,6.007278e+000
6.121955e+002,5.580215e+000
6.131597e+002,5.937424e+000
6.141240e+002,7.450623e+000
6.150882e+002,9.476212e+000
6.160524e+002,8.862473e+000
6.170167e+002,6.160294e+000
6.179809e+002,3.723480e+000
6.189451e+002,2.606689e+000
6.199094e+002,2.566956e+000
6.208736e+002,2.195160e+000
6.218378e+002,7.921295e-001
6.228021e+002,1.677704e-001
6.237663e+002,9.146118e-001
6.247305e+002,2.469574e+000
6.256948e+002,4.024353e+000
6.266590e+002,5.523239e+000
6.276232e+002,5.977753e+000
6.285875e+002,4.255219e+000
6.295517e+002,1.958099e+000
6.305159e+002,9.006042e-001
6.314802e+002,1.972427e+000
6.324444e+002,4.046829e+000
6.334086e+002,4.041611e+000
6.343729e+002,2.685898e+000
6.353371e+002,1.323059e+000
6.363013e+002,2.847748e-001
6.372656e+002,-3.566284e-001
6.382298e+002,-2.095337e-001
6.391940e+002,1.702988e+000
6.401583e+002,3.076416e+000
6.411225e+002,4.264999e+000
6.420867e+002,4.994827e+000
6.430510e+002,4.634003e+000
6.440152e+002,2.517929e+000
6.449794e+002,4.996796e-001
6.459437e+002,-6.003113e-001
6.469079e+002,-1.145004e+000
6.478721e+002,-1.178665e+000
6.488364e+002,-7.883606e-001
6.498006e+002,-2.672729e-001
6.507648e+002,-4.046631e-001
6.517291e+002,-8.587341e-001
6.526933e+002,-5.667572e-001
6.536575e+002,7.023468e-001
6.546218e+002,2.434814e+000
6.555860e+002,3.713043e+000
6.565502e+002,4.712830e+000
6.575145e+002,4.524521e+000
6.584787e+002,2.409424e+000
6.594429e+002,-1.095581e-001
6.604072e+002,-2.072739e+000
6.613714e+002,-3.399155e+000
6.623356e+002,-3.703903e+000
6.632999e+002,-2.170456e+000
6.642641e+002,-3.069458e-001
6.652283e+002,1.481964e+000
6.661926e+002,3.012985e+000
6.671568e+002,4.186859e+000
6.681210e+002,4.763718e+000
6.690853e+002,4.728836e+000
6.700495e+002,4.225449e+000
6.710137e+002,3.315903e+000
6.719780e+002,2.586411e+000
6.729422e+002,2.719009e+000
6.739064e+002,3.986847e+000
6.748707e+002,4.121796e+000
6.758349e+002,2.364029e+000
6.767991e+002,6.547089e-001
6.777634e+002,6.193542e-002
6.787276e+002,5.087738e-001
6.796918e+002,6.835785e-001
6.806561e+002,-8.600922e-001
6.816203e+002,-1.865555e+000
6.825845e+002,-9.778137e-001
6.835488e+002,9.574738e-001
6.845130e+002,2.599762e+000
6.854772e+002,3.003525e+000
6.864415e+002,2.518509e+000
6.874057e+002,1.347565e+000
6.883699e+002,-2.533875e-001
6.893342e+002,-1.133957e+000
6.902984e+002,-5.625000e-001
6.912626e+002,1.260559e+000
6.922269e+002,2.685257e+000
6.931911e+002,4.334763e+000
6.941553e+002,5.024841e+000
6.951196e+002,3.790771e+000
6.960838e+002,1.607346e+000
6.970480e+002,7.080078e-003
6.980123e+002,-7.457581e-001
6.989765e+002,-4.724274e-001
6.999407e+002,2.048019e+000
7.009050e+002,4.515793e+000
7.018692e+002,4.619141e+000
7.028334e+002,1.830246e+000
7.037977e+002,-1.768280e+000
7.047619e+002,-2.819489e+000
7.057261e+002,-2.039642e+000
7.066904e+002,-7.924957e-001
7.076546e+002,7.005463e-001
7.086188e+002,2.036118e+000
7.095831e+002,2.561951e+000
7.105473e+002,2.044876e+000
7.115115e+002,1.042755e+000
7.124758e+002,-9.999390e-001
7.134400e+002,-2.958374e+000
7.144042e+002,-4.122467e+000
7.153685e+002,-4.421326e+000
7.163327e+002,-4.372955e+000
7.172969e+002,-3.839310e+000
7.182612e+002,-3.288498e+000
7.192254e+002,-2.966705e+000
7.201896e+002,-2.843491e+000
7.211539e+002,-2.781662e+000
7.221181e+002,-2.658081e+000
7.230823e+002,-2.484528e+000
7.240466e+002,-2.473724e+000
7.250108e+002,-2.426788e+000
7.259750e+002,-1.598618e+000
7.269393e+002,6.191711e-001
7.279035e+002,3.683777e+000
7.288677e+002,4.130875e+000
7.298320e+002,-1.379349e+000
7.307962e+002,-4.889572e+000
7.317604e+002,-4.949921e+000
7.327247e+002,-3.074753e+000
7.336889e+002,-1.290039e+000
7.346531e+002,-1.491699e-001
7.356174e+002,2.783813e-001
7.365816e+002,3.604431e-001
7.375458e+002,2.667236e-002
7.385101e+002,-1.410034e+000
7.394743e+002,-3.737701e+000
7.404385e+002,-5.502579e+000
7.414028e+002,-4.143341e+000
7.423670e+002,-5.921631e-001
7.433312e+002,1.572174e+000
7.442955e+002,2.256393e+000
7.452597e+002,2.315125e+000
7.462239e+002,2.676575e+000
7.471882e+002,3.532532e+000
7.481524e+002,3.513550e+000
7.491166e+002,1.516205e+000
7.500809e+002,-2.895355e-001
7.510451e+002,-8.446045e-001
7.520093e+002,-4.615936e-001
7.529736e+002,-4.412537e-001
7.539378e+002,-1.468903e+000
7.549020e+002,-2.563492e+000
7.558663e+002,-3.448425e+000
7.568306e+002,-3.928329e+000
7.577948e+002,-3.656387e+000
7.587590e+002,-2.510818e+000
7.597233e+002,-9.461060e-001
7.606875e+002,-7.252502e-002
7.616517e+002,2.712097e-001
7.626160e+002,4.695740e-001
7.635802e+002,5.322113e-001
7.645444e+002,6.283417e-001
7.655087e+002,1.099045e+000
7.664729e+002,2.096481e+000
7.674371e+002,3.079575e+000
7.684014e+002,4.385315e+000
7.693656e+002,5.329819e+000
7.703298e+002,5.249832e+000
7.712941e+002,4.209152e+000
7.722583e+002,3.327667e+000
7.732225e+002,3.769348e+000
7.741868e+002,4.338028e+000
7.751510e+002,3.948975e+000
7.761152e+002,2.874435e+000
7.770795e+002,1.876099e+000
7.780437e+002,1.610138e+000
7.790079e+002,1.958771e+000
7.799722e+002,2.281250e+000
7.809364e+002,2.615845e+000
7.819006e+002,2.748734e+000
7.828649e+002,2.723679e+000
7.838291e+002,2.566513e+000
7.847933e+002,2.127167e+000
7.857576e+002,1.032288e+000
7.867218e+002,-1.205444e-001
7.876860e+002,-1.363678e+000
7.886503e+002,-2.295151e+000
7.896145e+002,-2.743668e+000
7.905787e+002,-2.619568e+000
7.915430e+002,-1.632187e+000
7.925072e+002,1.376007e+000
7.934714e+002,4.702301e+000
7.944357e+002,6.778503e+000
7.953999e+002,7.500122e+000
7.963641e+002,7.139862e+000
7.973284e+002,5.885300e+000
7.982926e+002,3.654526e+000
7.992568e+002,2.279312e+000
8.002211e+002,1.777664e+000
8.011853e+002,1.270966e+000
8.021495e+002,3.787231e-001
8.031138e+002,-4.706573e-001
8.040780e+002,-2.044067e-001
8.050422e+002,2.003464e+000
8.060065e+002,3.966461e+000
8.069707e+002,4.941238e+000
8.079349e+002,5.250351e+000
8.088992e+002,5.216660e+000
8.098634e+002,5.035110e+000
8.108276e+002,4.704346e+000
8.117919e+002,3.635315e+000
8.127561e+002,2.375748e+000
8.137203e+002,2.953094e+000
8.146846e+002,5.658600e+000
8.156488e+002,8.397232e+000
8.166130e+002,8.319962e+000
8.175773e+002,4.603165e+000
8.185415e+002,2.848785e+000
8.195057e+002,4.255707e+000
8.204700e+002,5.503952e+000
8.214342e+002,5.124817e+000
8.223984e+002,3.757645e+000
8.233627e+002,3.295624e+000
8.243269e+002,4.879715e+000
8.252911e+002,6.569336e+000
8.262554e+002,7.500534e+000
8.272196e+002,7.771469e+000
8.281838e+002,6.993195e+000
8.291481e+002,5.307175e+000
8.301123e+002,3.928635e+000
8.310765e+002,5.462631e+000
8.320408e+002,9.436646e+000
8.330050e+002,1.051724e+001
8.339692e+002,7.810120e+000
8.349335e+002,4.223831e+000
8.358977e+002,2.879196e+000
8.368619e+002,4.232056e+000
8.378262e+002,4.929688e+000
8.387904e+002,4.011795e+000
8.397546e+002,3.219757e+000
8.407189e+002,2.855713e+000
8.416831e+002,2.961151e+000
8.426473e+002,3.693878e+000
8.436116e+002,5.333542e+000
8.445758e+002,6.797714e+000
8.455400e+002,6.399506e+000
8.465043e+002,5.202896e+000
8.474685e+002,4.523590e+000
8.484327e+002,4.825836e+000
8.493970e+002,5.769089e+000
8.503612e+002,6.654419e+000
8.513254e+002,7.448013e+000
8.522897e+002,7.818771e+000
8.532539e+002,7.713013e+000
8.542181e+002,7.176971e+000
8.551824e+002,5.931824e+000
8.561466e+002,4.284775e+000
8.571108e+002,3.813904e+000
8.580751e+002,4.957153e+000
8.590393e+002,6.726227e+000
8.600035e+002,9.643661e+000
8.609678e+002,1.275034e+001
8.619320e+002,1.512781e+001
8.628962e+002,1.635118e+001
8.638605e+002,1.649828e+001
8.648247e+002,1.499573e+001
8.657889e+002,1.268153e+001
8.667532e+002,1.138562e+001
8.677174e+002,1.135263e+001
8.686816e+002,1.220325e+001
8.696459e+002,1.374484e+001
8.706101e+002,1.629549e+001
8.715743e+002,1.750847e+001
8.725386e+002,1.629961e+001
8.735028e+002,1.530486e+001
8.744670e+002,1.518285e+001
8.754313e+002,1.553265e+001
8.763955e+002,1.561420e+001
8.773597e+002,1.515593e+001
8.783240e+002,1.479929e+001
8.792882e+002,1.470427e+001
8.802524e+002,1.497859e+001
8.812167e+002,1.598129e+001
8.821809e+002,1.762912e+001
8.831451e+002,1.941579e+001
8.841094e+002,2.071437e+001
8.850736e+002,2.159634e+001
8.860378e+002,2.223424e+001
8.870021e+002,2.242502e+001
8.879663e+002,2.280315e+001
8.889305e+002,2.428185e+001
8.898948e+002,2.633818e+001
8.908590e+002,2.624817e+001
8.918232e+002,2.179776e+001
8.927875e+002,1.880350e+001
8.937517e+002,1.936644e+001
8.947159e+002,2.105577e+001
8.956802e+002,2.159358e+001
8.966444e+002,2.054938e+001
8.976086e+002,1.963510e+001
8.985729e+002,2.113861e+001
8.995371e+002,2.357480e+001
9.005013e+002,2.383853e+001
9.014656e+002,2.238884e+001
9.024298e+002,2.166661e+001
9.033940e+002,2.358983e+001
9.043583e+002,2.754721e+001
9.053225e+002,2.940939e+001
9.062867e+002,2.647771e+001
9.072510e+002,2.467448e+001
9.082152e+002,2.452090e+001
9.091794e+002,2.556830e+001
9.101437e+002,2.825482e+001
9.111079e+002,3.268427e+001
9.120721e+002,3.498820e+001
9.130364e+002,2.990260e+001
9.140006e+002,2.425623e+001
9.149648e+002,2.192274e+001
9.159291e+002,2.244283e+001
9.168933e+002,2.407715e+001
9.178575e+002,2.551619e+001
9.188218e+002,2.670094e+001
9.197860e+002,2.765355e+001
9.207502e+002,2.836308e+001
9.217145e+002,2.816751e+001
9.226787e+002,2.658644e+001
9.236429e+002,2.466756e+001
9.246072e+002,2.374599e+001
9.255714e+002,2.390358e+001
9.265356e+002,2.411398e+001
9.274999e+002,2.456949e+001
9.284641e+002,2.455290e+001
9.294283e+002,2.359366e+001
9.303926e+002,2.212108e+001
9.313568e+002,2.084308e+001
9.323210e+002,2.011566e+001
9.332853e+002,1.962776e+001
9.342495e+002,1.881476e+001
9.352137e+002,1.789244e+001
9.361780e+002,1.745490e+001
9.371422e+002,1.770305e+001
9.381064e+002,1.809019e+001
9.390707e+002,1.763713e+001
9.400349e+002,1.587347e+001
9.409991e+002,1.565416e+001
9.419634e+002,1.910065e+001
9.429276e+002,2.112022e+001
9.438918e+002,1.910356e+001
9.448561e+002,1.528632e+001
9.458203e+002,1.373819e+001
9.467845e+002,1.602899e+001
9.477488e+002,1.848929e+001
9.487130e+002,1.797858e+001
9.496772e+002,1.669884e+001
9.506415e+002,1.624344e+001
9.516057e+002,1.676004e+001
9.525699e+002,1.759465e+001
9.535342e+002,1.809488e+001
9.544984e+002,1.826231e+001
9.554626e+002,1.854584e+001
9.564269e+002,1.917133e+001
9.573911e+002,1.971394e+001
9.583553e+002,2.047470e+001
9.593196e+002,2.082878e+001
9.602838e+002,1.936017e+001
9.612480e+002,1.528827e+001
9.622123e+002,1.231862e+001
9.631765e+002,1.197011e+001
9.641407e+002,1.253162e+001
9.651050e+002,1.374513e+001
9.660692e+002,1.510469e+001
9.670334e+002,1.603777e+001
9.679977e+002,1.625697e+001
9.689619e+002,1.602383e+001
9.699261e+002,1.535875e+001
9.708904e+002,1.437440e+001
9.718546e+002,1.361662e+001
9.728188e+002,1.307773e+001
9.737831e+002,1.309486e+001
9.747473e+002,1.450623e+001
9.757115e+002,1.786569e+001
9.766758e+002,1.979182e+001
9.776400e+002,1.938458e+001
9.786042e+002,1.883376e+001
9.795685e+002,1.853172e+001
9.805327e+002,1.824889e+001
9.814969e+002,1.779243e+001
9.824612e+002,1.717975e+001
9.834254e+002,1.624094e+001
9.843896e+002,1.394737e+001
9.853539e+002,1.155342e+001
9.863181e+002,1.079523e+001
9.872823e+002,1.141115e+001
9.882466e+002,1.186781e+001
9.892108e+002,1.095651e+001
9.901750e+002,9.129639e+000
9.911393e+002,8.561844e+000
9.921035e+002,1.002495e+001
9.930677e+002,1.088673e+001
9.940320e+002,1.064302e+001
9.949962e+002,1.031241e+001
9.959604e+002,1.094435e+001
9.969247e+002,1.259125e+001
9.978889e+002,1.412032e+001
9.988531e+002,1.465805e+001
9.998174e+002,1.501047e+001
1.000782e+003,1.576448e+001
1.001746e+003,1.683525e+001
1.002710e+003,1.825269e+001
1.003674e+003,1.987825e+001
1.004639e+003,2.105907e+001
1.005603e+003,2.055229e+001
1.006567e+003,1.810896e+001
1.007531e+003,1.630711e+001
1.008495e+003,1.502922e+001
1.009460e+003,1.456003e+001
1.010424e+003,1.577591e+001
1.011388e+003,1.810013e+001
1.012352e+003,1.898540e+001
1.013317e+003,1.751369e+001
1.014281e+003,1.560683e+001
1.015245e+003,1.293024e+001
1.016209e+003,1.081081e+001
1.017174e+003,1.094145e+001
1.018138e+003,1.279991e+001
1.019102e+003,1.394405e+001
1.020066e+003,1.227058e+001
1.021031e+003,9.077377e+000
1.021995e+003,8.175797e+000
1.022959e+003,8.937851e+000
1.023923e+003,8.839386e+000
1.024887e+003,6.629120e+000
1.025852e+003,3.882080e+000
1.026816e+003,3.424469e+000
1.027780e+003,6.046173e+000
1.028744e+003,7.651215e+000
1.029709e+003,7.531387e+000
1.030673e+003,6.801361e+000
1.031637e+003,5.181778e+000
1.032601e+003,3.310745e+000
1.033566e+003,2.113724e+000
1.034530e+003,1.928146e+000
1.035494e+003,2.042648e+000
1.036458e+003,1.477539e+000
1.037422e+003,7.573700e-001
1.038387e+003,1.173752e+000
1.039351e+003,2.526642e+000
1.040315e+003,3.029373e+000
1.041279e+003,1.161636e+000
1.042244e+003,-2.256592e+000
1.043208e+003,-3.277145e+000
1.044172e+003,9.948730e-002
1.045136e+003,2.321945e+000
1.046101e+003,2.650391e+000
1.047065e+003,2.599152e+000
1.048029e+003,3.105026e+000
1.048993e+003,4.052078e+000
1.049958e+003,4.856522e+000
1.050922e+003,5.485764e+000
1.051886e+003,5.453781e+000
1.052850e+003,3.681351e+000
1.053814e+003,1.265228e+000
1.054779e+003,-5.343323e-001
1.055743e+003,-1.390137e+000
1.056707e+003,-1.434906e+000
1.057671e+003,-7.834778e-001
1.058636e+003,5.472260e-001
1.059600e+003,1.711441e+000
1.060564e+003,3.424835e+000
1.061528e+003,4.257996e+000
1.062493e+003,3.077499e+000
1.063457e+003,1.308289e+000
1.064421e+003,8.844452e-001
1.065385e+003,2.020081e+000
1.066349e+003,2.407074e+000
1.067314e+003,-2.252655e-001
1.068278e+003,-2.591476e+000
1.069242e+003,-1.796112e+000
1.070206e+003,6.683655e-001
1.071171e+003,2.365067e+000
1.072135e+003,2.209717e+000
1.073099e+003,9.318237e-001
1.074063e+003,-1.998901e-001
1.075028e+003,-1.154633e+000
1.075992e+003,-1.582397e+000
1.076956e+003,-1.640717e+000
1.077920e+003,-1.247757e+000
1.078885e+003,4.454346e-001
1.079849e+003,2.483215e+000
1.080813e+003,2.739822e+000
1.081777e+003,5.669861e-001
1.082741e+003,-1.227417e+000
1.083706e+003,-1.248581e+000
1.084670e+003,-6.823883e-001
1.085634e+003,2.213593e-001
1.086598e+003,1.166199e+000
1.087563e+003,1.778107e+000
1.088527e+003,1.915359e+000
1.089491e+003,1.901047e+000
1.090455e+003,2.244919e+000
1.091420e+003,2.907242e+000
1.092384e+003,3.026276e+000
1.093348e+003,2.388290e+000
1.094312e+003,1.452774e+000
1.095276e+003,2.334442e-001
1.096241e+003,-9.387970e-001
1.097205e+003,-9.997101e-001
1.098169e+003,7.507172e-001
1.099133e+003,1.650574e+000
1.100098e+003,-7.249298e-001
1.101062e+003,-2.795517e+000
1.102026e+003,-1.723618e+000
1.102990e+003,1.541870e+000
1.103955e+003,4.376434e+000
1.104919e+003,5.155441e+000
1.105883e+003,4.448334e+000
1.106847e+003,3.299667e+000
1.107812e+003,1.716995e+000
1.108776e+003,9.311523e-001
1.109740e+003,1.123566e+000
1.110704e+003,1.844391e+000
1.111668e+003,3.462784e+000
1.112633e+003,5.586990e+000
1.113597e+003,5.886490e+000
1.114561e+003,2.944122e+000
1.115525e+003,7.766876e-001
1.116490e+003,1.325165e+000
1.117454e+003,2.255341e+000
1.118418e+003,1.883133e+000
1.119382e+003,6.999359e-001
1.120347e+003,3.896332e-001
1.121311e+003,1.889679e+000
1.122275e+003,3.950378e+000
1.123239e+003,4.286209e+000
1.124203e+003,3.130676e+000
1.125168e+003,1.934143e+000
1.126132e+003,4.964905e-001
1.127096e+003,-1.033020e-001
1.128060e+003,1.586258e+000
1.129025e+003,4.866043e+000
1.129989e+003,6.374069e+000
1.130953e+003,4.824020e+000
1.131917e+003,3.822235e+000
1.132882e+003,4.631302e+000
1.133846e+003,5.993774e+000
1.134810e+003,7.440872e+000
1.135774e+003,8.772888e+000
1.136739e+003,9.863113e+000
1.137703e+003,1.062976e+001
1.138667e+003,1.101932e+001
1.139631e+003,1.065013e+001
1.140595e+003,9.767853e+000
1.141560e+003,1.034821e+001
1.142524e+003,1.268800e+001
1.143488e+003,1.608003e+001
1.144452e+003,2.086122e+001
1.145417e+003,2.630728e+001
1.146381e+003,2.933517e+001
1.147345e+003,2.826358e+001
1.148309e+003,2.904254e+001
1.149274e+003,3.388966e+001
1.150238e+003,4.009589e+001
1.151202e+003,4.771043e+001
1.152166e+003,5.540620e+001
1.153130e+003,6.094017e+001
1.154095e+003,6.329523e+001
1.155059e+003,6.414276e+001
1.156023e+003,6.628098e+001
1.156987e+003,6.927235e+001
1.157952e+003,6.949953e+001
1.158916e+003,6.678149e+001
1.159880e+003,6.362885e+001
1.160844e+003,6.160190e+001
1.161809e+003,5.958250e+001
1.162773e+003,5.493198e+001
1.163737e+003,4.681494e+001
1.164701e+003,3.988974e+001
1.165666e+003,3.656943e+001
1.166630e+003,3.353792e+001
1.167594e+003,2.948143e+001
1.168558e+003,2.498038e+001
1.169522e+003,2.057953e+001
1.170487e+003,1.670030e+001
1.171451e+003,1.426749e+001
1.172415e+003,1.452116e+001
1.173379e+003,1.679495e+001
1.174344e+003,1.750766e+001
1.175308e+003,1.661263e+001
1.176272e+003,1.615425e+001
1.177236e+003,1.780037e+001
1.178201e+003,1.950577e+001
1.179165e+003,1.794556e+001
1.180129e+003,1.298309e+001
1.181093e+003,9.565811e+000
1.182057e+003,9.600189e+000
1.183022e+003,1.015268e+001
1.183986e+003,1.020381e+001
1.184950e+003,1.013335e+001
1.185914e+003,1.044905e+001
1.186879e+003,1.112996e+001
1.187843e+003,1.172539e+001
1.188807e+003,1.184062e+001
1.189771e+003,1.148438e+001
1.190736e+003,1.068297e+001
1.191700e+003,9.339417e+000
1.192664e+003,8.522995e+000
1.193628e+003,8.533066e+000
1.194593e+003,8.946808e+000
1.195557e+003,9.951477e+000
1.196521e+003,1.111082e+001
1.197485e+003,1.064883e+001
1.198449e+003,7.645309e+000
1.199414e+003,5.172974e+000
1.200378e+003,5.166229e+000
1.201342e+003,5.661957e+000
1.202306e+003,5.397690e+000
1.203271e+003,4.600769e+000
1.204235e+003,4.224030e+000
1.205199e+003,4.684265e+000
1.206163e+003,5.149384e+000
1.207128e+003,4.051926e+000
1.208092e+003,1.257736e+000
1.209056e+003,7.574615e-001
1.210020e+003,3.911667e+000
1.210984e+003,6.236969e+000
1.211949e+003,6.240875e+000
1.212913e+003,4.830841e+000
1.213877e+003,3.083405e+000
1.214841e+003,1.123322e+000
1.215806e+003,-1.209488e+000
1.216770e+003,-4.599747e+000
1.217734e+003,-7.415237e+000
1.218698e+003,-8.075226e+000
1.219663e+003,-7.991547e+000
1.220627e+003,-9.201874e+000
1.221591e+003,-1.177458e+001
1.222555e+003,-1.388867e+001
1.223520e+003,-1.381201e+001
1.224484e+003,-1.200266e+001
1.225448e+003,-1.085887e+001
1.226412e+003,-1.082130e+001
1.227376e+003,-1.057205e+001
1.228341e+003,-9.777054e+000
1.229305e+003,-9.220703e+000
1.230269e+003,-9.606583e+000
1.231233e+003,-1.046979e+001
1.232198e+003,-1.065311e+001
1.233162e+003,-9.762115e+000
1.234126e+003,-9.154846e+000
1.235090e+003,-1.042328e+001
1.236055e+003,-1.199130e+001
1.237019e+003,-1.183054e+001
1.237983e+003,-1.058656e+001
1.238947e+003,-1.002037e+001
1.239911e+003,-1.081406e+001
1.240876e+003,-1.216711e+001
1.241840e+003,-1.301970e+001
1.242804e+003,-1.337227e+001
1.243768e+003,-1.314525e+001
1.244733e+003,-1.126288e+001
1.245697e+003,-1.025142e+001
1.246661e+003,-1.111444e+001
1.247625e+003,-1.235641e+001
1.248590e+003,-1.298860e+001
1.249554e+003,-1.286403e+001
1.250518e+003,-1.192093e+001
1.251482e+003,-1.007304e+001
1.252447e+003,-8.642746e+000
1.253411e+003,-9.666245e+000
1.254375e+003,-1.189145e+001
1.255339e+003,-1.266917e+001
1.256303e+003,-1.188281e+001
1.257268e+003,-1.084259e+001
1.258232e+003,-1.036049e+001
1.259196e+003,-1.019731e+001
1.260160e+003,-9.606552e+000
1.261125e+003,-8.349335e+000
1.262089e+003,-7.630035e+000
1.263053e+003,-8.499863e+000
1.264017e+003,-8.944565e+000
1.264982e+003,-7.876846e+000
1.265946e+003,-6.558838e+000
1.266910e+003,-6.369125e+000
1.267874e+003,-7.178589e+000
1.268839e+003,-7.718185e+000
1.269803e+003,-7.134537e+000
1.270767e+003,-6.119339e+000
1.271731e+003,-6.072998e+000
1.272695e+003,-6.914795e+000
1.273660e+003,-7.244690e+000
1.274624e+003,-7.050644e+000
1.275588e+003,-6.705811e+000
1.276552e+003,-6.077148e+000
1.277517e+003,-5.398941e+000
1.278481e+003,-5.274231e+000
1.279445e+003,-5.798752e+000
1.280409e+003,-6.474823e+000
1.281374e+003,-7.880157e+000
1.282338e+003,-8.306381e+000
1.283302e+003,-5.066238e+000
1.284266e+003,-1.577087e+000
1.285230e+003,-2.752686e+000
1.286195e+003,-8.297867e+000
1.287159e+003,-1.318784e+001
1.288123e+003,-1.323869e+001
1.289087e+003,-9.954529e+000
1.290052e+003,-8.107224e+000
1.291016e+003,-8.235168e+000
1.291980e+003,-8.238983e+000
1.292944e+003,-8.102997e+000
1.293909e+003,-8.046722e+000
1.294873e+003,-7.805252e+000
1.295837e+003,-7.730789e+000
1.296801e+003,-8.796036e+000
1.297766e+003,-1.093332e+001
1.298730e+003,-1.193214e+001
1.299694e+003,-1.014026e+001
1.300658e+003,-7.838257e+000
1.301622e+003,-7.638016e+000
1.302587e+003,-8.523422e+000
1.303551e+003,-8.759460e+000
1.304515e+003,-8.117279e+000
1.305479e+003,-8.195831e+000
1.306444e+003,-1.068147e+001
1.307408e+003,-1.441602e+001
1.308372e+003,-1.493239e+001
1.309336e+003,-1.056111e+001
1.310301e+003,-8.165817e+000
1.311265e+003,-9.694244e+000
1.312229e+003,-1.108946e+001
1.313193e+003,-1.136372e+001
1.314157e+003,-1.085674e+001
1.315122e+003,-9.609650e+000
1.316086e+003,-8.019318e+000
1.317050e+003,-6.960892e+000
1.318014e+003,-6.944183e+000
1.318979e+003,-7.984421e+000
1.319943e+003,-1.096512e+001
1.320907e+003,-1.529163e+001
1.321871e+003,-1.608240e+001
1.322836e+003,-1.220522e+001
1.323800e+003,-8.624924e+000
1.324764e+003,-8.290405e+000
1.325728e+003,-9.679977e+000
1.326693e+003,-1.034821e+001
1.327657e+003,-1.026762e+001
1.328621e+003,-1.011235e+001
1.329585e+003,-1.018130e+001
1.330549e+003,-9.405258e+000
1.331514e+003,-6.272110e+000
1.332478e+003,-3.280563e+000
1.333442e+003,-3.224487e+000
1.334406e+003,-5.581558e+000
1.335371e+003,-7.767883e+000
1.336335e+003,-8.211899e+000
1.337299e+003,-7.710434e+000
1.338263e+003,-7.819504e+000
1.339228e+003,-8.642426e+000
1.340192e+003,-9.063568e+000
1.341156e+003,-8.814636e+000
1.342120e+003,-8.601181e+000
1.343084e+003,-8.636032e+000
1.344049e+003,-8.805313e+000
1.345013e+003,-8.992950e+000
1.345977e+003,-9.100327e+000
1.346941e+003,-9.022476e+000
1.347906e+003,-8.725677e+000
1.348870e+003,-8.293091e+000
1.349834e+003,-7.614594e+000
1.350798e+003,-7.095184e+000
1.351763e+003,-7.589081e+000
1.352727e+003,-8.850677e+000
1.353691e+003,-9.521027e+000
1.354655e+003,-8.984451e+000
1.355620e+003,-8.103104e+000
1.356584e+003,-7.950668e+000
1.357548e+003,-8.385330e+000
1.358512e+003,-8.283249e+000
1.359476e+003,-7.219635e+000
1.360441e+003,-6.982178e+000
1.361405e+003,-9.553345e+000
1.362369e+003,-1.129057e+001
1.363333e+003,-9.009888e+000
1.364298e+003,-5.420609e+000
1.365262e+003,-4.921448e+000
1.366226e+003,-8.073730e+000
1.367190e+003,-1.133269e+001
1.368155e+003,-1.153790e+001
1.369119e+003,-9.521118e+000
1.370083e+003,-7.828995e+000
1.371047e+003,-6.472336e+000
1.372011e+003,-5.215668e+000
1.372976e+003,-3.829605e+000
1.373940e+003,-3.039566e+000
1.374904e+003,-3.236496e+000
1.375868e+003,-4.007034e+000
1.376833e+003,-5.080795e+000
1.377797e+003,-6.333359e+000
1.378761e+003,-7.301971e+000
1.379725e+003,-7.806747e+000
1.380690e+003,-7.826797e+000
1.381654e+003,-6.804794e+000
1.382618e+003,-5.504944e+000
1.383582e+003,-5.073776e+000
1.384547e+003,-5.496811e+000
1.385511e+003,-6.114792e+000
1.386475e+003,-6.691147e+000
1.387439e+003,-7.148895e+000
1.388403e+003,-7.184555e+000
1.389368e+003,-6.810944e+000
1.390332e+003,-7.203217e+000
1.391296e+003,-9.553528e+000
1.392260e+003,-1.011310e+001
1.393225e+003,-6.270706e+000
1.394189e+003,-2.564346e+000
1.395153e+003,-1.630630e+000
1.396117e+003,-2.516632e+000
1.397082e+003,-3.754196e+000
1.398046e+003,-4.657715e+000
1.399010e+003,-4.825180e+000
1.399974e+003,-3.887299e+000
1.400938e+003,-2.621002e+000
1.401903e+003,-3.288391e+000
1.402867e+003,-6.382263e+000
1.403831e+003,-8.048264e+000
1.404795e+003,-7.766083e+000
1.405760e+003,-7.092865e+000
1.406724e+003,-6.319321e+000
1.407688e+003,-5.913010e+000
1.408652e+003,-6.642105e+000
1.409617e+003,-8.096756e+000
1.410581e+003,-8.342422e+000
1.411545e+003,-6.365753e+000
1.412509e+003,-4.421600e+000
1.413474e+003,-5.369339e+000
1.414438e+003,-7.462448e+000
1.415402e+003,-7.072037e+000
1.416366e+003,-4.602310e+000
1.417330e+003,-3.636017e+000
1.418295e+003,-5.935867e+000
1.419259e+003,-8.763062e+000
1.420223e+003,-8.779419e+000
1.421187e+003,-6.518036e+000
1.422152e+003,-4.979233e+000
1.423116e+003,-4.294037e+000
1.424080e+003,-3.748917e+000
1.425044e+003,-3.012802e+000
1.426009e+003,-2.764465e+000
1.426973e+003,-4.087845e+000
1.427937e+003,-5.591400e+000
1.428901e+003,-5.162994e+000
1.429865e+003,-3.013229e+000
1.430830e+003,-1.319183e+000
1.431794e+003,-1.564072e+000
1.432758e+003,-3.094345e+000
1.433722e+003,-4.579468e+000
1.434687e+003,-5.963882e+000
1.435651e+003,-6.253021e+000
1.436615e+003,-4.756821e+000
1.437579e+003,-3.849350e+000
1.438544e+003,-4.413681e+000
1.439508e+003,-4.846741e+000
1.440472e+003,-3.475586e+000
1.441436e+003,-1.275864e+000
1.442401e+003,-4.048462e-001
1.443365e+003,-1.322220e+000
1.444329e+003,-2.602295e+000
1.445293e+003,-3.293930e+000
1.446257e+003,-3.339325e+000
1.447222e+003,-2.133057e+000
1.448186e+003,-1.081696e-001
1.449150e+003,7.966614e-002
1.450114e+003,-2.347092e+000
1.451079e+003,-4.486481e+000
1.452043e+003,-4.856964e+000
1.453007e+003,-3.998032e+000
1.453971e+003,-2.087234e+000
1.454936e+003,5.130463e-001
1.455900e+003,1.272736e+000
1.456864e+003,-9.586182e-001
1.457828e+003,-2.651764e+000
1.458792e+003,-8.686829e-001
1.459757e+003,1.345169e+000
1.460721e+003,1.341812e+000
1.461685e+003,-1.016998e-001
1.462649e+003,-1.330734e+000
1.463614e+003,-1.806137e+000
1.464578e+003,-1.610977e+000
1.465542e+003,-7.066040e-001
1.466506e+003,4.648438e-001
1.467471e+003,6.694946e-001
1.468435e+003,-1.517334e-001
1.469399e+003,-1.084122e+000
1.470363e+003,-2.918762e+000
1.471328e+003,-3.861771e+000
1.472292e+003,-2.879135e+000
1.473256e+003,-1.700043e+000
1.474220e+003,-1.437210e+000
1.475184e+003,-1.785095e+000
1.476149e+003,-2.163971e+000
1.477113e+003,-2.337418e+000
1.478077e+003,-2.196930e+000
1.479041e+003,-1.565598e+000
1.480006e+003,-3.534546e-001
1.480970e+003,1.611206e+000
1.481934e+003,4.725876e+000
1.482898e+003,6.348221e+000
1.483863e+003,5.926163e+000
1.484827e+003,4.924957e+000
1.485791e+003,3.201584e+000
1.486755e+003,1.671387e+000
1.487719e+003,1.188599e+000
1.488684e+003,1.492538e+000
1.489648e+003,1.715302e+000
1.490612e+003,1.647751e+000
1.491576e+003,2.282211e+000
1.492541e+003,4.761703e+000
1.493505e+003,7.769577e+000
1.494469e+003,7.874573e+000
1.495433e+003,5.578735e+000
1.496398e+003,4.813812e+000
1.497362e+003,6.717636e+000
1.498326e+003,8.502823e+000
1.499290e+003,8.148727e+000
1.500255e+003,7.241455e+000
1.501219e+003,7.717300e+000
1.502183e+003,9.536942e+000
1.503147e+003,1.238004e+001
1.504111e+003,1.634273e+001
1.505076e+003,2.049529e+001
1.506040e+003,2.470422e+001
1.507004e+003,2.845518e+001
1.507968e+003,3.090936e+001
1.508933e+003,3.270163e+001
1.509897e+003,3.494398e+001
1.510861e+003,3.804546e+001
1.511825e+003,4.250078e+001
1.512790e+003,4.884631e+001
1.513754e+003,5.606245e+001
1.514718e+003,6.218813e+001
1.515682e+003,6.714255e+001
1.516646e+003,7.304166e+001
1.517611e+003,8.101057e+001
1.518575e+003,8.787675e+001
1.519539e+003,9.293387e+001
1.520503e+003,9.652887e+001
1.521468e+003,9.818506e+001
1.522432e+003,9.869814e+001
1.523396e+003,9.911562e+001
1.524360e+003,9.955786e+001
1.525325e+003,9.968372e+001
1.526289e+003,9.929260e+001
1.527253e+003,9.784416e+001
1.528217e+003,9.420210e+001
1.529182e+003,8.841916e+001
1.530146e+003,8.258176e+001
1.531110e+003,7.656110e+001
1.532074e+003,7.054271e+001
1.533039e+003,6.478839e+001
1.534003e+003,5.830521e+001
1.534967e+003,4.956429e+001
1.535931e+003,4.100725e+001
1.536896e+003,3.608952e+001
1.537860e+003,3.409996e+001
1.538824e+003,3.097461e+001
1.539788e+003,2.469308e+001
1.540752e+003,1.793954e+001
1.541717e+003,1.427766e+001
1.542681e+003,1.333760e+001
1.543645e+003,1.229695e+001
1.544609e+003,1.120015e+001
1.545573e+003,1.016333e+001
1.546538e+003,8.573563e+000
1.547502e+003,7.551193e+000
1.548466e+003,8.235565e+000
1.549430e+003,9.339951e+000
1.550395e+003,9.287308e+000
1.551359e+003,8.352829e+000
1.552323e+003,7.982620e+000
1.553287e+003,8.649521e+000
1.554252e+003,9.246017e+000
1.555216e+003,8.786835e+000
1.556180e+003,7.604599e+000
1.557144e+003,6.457336e+000
1.558109e+003,5.386627e+000
1.559073e+003,4.003815e+000
1.560037e+003,1.531662e+000
1.561001e+003,7.460022e-002
1.561966e+003,1.309296e+000
1.562930e+003,3.183945e+000
1.563894e+003,3.792847e+000
1.564858e+003,3.405060e+000
1.565823e+003,2.802170e+000
1.566787e+003,2.178070e+000
1.567751e+003,2.028564e+000
1.568715e+003,2.889954e+000
1.569679e+003,3.667435e+000
1.570644e+003,2.335983e+000
1.571608e+003,-7.728577e-002
1.572572e+003,-1.999664e-001
1.573536e+003,2.176819e+000
1.574500e+003,4.362045e+000
1.575465e+003,5.626221e+000
1.576429e+003,6.138626e+000
1.577393e+003,5.537659e+000
1.578357e+003,4.408066e+000
1.579322e+003,4.016418e+000
1.580286e+003,4.433777e+000
1.581250e+003,4.896240e+000
1.582214e+003,5.180237e+000
1.583179e+003,5.406174e+000
1.584143e+003,5.393295e+000
1.585107e+003,5.523285e+000
1.586071e+003,6.874496e+000
1.587036e+003,8.955063e+000
1.588000e+003,9.744644e+000
1.588964e+003,8.682404e+000
1.589928e+003,7.260559e+000
1.590893e+003,6.234787e+000
1.591857e+003,5.660690e+000
1.592821e+003,5.691818e+000
1.593785e+003,6.293701e+000
1.594750e+003,7.321945e+000
1.595714e+003,8.874557e+000
1.596678e+003,9.785233e+000
1.597642e+003,9.393295e+000
1.598606e+003,8.516159e+000
1.599571e+003,7.533798e+000
1.600535e+003,6.711777e+000
1.601499e+003,6.406296e+000
1.602463e+003,6.564301e+000
1.603427e+003,6.892700e+000
1.604392e+003,7.275635e+000
1.605356e+003,7.838821e+000
1.606320e+003,8.980453e+000
1.607284e+003,1.032562e+001
1.608249e+003,1.059846e+001
1.609213e+003,9.747375e+000
1.610177e+003,9.540970e+000
1.611141e+003,1.073172e+001
1.612106e+003,1.143100e+001
1.613070e+003,9.891068e+000
1.614034e+003,8.273590e+000
1.614998e+003,8.566605e+000
1.615963e+003,9.706192e+000
1.616927e+003,9.551559e+000
1.617891e+003,7.945404e+000
1.618855e+003,6.740387e+000
1.619820e+003,7.071106e+000
1.620784e+003,7.813126e+000
1.621748e+003,7.190857e+000
1.622712e+003,5.731079e+000
1.623677e+003,6.346481e+000
1.624641e+003,9.665070e+000
1.625605e+003,1.141052e+001
1.626569e+003,9.186874e+000
1.627533e+003,7.266891e+000
1.628498e+003,8.333328e+000
1.629462e+003,1.024306e+001
1.630426e+003,1.109587e+001
1.631390e+003,1.130789e+001
1.632354e+003,1.257056e+001
1.633319e+003,1.503053e+001
1.634283e+003,1.609579e+001
1.635247e+003,1.356734e+001
1.636211e+003,9.374008e+000
1.637176e+003,6.774323e+000
1.638140e+003,5.779312e+000
1.639104e+003,6.009979e+000
1.640068e+003,7.851730e+000
1.641033e+003,9.231949e+000
1.641997e+003,9.615540e+000
1.642961e+003,9.561081e+000
1.643925e+003,8.627625e+000
1.644890e+003,7.983643e+000
1.645854e+003,9.381897e+000
1.646818e+003,1.193971e+001
1.647782e+003,1.312863e+001
1.648747e+003,1.223380e+001
1.649711e+003,1.102701e+001
1.650675e+003,1.105417e+001
1.651639e+003,1.171992e+001
1.652604e+003,1.162474e+001
1.653568e+003,1.075075e+001
1.654532e+003,1.011522e+001
1.655496e+003,9.882843e+000
1.656460e+003,9.472229e+000
1.657425e+003,8.369064e+000
1.658389e+003,7.619980e+000
1.659353e+003,8.081360e+000
1.660317e+003,8.913147e+000
1.661281e+003,9.132004e+000
1.662246e+003,8.877472e+000
1.663210e+003,9.017319e+000
1.664174e+003,9.839233e+000
1.665138e+003,1.041936e+001
1.666103e+003,9.872620e+000
1.667067e+003,8.628967e+000
1.668031e+003,7.524475e+000
1.668995e+003,6.590546e+000
1.669960e+003,5.880737e+000
1.670924e+003,5.450195e+000
1.671888e+003,5.126389e+000
1.672852e+003,4.494461e+000
1.673817e+003,4.397446e+000
1.674781e+003,5.930283e+000
1.675745e+003,7.803009e+000
1.676709e+003,8.518021e+000
1.677674e+003,8.288742e+000
1.678638e+003,8.203934e+000
1.679602e+003,8.597687e+000
1.680566e+003,8.787109e+000
1.681531e+003,8.222061e+000
1.682495e+003,7.296432e+000
1.683459e+003,6.468277e+000
1.684423e+003,5.717300e+000
1.685387e+003,5.346863e+000
1.686352e+003,5.485489e+000
1.687316e+003,5.462067e+000
1.688280e+003,5.111679e+000
1.689244e+003,4.444016e+000
1.690208e+003,2.653503e+000
1.691173e+003,1.070160e+000
1.692137e+003,1.572510e+000
1.693101e+003,3.673874e+000
1.694065e+003,5.583069e+000
1.695030e+003,6.804962e+000
1.695994e+003,7.286240e+000
1.696958e+003,6.823242e+000
1.697922e+003,5.908737e+000
1.698887e+003,5.042526e+000
1.699851e+003,4.267319e+000
1.700815e+003,3.588593e+000
1.701779e+003,2.972992e+000
1.702744e+003,2.649567e+000
1.703708e+003,2.817062e+000
1.704672e+003,3.205658e+000
1.705636e+003,3.526230e+000
1.706601e+003,3.799576e+000
1.707565e+003,4.455093e+000
1.708529e+003,5.280884e+000
1.709493e+003,5.352493e+000
1.710458e+003,4.527466e+000
1.711422e+003,3.160477e+000
1.712386e+003,5.043945e-001
1.713350e+003,-1.431885e+000
1.714314e+003,-3.541107e-001
1.715279e+003,1.924469e+000
1.716243e+003,2.215500e+000
1.717207e+003,7.710876e-001
1.718171e+003,7.548523e-002
1.719135e+003,8.335571e-001
1.720100e+003,1.824478e+000
1.721064e+003,2.299347e+000
1.722028e+003,2.307907e+000
1.722992e+003,2.020691e+000
1.723957e+003,1.477722e+000
1.724921e+003,1.868591e-001
1.725885e+003,-2.328186e+000
1.726849e+003,-3.613708e+000
1.727814e+003,-2.248032e+000
1.728778e+003,-6.785889e-001
1.729742e+003,1.171875e-001
1.730706e+003,5.245667e-001
1.731671e+003,9.067841e-001
1.732635e+003,1.048264e+000
1.733599e+003,5.494385e-001
1.734563e+003,-4.815063e-001
1.735528e+003,-1.707367e+000
1.736492e+003,-2.985947e+000
1.737456e+003,-3.358170e+000
1.738420e+003,-1.495667e+000
1.739385e+003,1.706802e+000
1.740349e+003,3.205261e+000
1.741313e+003,2.805603e+000
1.742277e+003,1.998306e+000
1.743241e+003,3.538055e-001
1.744206e+003,-8.493347e-001
1.745170e+003,-1.565048e+000
1.746134e+003,-1.766190e+000
1.747098e+003,-7.098236e-001
1.748063e+003,3.134460e-001
1.749027e+003,-5.900726e-001
1.749991e+003,-2.757599e+000
1.750955e+003,-4.120346e+000
1.751919e+003,-3.972565e+000
1.752884e+003,-2.958267e+000
1.753848e+003,-1.583771e+000
1.754812e+003,-3.772430e-001
1.755776e+003,-4.114685e-001
1.756741e+003,-1.568893e+000
1.757705e+003,-2.668503e+000
1.758669e+003,-4.175140e+000
1.759633e+003,-4.434708e+000
1.760598e+003,-2.198318e+000
1.761562e+003,-3.831940e-001
1.762526e+003,1.822968e-001
1.763490e+003,1.751404e-001
1.764455e+003,-3.385925e-002
1.765419e+003,-4.012756e-001
1.766383e+003,-1.012253e+000
1.767347e+003,-1.886520e+000
1.768312e+003,-3.031815e+000
1.769276e+003,-4.494080e+000
1.770240e+003,-5.628677e+000
1.771204e+003,-5.657104e+000
1.772168e+003,-4.741486e+000
1.773133e+003,-3.066132e+000
1.774097e+003,-7.976532e-001
1.775061e+003,2.166748e-001
1.776025e+003,-4.705963e-001
1.776990e+003,-1.010651e+000
1.777954e+003,-4.182587e-001
1.778918e+003,-9.298706e-002
1.779882e+003,-1.547012e+000
1.780846e+003,-3.608337e+000
1.781811e+003,-4.872543e+000
1.782775e+003,-5.289078e+000
1.783739e+003,-4.542007e+000
1.784703e+003,-2.432159e+000
1.785668e+003,-6.302185e-001
1.786632e+003,-2.078857e-001
1.787596e+003,-1.632690e-003
1.788560e+003,1.248474e+000
1.789525e+003,2.739197e+000
1.790489e+003,3.364105e+000
1.791453e+003,3.042755e+000
1.792417e+003,1.568863e+000
1.793382e+003,-8.701630e-001
1.794346e+003,-2.498535e+000
1.795310e+003,-2.362961e+000
1.796274e+003,-1.433075e+000
1.797239e+003,-6.610260e-001
1.798203e+003,-3.356934e-004
1.799167e+003,3.543701e-001
1.800131e+003,2.088470e-001
1.801095e+003,-2.064667e-001
1.802060e+003,-1.286301e+000
1.803024e+003,-1.634903e+000
1.803988e+003,-2.568970e-001
1.804952e+003,6.896667e-001
1.805917e+003,-4.354401e-001
1.806881e+003,-1.961609e+000
1.807845e+003,-2.115662e+000
1.808809e+003,-1.238022e+000
1.809773e+003,-3.320465e-001
1.810738e+003,2.532196e-001
1.811702e+003,6.719513e-001
1.812666e+003,9.957275e-001
1.813630e+003,6.270294e-001
1.814595e+003,-1.540756e+000
1.815559e+003,-4.699692e+000
1.816523e+003,-5.024323e+000
1.817487e+003,-2.129700e+000
1.818452e+003,-6.398468e-001
1.819416e+003,-1.352844e+000
1.820380e+003,-1.490448e+000
1.821344e+003,3.137970e-001
1.822309e+003,1.808777e+000
1.823273e+003,1.671021e+000
1.824237e+003,7.354889e-001
1.825201e+003,-7.400208e-001
1.826166e+003,-2.294144e+000
1.827130e+003,-2.850800e+000
1.828094e+003,-2.259079e+000
1.829058e+003,-8.696747e-001
1.830022e+003,1.909470e+000
1.830987e+003,3.963226e+000
1.831951e+003,2.989960e+000
1.832915e+003,6.335754e-001
1.833879e+003,-1.108749e+000
1.834844e+003,-2.092102e+000
1.835808e+003,-2.127914e+000
1.836772e+003,-1.281052e+000
1.837736e+003,-2.085724e-001
1.838700e+003,7.913513e-001
1.839665e+003,1.128220e+000
1.840629e+003,1.302948e-001
1.841593e+003,-1.359894e+000
1.842557e+003,-1.569427e+000
1.843522e+003,-5.229187e-001
1.844486e+003,1.860809e-001
1.845450e+003,8.234863e-001
1.846414e+003,7.825317e-001
1.847379e+003,-1.083572e+000
1.848343e+003,-2.327347e+000
1.849307e+003,-1.372208e+000
1.850271e+003,-3.570862e-001
1.851236e+003,-1.219757e+000
1.852200e+003,-2.676102e+000
1.853164e+003,-2.812378e+000
1.854128e+003,-1.798828e+000
1.855093e+003,-1.059494e+000
1.856057e+003,-1.011810e+000
1.857021e+003,-6.346130e-001
1.857985e+003,9.781647e-001
1.858949e+003,2.855728e+000
1.859914e+003,3.300949e+000
1.860878e+003,2.553925e+000
1.861842e+003,1.668488e+000
1.862806e+003,6.071320e-001
1.863771e+003,2.906189e-001
1.864735e+003,1.049652e+000
1.865699e+003,1.550430e+000
1.866663e+003,1.222870e+000
1.867627e+003,5.995941e-001
1.868592e+003,-3.039551e-002
1.869556e+003,-7.021637e-001
1.870520e+003,-1.384857e+000
1.871484e+003,-2.054611e+000
1.872449e+003,-2.508881e+000
1.873413e+003,-2.549393e+000
1.874377e+003,-2.108582e+000
1.875341e+003,-1.275833e+000
1.876306e+003,-2.353668e-001
1.877270e+003,1.594620e+000
1.878234e+003,2.914734e+000
1.879198e+003,1.686829e+000
1.880163e+003,-6.182404e-001
1.881127e+003,-1.089996e+000
1.882091e+003,3.410645e-001
1.883055e+003,1.763779e+000
1.884020e+003,2.328217e+000
1.884984e+003,2.482498e+000
1.885948e+003,2.623505e+000
1.886912e+003,2.892136e+000
1.887876e+003,3.637924e+000
1.888841e+003,4.812851e+000
1.889805e+003,5.767715e+000
1.890769e+003,6.633484e+000
1.891733e+003,6.529678e+000
1.892698e+003,5.074661e+000
1.893662e+003,3.124969e+000
1.894626e+003,-2.236786e-001
1.895590e+003,-2.329376e+000
1.896554e+003,5.191040e-002
1.897519e+003,3.720886e+000
1.898483e+003,4.577744e+000
1.899447e+003,3.228821e+000
1.900411e+003,2.556610e+000
1.901376e+003,3.087112e+000
1.902340e+003,3.665085e+000
1.903304e+003,3.983673e+000
1.904268e+003,4.012314e+000
1.905233e+003,3.674301e+000
1.906197e+003,3.160873e+000
1.907161e+003,2.287857e+000
1.908125e+003,1.614456e+000
1.909090e+003,2.682343e+000
1.910054e+003,4.803833e+000
1.911018e+003,4.804184e+000
1.911982e+003,1.998611e+000
1.912947e+003,-2.823792e-001
1.913911e+003,3.773956e-001
1.914875e+003,2.486694e+000
1.915839e+003,3.744385e+000
1.916803e+003,4.250214e+000
1.917768e+003,4.846725e+000
1.918732e+003,5.628189e+000
1.919696e+003,6.397385e+000
1.920660e+003,7.609940e+000
1.921625e+003,7.574158e+000
1.922589e+003,5.010696e+000
1.923553e+003,2.505722e+000
1.924517e+003,1.159653e+000
1.925481e+003,7.340851e-001
1.926446e+003,1.673706e+000
1.927410e+003,3.141724e+000
1.928374e+003,3.275635e+000
1.929338e+003,2.036560e+000
1.930303e+003,1.388016e+000
1.931267e+003,2.129150e+000
1.932231e+003,2.902252e+000
1.933195e+003,2.859634e+000
1.934160e+003,2.737564e+000
1.935124e+003,3.103973e+000
1.936088e+003,3.618851e+000
1.937052e+003,4.151337e+000
1.938017e+003,4.508850e+000
1.938981e+003,3.894745e+000
1.939945e+003,2.588745e+000
1.940909e+003,2.417282e+000
1.941874e+003,4.068924e+000
1.942838e+003,5.839951e+000
1.943802e+003,6.223328e+000
1.944766e+003,5.834335e+000
1.945730e+003,5.707184e+000
1.946695e+003,5.744873e+000
1.947659e+003,5.535965e+000
1.948623e+003,4.981888e+000
1.949587e+003,5.195831e+000
1.950552e+003,6.665909e+000
1.951516e+003,7.539719e+000
1.952480e+003,6.979111e+000
1.953444e+003,6.157867e+000
1.954408e+003,5.860306e+000
1.955373e+003,5.671143e+000
1.956337e+003,4.873962e+000
1.957301e+003,3.873337e+000
1.958265e+003,4.007980e+000
1.959230e+003,5.543198e+000
1.960194e+003,6.261459e+000
1.961158e+003,4.711853e+000
1.962122e+003,3.791214e+000
1.963087e+003,4.657745e+000
1.964051e+003,5.877228e+000
1.965015e+003,7.288330e+000
1.965979e+003,8.235413e+000
1.966944e+003,7.345520e+000
1.967908e+003,5.730576e+000
1.968872e+003,5.871078e+000
1.969836e+003,7.637833e+000
1.970801e+003,8.470886e+000
1.971765e+003,7.351486e+000
1.972729e+003,6.027237e+000
1.973693e+003,5.875351e+000
1.974657e+003,6.581284e+000
1.975622e+003,8.271957e+000
1.976586e+003,1.018098e+001
1.977550e+003,9.734146e+000
1.978514e+003,7.543045e+000
1.979479e+003,7.587509e+000
1.980443e+003,1.023262e+001
1.981407e+003,1.122237e+001
1.982371e+003,8.908890e+000
1.983335e+003,6.799805e+000
1.984300e+003,7.609222e+000
1.985264e+003,9.303360e+000
1.986228e+003,8.720566e+000
1.987192e+003,6.445496e+000
1.988157e+003,5.580490e+000
1.989121e+003,6.521301e+000
1.990085e+003,7.028793e+000
1.991049e+003,7.051773e+000
1.992014e+003,6.846054e+000
1.992978e+003,6.212097e+000
1.993942e+003,5.565674e+000
1.994906e+003,4.597977e+000
1.995871e+003,4.129517e+000
1.996835e+003,4.994263e+000
1.997799e+003,6.658600e+000
1.998763e+003,8.674500e+000
1.999728e+003,1.066539e+001
