5.003444e+002,3.938477e+001
5.013087e+002,3.674152e+001
5.022729e+002,3.639386e+001
5.032371e+002,3.788947e+001
5.042014e+002,3.808893e+001
5.051656e+002,3.719910e+001
5.061298e+002,3.524463e+001
5.070941e+002,3.191107e+001
5.080583e+002,2.632452e+001
5.090225e+002,2.331091e+001
5.099868e+002,2.407074e+001
5.109510e+002,2.519910e+001
5.119152e+002,2.489056e+001
5.128795e+002,2.299188e+001
5.138437e+002,2.155231e+001
5.148079e+002,2.154907e+001
5.157722e+002,2.208618e+001
5.167364e+002,2.294446e+001
5.177006e+002,2.381445e+001
5.186649e+002,2.431049e+001
5.196291e+002,2.443188e+001
5.205933e+002,2.438696e+001
5.215576e+002,2.308093e+001
5.225218e+002,2.047205e+001
5.234860e+002,1.800763e+001
5.244503e+002,1.885773e+001
5.254145e+002,2.502747e+001
5.263787e+002,2.847021e+001
5.273430e+002,2.801337e+001
5.283072e+002,2.567139e+001
5.292714e+002,2.387024e+001
5.302357e+002,2.203735e+001
5.311999e+002,2.082648e+001
5.321641e+002,2.174091e+001
5.331284e+002,2.307831e+001
5.340926e+002,2.309204e+001
5.350568e+002,2.083325e+001
5.360211e+002,1.815051e+001
5.369853e+002,1.748645e+001
5.379495e+002,1.768030e+001
5.389138e+002,1.774353e+001
5.398780e+002,1.717664e+001
5.408422e+002,1.606329e+001
5.418065e+002,1.440277e+001
5.427707e+002,1.238440e+001
5.437349e+002,1.195074e+001
5.446992e+002,1.399408e+001
5.456634e+002,1.761218e+001
5.466276e+002,1.980164e+001
5.475919e+002,2.000671e+001
5.485561e+002,1.943103e+001
5.495203e+002,1.683716e+001
5.504846e+002,1.358282e+001
5.514488e+002,1.190735e+001
5.524130e+002,1.352148e+001
5.533773e+002,1.539954e+001
5.543415e+002,1.685132e+001
5.553057e+002,1.730145e+001
5.562700e+002,1.540869e+001
5.572342e+002,1.034363e+001
5.581984e+002,4.269409e+000
5.591627e+002,3.419434e+000
5.601269e+002,6.069946e+000
5.610911e+002,8.299316e+000
5.620554e+002,7.903320e+000
5.630196e+002,5.166931e+000
5.639838e+002,4.193359e+000
5.649481e+002,6.703491e+000
5.659123e+002,8.506165e+000
5.668765e+002,9.456360e+000
5.678408e+002,9.809509e+000
5.688050e+002,9.499817e+000
5.697692e+002,6.866394e+000
5.707335e+002,4.513611e+000
5.716977e+002,3.528870e+000
5.726619e+002,3.498840e+000
5.736262e+002,3.924744e+000
5.745904e+002,4.616394e+000
5.755546e+002,5.424377e+000
5.765189e+002,6.017944e+000
5.774831e+002,5.970764e+000
5.784473e+002,4.724243e+000
5.794116e+002,2.090454e+000
5.803758e+002,-1.407715e+000
5.813400e+002,-2.326172e+000
5.823043e+002,-4.815674e-001
5.832685e+002,8.851318e-001
5.842327e+002,5.413818e-001
5.851970e+002,-8.488770e-001
5.861612e+002,-6.785889e-001
5.871254e+002,2.612488e+000
5.880897e+002,5.663940e+000
5.890539e+002,7.967224e+000
5.900181e+002,9.342346e+000
5.909824e+002,9.632690e+000
5.919466e+002,8.482239e+000
5.929108e+002,7.196716e+000
5.938751e+002,7.328491e+000
5.948393e+002,8.196106e+000
5.958035e+002,8.727783e+000
5.967678e+002,8.215088e+000
5.977320e+002,7.071777e+000
5.986962e+002,7.438904e+000
5.996605e+002,8.817383e+000
6.006247e+002,1.000354e+001
6.015889e+002,1.051801e+001
6.025532e+002,1.044000e+001
6.035174e+002,1.025812e+001
6.044816e+002,1.070618e+001
6.054459e+002,1.029785e+001
6.064101e+002,8.041626e+000
6.073743e+002,4.849426e+000
6.083386e+002,2.443604e+000
6.093028e+002,2.089172e+000
6.102670e+002,2.259155e+000
6.112313e+002,1.574219e+000
6.121955e+002,4.562378e-001
6.131597e+002,-6.473389e-001
6.141240e+002,-1.425781e+000
6.150882e+002,-1.849121e+000
6.160524e+002,-1.240845e+000
6.170167e+002,4.035645e-001
6.179809e+002,2.121521e+000
6.189451e+002,3.243408e+000
6.199094e+002,3.661682e+000
6.208736e+002,4.090759e+000
6.218378e+002,5.768799e+000
6.228021e+002,6.846375e+000
6.237663e+002,7.108521e+000
6.247305e+002,6.825012e+000
6.256948e+002,6.123474e+000
6.266590e+002,4.322327e+000
6.276232e+002,2.761047e+000
6.285875e+002,3.401917e+000
6.295517e+002,4.678894e+000
6.305159e+002,4.366455e+000
6.314802e+002,1.274231e+000
6.324444e+002,-3.089355e+000
6.334086e+002,-3.324890e+000
6.343729e+002,-4.810181e-001
6.353371e+002,2.091492e+000
6.363013e+002,3.105103e+000
6.372656e+002,2.828613e+000
6.382298e+002,2.586487e+000
6.391940e+002,2.595032e+000
6.401583e+002,1.977295e+000
6.411225e+002,1.100708e+000
6.420867e+002,2.831421e-001
6.430510e+002,-6.907349e-001
6.440152e+002,-2.643616e+000
6.449794e+002,-3.578003e+000
6.459437e+002,-1.345947e+000
6.469079e+002,1.364502e+000
6.478721e+002,2.493347e+000
6.488364e+002,1.476990e+000
6.498006e+002,-3.634033e-001
6.507648e+002,-1.100403e+000
6.517291e+002,-1.099792e+000
6.526933e+002,-6.279297e-001
6.536575e+002,2.996216e-001
6.546218e+002,1.028687e+000
6.555860e+002,2.155762e-001
6.565502e+002,-3.713379e+000
6.575145e+002,-5.825012e+000
6.584787e+002,-5.477173e+000
6.594429e+002,-4.050964e+000
6.604072e+002,-2.524536e+000
6.613714e+002,-1.017395e+000
6.623356e+002,8.204346e-001
6.632999e+002,4.032288e+000
6.642641e+002,6.338684e+000
6.652283e+002,6.694580e+000
6.661926e+002,5.275452e+000
6.671568e+002,2.786316e+000
6.681210e+002,-8.878174e-001
6.690853e+002,-4.591125e+000
6.700495e+002,-4.607361e+000
6.710137e+002,-1.112671e+000
6.719780e+002,2.530579e+000
6.729422e+002,2.439758e+000
6.739064e+002,-2.814880e+000
6.748707e+002,-3.957397e+000
6.758349e+002,2.340698e+000
6.767991e+002,7.502014e+000
6.777634e+002,7.557434e+000
6.787276e+002,3.404175e+000
6.796918e+002,3.103638e-001
6.806561e+002,7.385254e-002
6.816203e+002,7.045288e-001
6.825845e+002,2.044189e+000
6.835488e+002,3.605957e+000
6.845130e+002,4.887146e+000
6.854772e+002,5.612549e+000
6.864415e+002,6.048279e+000
6.874057e+002,5.916504e+000
6.883699e+002,5.067505e+000
6.893342e+002,4.258667e+000
6.902984e+002,4.054077e+000
6.912626e+002,4.448975e+000
6.922269e+002,4.517151e+000
6.931911e+002,4.939941e+000
6.941553e+002,5.279907e+000
6.951196e+002,4.733826e+000
6.960838e+002,3.604370e+000
6.970480e+002,2.751587e+000
6.980123e+002,2.741089e+000
6.989765e+002,2.592651e+000
6.999407e+002,1.155762e+000
7.009050e+002,-2.166138e-001
7.018692e+002,-1.082764e-001
7.028334e+002,1.710938e+000
7.037977e+002,3.730530e+000
7.047619e+002,3.750916e+000
7.057261e+002,2.620911e+000
7.066904e+002,1.227478e+000
7.076546e+002,-3.183594e-001
7.086188e+002,-1.857483e+000
7.095831e+002,-3.259216e+000
7.105473e+002,-5.315430e+000
7.115115e+002,-4.978455e+000
7.124758e+002,-5.285034e-001
7.134400e+002,3.825256e+000
7.144042e+002,5.741455e+000
7.153685e+002,5.285339e+000
7.163327e+002,4.364197e+000
7.172969e+002,2.823303e+000
7.182612e+002,2.038086e+000
7.192254e+002,3.191223e+000
7.201896e+002,5.321533e+000
7.211539e+002,6.577393e+000
7.221181e+002,5.379700e+000
7.230823e+002,2.700928e+000
7.240466e+002,1.098145e+000
7.250108e+002,7.413330e-001
7.259750e+002,1.413635e+000
7.269393e+002,2.822388e+000
7.279035e+002,4.318481e+000
7.288677e+002,4.096436e+000
7.298320e+002,4.518433e-001
7.307962e+002,-1.029968e+000
7.317604e+002,1.692505e+000
7.327247e+002,6.225830e+000
7.336889e+002,8.811584e+000
7.346531e+002,7.434204e+000
7.356174e+002,5.011841e+000
7.365816e+002,3.129272e+000
7.375458e+002,2.504272e+000
7.385101e+002,4.502563e+000
7.394743e+002,8.887634e+000
7.404385e+002,1.334613e+001
7.414028e+002,1.383618e+001
7.423670e+002,1.040039e+001
7.433312e+002,7.926819e+000
7.442955e+002,7.366089e+000
7.452597e+002,8.270813e+000
7.462239e+002,9.996887e+000
7.471882e+002,1.265137e+001
7.481524e+002,1.472748e+001
7.491166e+002,1.513580e+001
7.500809e+002,1.509753e+001
7.510451e+002,1.556311e+001
7.520093e+002,1.609027e+001
7.529736e+002,1.493304e+001
7.539378e+002,1.043219e+001
7.549020e+002,6.494141e+000
7.558663e+002,5.477478e+000
7.568306e+002,6.359253e+000
7.577948e+002,7.627319e+000
7.587590e+002,8.226929e+000
7.597233e+002,8.318054e+000
7.606875e+002,9.471985e+000
7.616517e+002,1.182465e+001
7.626160e+002,1.400311e+001
7.635802e+002,1.602820e+001
7.645444e+002,1.750806e+001
7.655087e+002,1.725256e+001
7.664729e+002,1.378510e+001
7.674371e+002,1.151398e+001
7.684014e+002,1.127783e+001
7.693656e+002,1.147400e+001
7.703298e+002,1.112262e+001
7.712941e+002,1.018323e+001
7.722583e+002,9.456787e+000
7.732225e+002,9.732239e+000
7.741868e+002,1.021558e+001
7.751510e+002,1.007031e+001
7.761152e+002,9.612915e+000
7.770795e+002,9.789429e+000
7.780437e+002,1.139935e+001
7.790079e+002,1.395294e+001
7.799722e+002,1.373682e+001
7.809364e+002,1.056720e+001
7.819006e+002,7.697327e+000
7.828649e+002,6.507446e+000
7.838291e+002,6.972534e+000
7.847933e+002,8.459717e+000
7.857576e+002,1.147705e+001
7.867218e+002,1.327753e+001
7.876860e+002,1.390222e+001
7.886503e+002,1.378845e+001
7.896145e+002,1.299048e+001
7.905787e+002,1.161780e+001
7.915430e+002,1.027722e+001
7.925072e+002,8.623230e+000
7.934714e+002,7.349792e+000
7.944357e+002,8.513245e+000
7.953999e+002,1.200854e+001
7.963641e+002,1.574170e+001
7.973284e+002,1.721094e+001
7.982926e+002,1.630414e+001
7.992568e+002,1.479315e+001
8.002211e+002,1.114337e+001
8.011853e+002,7.679688e+000
8.021495e+002,6.217712e+000
8.031138e+002,6.842651e+000
8.040780e+002,7.793762e+000
8.050422e+002,7.641785e+000
8.060065e+002,8.520142e+000
8.069707e+002,1.216998e+001
8.079349e+002,1.589447e+001
8.088992e+002,1.704315e+001
8.098634e+002,1.497845e+001
8.108276e+002,1.174591e+001
8.117919e+002,9.099548e+000
8.127561e+002,6.839050e+000
8.137203e+002,6.540222e+000
8.146846e+002,8.762268e+000
8.156488e+002,1.159607e+001
8.166130e+002,1.227887e+001
8.175773e+002,1.010999e+001
8.185415e+002,9.288391e+000
8.195057e+002,9.867188e+000
8.204700e+002,1.060901e+001
8.214342e+002,1.114349e+001
8.223984e+002,1.155634e+001
8.233627e+002,1.227850e+001
8.243269e+002,1.409656e+001
8.252911e+002,1.523627e+001
8.262554e+002,1.362170e+001
8.272196e+002,1.147614e+001
8.281838e+002,1.115851e+001
8.291481e+002,1.341791e+001
8.301123e+002,1.714874e+001
8.310765e+002,2.091119e+001
8.320408e+002,2.417615e+001
8.330050e+002,2.403040e+001
8.339692e+002,1.948694e+001
8.349335e+002,1.443823e+001
8.358977e+002,1.333716e+001
8.368619e+002,1.710999e+001
8.378262e+002,1.980237e+001
8.387904e+002,2.009399e+001
8.397546e+002,1.988440e+001
8.407189e+002,1.909955e+001
8.416831e+002,1.833539e+001
8.426473e+002,1.855988e+001
8.436116e+002,2.039496e+001
8.445758e+002,2.281744e+001
8.455400e+002,2.457898e+001
8.465043e+002,2.543231e+001
8.474685e+002,2.560596e+001
8.484327e+002,2.549518e+001
8.493970e+002,2.522723e+001
8.503612e+002,2.439844e+001
8.513254e+002,2.257300e+001
8.522897e+002,2.224908e+001
8.532539e+002,2.420300e+001
8.542181e+002,2.588477e+001
8.551824e+002,2.588281e+001
8.561466e+002,2.489545e+001
8.571108e+002,2.528302e+001
8.580751e+002,2.758789e+001
8.590393e+002,2.904480e+001
8.600035e+002,2.852173e+001
8.609678e+002,2.762012e+001
8.619320e+002,2.821112e+001
8.628962e+002,3.091571e+001
8.638605e+002,3.433258e+001
8.648247e+002,3.685645e+001
8.657889e+002,3.825116e+001
8.667532e+002,3.784351e+001
8.677174e+002,3.554608e+001
8.686816e+002,3.270160e+001
8.696459e+002,3.095197e+001
8.706101e+002,3.072028e+001
8.715743e+002,3.025677e+001
8.725386e+002,2.827612e+001
8.735028e+002,2.775964e+001
8.744670e+002,3.003998e+001
8.754313e+002,3.355023e+001
8.763955e+002,3.565155e+001
8.773597e+002,3.538586e+001
8.783240e+002,3.490161e+001
8.792882e+002,3.580682e+001
8.802524e+002,3.683893e+001
8.812167e+002,3.693311e+001
8.821809e+002,3.593878e+001
8.831451e+002,3.443530e+001
8.841094e+002,3.320673e+001
8.850736e+002,3.260272e+001
8.860378e+002,3.268280e+001
8.870021e+002,3.301440e+001
8.879663e+002,3.429285e+001
8.889305e+002,3.767792e+001
8.898948e+002,4.234222e+001
8.908590e+002,4.446259e+001
8.918232e+002,4.202795e+001
8.927875e+002,4.064386e+001
8.937517e+002,4.238403e+001
8.947159e+002,4.491010e+001
8.956802e+002,4.554901e+001
8.966444e+002,4.381226e+001
8.976086e+002,4.226031e+001
8.985729e+002,4.472253e+001
8.995371e+002,4.871216e+001
9.005013e+002,4.886481e+001
9.014656e+002,4.601855e+001
9.024298e+002,4.397308e+001
9.033940e+002,4.542773e+001
9.043583e+002,4.956128e+001
9.053225e+002,5.244421e+001
9.062867e+002,5.232507e+001
9.072510e+002,5.251611e+001
9.082152e+002,5.480994e+001
9.091794e+002,5.724060e+001
9.101437e+002,5.706738e+001
9.111079e+002,5.377130e+001
9.120721e+002,5.153650e+001
9.130364e+002,5.423486e+001
9.140006e+002,5.674933e+001
9.149648e+002,5.599951e+001
9.159291e+002,5.325787e+001
9.168933e+002,5.119446e+001
9.178575e+002,5.147626e+001
9.188218e+002,5.310107e+001
9.197860e+002,5.343689e+001
9.207502e+002,5.231677e+001
9.217145e+002,5.035345e+001
9.226787e+002,4.730414e+001
9.236429e+002,4.477460e+001
9.246072e+002,4.485016e+001
9.255714e+002,4.777734e+001
9.265356e+002,5.032306e+001
9.274999e+002,5.269360e+001
9.284641e+002,5.342865e+001
9.294283e+002,5.116302e+001
9.303926e+002,4.739948e+001
9.313568e+002,4.477966e+001
9.323210e+002,4.470953e+001
9.332853e+002,4.515808e+001
9.342495e+002,4.175940e+001
9.352137e+002,3.680090e+001
9.361780e+002,3.450067e+001
9.371422e+002,3.605420e+001
9.381064e+002,3.958655e+001
9.390707e+002,4.228363e+001
9.400349e+002,4.366479e+001
9.409991e+002,4.438696e+001
9.419634e+002,4.320612e+001
9.429276e+002,4.281073e+001
9.438918e+002,4.486346e+001
9.448561e+002,4.800885e+001
9.458203e+002,4.975122e+001
9.467845e+002,4.923718e+001
9.477488e+002,4.893121e+001
9.487130e+002,5.048511e+001
9.496772e+002,5.294739e+001
9.506415e+002,5.637476e+001
9.516057e+002,6.018335e+001
9.525699e+002,6.285602e+001
9.535342e+002,6.284644e+001
9.544984e+002,6.031683e+001
9.554626e+002,5.790540e+001
9.564269e+002,5.584717e+001
9.573911e+002,5.538287e+001
9.583553e+002,5.804651e+001
9.593196e+002,6.171252e+001
9.602838e+002,6.256262e+001
9.612480e+002,5.943738e+001
9.622123e+002,5.716071e+001
9.631765e+002,5.903278e+001
9.641407e+002,6.046149e+001
9.651050e+002,5.844904e+001
9.660692e+002,5.404565e+001
9.670334e+002,4.995886e+001
9.679977e+002,4.808002e+001
9.689619e+002,4.835370e+001
9.699261e+002,5.095319e+001
9.708904e+002,5.468268e+001
9.718546e+002,5.719086e+001
9.728188e+002,5.783234e+001
9.737831e+002,5.682068e+001
9.747473e+002,5.371881e+001
9.757115e+002,4.754480e+001
9.766758e+002,4.561627e+001
9.776400e+002,5.382422e+001
9.786042e+002,5.980640e+001
9.795685e+002,5.902875e+001
9.805327e+002,5.446344e+001
9.814969e+002,5.028815e+001
9.824612e+002,4.815070e+001
9.834254e+002,4.760284e+001
9.843896e+002,4.888684e+001
9.853539e+002,5.037897e+001
9.863181e+002,4.953345e+001
9.872823e+002,4.670319e+001
9.882466e+002,4.510443e+001
9.892108e+002,4.789240e+001
9.901750e+002,5.515814e+001
9.911393e+002,6.305786e+001
9.921035e+002,7.321307e+001
9.930677e+002,7.841687e+001
9.940320e+002,7.362085e+001
9.949962e+002,6.828534e+001
9.959604e+002,7.220135e+001
9.969247e+002,8.574652e+001
9.978889e+002,9.865234e+001
9.988531e+002,1.055414e+002
9.998174e+002,1.097324e+002
1.000782e+003,1.137642e+002
1.001746e+003,1.173327e+002
1.002710e+003,1.192679e+002
1.003674e+003,1.191691e+002
1.004639e+003,1.181693e+002
1.005603e+003,1.183312e+002
1.006567e+003,1.196236e+002
1.007531e+003,1.203192e+002
1.008495e+003,1.204263e+002
1.009460e+003,1.201572e+002
1.010424e+003,1.194592e+002
1.011388e+003,1.186387e+002
1.012352e+003,1.188841e+002
1.013317e+003,1.219208e+002
1.014281e+003,1.219380e+002
1.015245e+003,1.157016e+002
1.016209e+003,1.074222e+002
1.017174e+003,9.946002e+001
1.018138e+003,9.269440e+001
1.019102e+003,8.749213e+001
1.020066e+003,8.448053e+001
1.021031e+003,8.281305e+001
1.021995e+003,7.889935e+001
1.022959e+003,7.280292e+001
1.023923e+003,6.692358e+001
1.024887e+003,6.211432e+001
1.025852e+003,5.754382e+001
1.026816e+003,5.155847e+001
1.027780e+003,4.361316e+001
1.028744e+003,3.861371e+001
1.029709e+003,3.935248e+001
1.030673e+003,3.998846e+001
1.031637e+003,3.840027e+001
1.032601e+003,3.557391e+001
1.033566e+003,3.308081e+001
1.034530e+003,3.162604e+001
1.035494e+003,3.118689e+001
1.036458e+003,3.200720e+001
1.037422e+003,3.333069e+001
1.038387e+003,3.392645e+001
1.039351e+003,3.373163e+001
1.040315e+003,3.369989e+001
1.041279e+003,3.486285e+001
1.042244e+003,3.687421e+001
1.043208e+003,3.696100e+001
1.044172e+003,3.235394e+001
1.045136e+003,2.973486e+001
1.046101e+003,3.073352e+001
1.047065e+003,3.255286e+001
1.048029e+003,3.343781e+001
1.048993e+003,3.334210e+001
1.049958e+003,3.324530e+001
1.050922e+003,3.395416e+001
1.051886e+003,3.463977e+001
1.052850e+003,3.404150e+001
1.053814e+003,3.293860e+001
1.054779e+003,3.215613e+001
1.055743e+003,3.189136e+001
1.056707e+003,3.222260e+001
1.057671e+003,3.333533e+001
1.058636e+003,3.514764e+001
1.059600e+003,3.601984e+001
1.060564e+003,3.594336e+001
1.061528e+003,3.612720e+001
1.062493e+003,3.615149e+001
1.063457e+003,3.602698e+001
1.064421e+003,3.655750e+001
1.065385e+003,3.793463e+001
1.066349e+003,3.781573e+001
1.067314e+003,3.347430e+001
1.068278e+003,2.914172e+001
1.069242e+003,2.812256e+001
1.070206e+003,2.923889e+001
1.071171e+003,3.017969e+001
1.072135e+003,2.986255e+001
1.073099e+003,2.937866e+001
1.074063e+003,3.106366e+001
1.075028e+003,3.547522e+001
1.075992e+003,3.660089e+001
1.076956e+003,3.229376e+001
1.077920e+003,2.821655e+001
1.078885e+003,2.692499e+001
1.079849e+003,2.762274e+001
1.080813e+003,2.887964e+001
1.081777e+003,3.081525e+001
1.082741e+003,3.202020e+001
1.083706e+003,2.927386e+001
1.084670e+003,2.687640e+001
1.085634e+003,2.779553e+001
1.086598e+003,3.088330e+001
1.087563e+003,3.390552e+001
1.088527e+003,3.573297e+001
1.089491e+003,3.688019e+001
1.090455e+003,3.771539e+001
1.091420e+003,3.784283e+001
1.092384e+003,3.707031e+001
1.093348e+003,3.440808e+001
1.094312e+003,3.198285e+001
1.095276e+003,3.164624e+001
1.096241e+003,3.300275e+001
1.097205e+003,3.418561e+001
1.098169e+003,3.488135e+001
1.099133e+003,3.464447e+001
1.100098e+003,3.220898e+001
1.101062e+003,3.027478e+001
1.102026e+003,3.089722e+001
1.102990e+003,3.350104e+001
1.103955e+003,3.614929e+001
1.104919e+003,3.760291e+001
1.105883e+003,3.867090e+001
1.106847e+003,4.168628e+001
1.107812e+003,4.654651e+001
1.108776e+003,4.915448e+001
1.109740e+003,4.885950e+001
1.110704e+003,4.733508e+001
1.111668e+003,4.521301e+001
1.112633e+003,4.324646e+001
1.113597e+003,4.390936e+001
1.114561e+003,4.863416e+001
1.115525e+003,5.225665e+001
1.116490e+003,5.214972e+001
1.117454e+003,5.143231e+001
1.118418e+003,5.220428e+001
1.119382e+003,5.464990e+001
1.120347e+003,5.786072e+001
1.121311e+003,6.093195e+001
1.122275e+003,6.352484e+001
1.123239e+003,6.639197e+001
1.124203e+003,6.992072e+001
1.125168e+003,7.192334e+001
1.126132e+003,7.169879e+001
1.127096e+003,7.172638e+001
1.128060e+003,7.358588e+001
1.129025e+003,7.690521e+001
1.129989e+003,8.077655e+001
1.130953e+003,8.532288e+001
1.131917e+003,8.954510e+001
1.132882e+003,9.419080e+001
1.133846e+003,9.793658e+001
1.134810e+003,9.899762e+001
1.135774e+003,9.865417e+001
1.136739e+003,9.899915e+001
1.137703e+003,1.012580e+002
1.138667e+003,1.067685e+002
1.139631e+003,1.198103e+002
1.140595e+003,1.388797e+002
1.141560e+003,1.511166e+002
1.142524e+003,1.539139e+002
1.143488e+003,1.585068e+002
1.144452e+003,1.725894e+002
1.145417e+003,1.943702e+002
1.146381e+003,2.175862e+002
1.147345e+003,2.424388e+002
1.148309e+003,2.673513e+002
1.149274e+003,2.919117e+002
1.150238e+003,3.169708e+002
1.151202e+003,3.442785e+002
1.152166e+003,3.726402e+002
1.153130e+003,4.011546e+002
1.154095e+003,4.283937e+002
1.155059e+003,4.489881e+002
1.156023e+003,4.549850e+002
1.156987e+003,4.477634e+002
1.157952e+003,4.419042e+002
1.158916e+003,4.396082e+002
1.159880e+003,4.322985e+002
1.160844e+003,4.119328e+002
1.161809e+003,3.827770e+002
1.162773e+003,3.560795e+002
1.163737e+003,3.327393e+002
1.164701e+003,3.082326e+002
1.165666e+003,2.782890e+002
1.166630e+003,2.510386e+002
1.167594e+003,2.286028e+002
1.168558e+003,2.109809e+002
1.169522e+003,1.981726e+002
1.170487e+003,1.899475e+002
1.171451e+003,1.859926e+002
1.172415e+003,1.863239e+002
1.173379e+003,1.898878e+002
1.174344e+003,1.921628e+002
1.175308e+003,1.935313e+002
1.176272e+003,1.929605e+002
1.177236e+003,1.903273e+002
1.178201e+003,1.857635e+002
1.179165e+003,1.782820e+002
1.180129e+003,1.674596e+002
1.181093e+003,1.577912e+002
1.182057e+003,1.501928e+002
1.183022e+003,1.445431e+002
1.183986e+003,1.411395e+002
1.184950e+003,1.391573e+002
1.185914e+003,1.378704e+002
1.186879e+003,1.373401e+002
1.187843e+003,1.382722e+002
1.188807e+003,1.411301e+002
1.189771e+003,1.451771e+002
1.190736e+003,1.490993e+002
1.191700e+003,1.529930e+002
1.192664e+003,1.547269e+002
1.193628e+003,1.544059e+002
1.194593e+003,1.521167e+002
1.195557e+003,1.463809e+002
1.196521e+003,1.384694e+002
1.197485e+003,1.336969e+002
1.198449e+003,1.343660e+002
1.199414e+003,1.336577e+002
1.200378e+003,1.266010e+002
1.201342e+003,1.189558e+002
1.202306e+003,1.138786e+002
1.203271e+003,1.109310e+002
1.204235e+003,1.088998e+002
1.205199e+003,1.070891e+002
1.206163e+003,1.049622e+002
1.207128e+003,1.014690e+002
1.208092e+003,9.659027e+001
1.209056e+003,9.131372e+001
1.210020e+003,8.611438e+001
1.210984e+003,7.984625e+001
1.211949e+003,7.063702e+001
1.212913e+003,6.091479e+001
1.213877e+003,5.428217e+001
1.214841e+003,5.100818e+001
1.215806e+003,4.788806e+001
1.216770e+003,4.319214e+001
1.217734e+003,3.898541e+001
1.218698e+003,3.670825e+001
1.219663e+003,3.524567e+001
1.220627e+003,3.304016e+001
1.221591e+003,3.007733e+001
1.222555e+003,2.795361e+001
1.223520e+003,2.828229e+001
1.224484e+003,3.055566e+001
1.225448e+003,3.152222e+001
1.226412e+003,3.112781e+001
1.227376e+003,2.891388e+001
1.228341e+003,2.197406e+001
1.229305e+003,1.622852e+001
1.230269e+003,1.595490e+001
1.231233e+003,1.881927e+001
1.232198e+003,2.016693e+001
1.233162e+003,1.897821e+001
1.234126e+003,1.702747e+001
1.235090e+003,1.416559e+001
1.236055e+003,1.197272e+001
1.237019e+003,1.263318e+001
1.237983e+003,1.520660e+001
1.238947e+003,1.777795e+001
1.239911e+003,1.972681e+001
1.240876e+003,2.082599e+001
1.241840e+003,2.029736e+001
1.242804e+003,1.801410e+001
1.243768e+003,1.691278e+001
1.244733e+003,1.805957e+001
1.245697e+003,1.910040e+001
1.246661e+003,1.920715e+001
1.247625e+003,1.895941e+001
1.248590e+003,1.912244e+001
1.249554e+003,1.985211e+001
1.250518e+003,2.053247e+001
1.251482e+003,2.058881e+001
1.252447e+003,2.100635e+001
1.253411e+003,2.387152e+001
1.254375e+003,2.817719e+001
1.255339e+003,3.158472e+001
1.256303e+003,3.414178e+001
1.257268e+003,3.573376e+001
1.258232e+003,3.525269e+001
1.259196e+003,3.417987e+001
1.260160e+003,3.687909e+001
1.261125e+003,4.469617e+001
1.262089e+003,5.019598e+001
1.263053e+003,5.030255e+001
1.264017e+003,4.994275e+001
1.264982e+003,4.955341e+001
1.265946e+003,5.006696e+001
1.266910e+003,5.325830e+001
1.267874e+003,5.822668e+001
1.268839e+003,6.205054e+001
1.269803e+003,6.282904e+001
1.270767e+003,6.089832e+001
1.271731e+003,5.605615e+001
1.272695e+003,4.874878e+001
1.273660e+003,4.503937e+001
1.274624e+003,4.594781e+001
1.275588e+003,4.629041e+001
1.276552e+003,4.338367e+001
1.277517e+003,3.879736e+001
1.278481e+003,3.464276e+001
1.279445e+003,3.083789e+001
1.280409e+003,2.825317e+001
1.281374e+003,2.801318e+001
1.282338e+003,2.814929e+001
1.283302e+003,2.741956e+001
1.284266e+003,2.648859e+001
1.285230e+003,2.693707e+001
1.286195e+003,2.822028e+001
1.287159e+003,2.721716e+001
1.288123e+003,2.150549e+001
1.289087e+003,1.365192e+001
1.290052e+003,1.087555e+001
1.291016e+003,1.491583e+001
1.291980e+003,1.678668e+001
1.292944e+003,1.442334e+001
1.293909e+003,1.204919e+001
1.294873e+003,1.177722e+001
1.295837e+003,1.277740e+001
1.296801e+003,1.378339e+001
1.297766e+003,1.459967e+001
1.298730e+003,1.559686e+001
1.299694e+003,1.713617e+001
1.300658e+003,1.794208e+001
1.301622e+003,1.620929e+001
1.302587e+003,1.340247e+001
1.303551e+003,1.129907e+001
1.304515e+003,1.047632e+001
1.305479e+003,1.151642e+001
1.306444e+003,1.497552e+001
1.307408e+003,1.988751e+001
1.308372e+003,2.380109e+001
1.309336e+003,2.723621e+001
1.310301e+003,2.782068e+001
1.311265e+003,2.325909e+001
1.312229e+003,1.908789e+001
1.313193e+003,1.722620e+001
1.314157e+003,1.615576e+001
1.315122e+003,1.352521e+001
1.316086e+003,9.583557e+000
1.317050e+003,7.293091e+000
1.318014e+003,8.887207e+000
1.318979e+003,1.239545e+001
1.319943e+003,1.405609e+001
1.320907e+003,1.426239e+001
1.321871e+003,1.517743e+001
1.322836e+003,1.651025e+001
1.323800e+003,1.796210e+001
1.324764e+003,1.989264e+001
1.325728e+003,2.174457e+001
1.326693e+003,2.221521e+001
1.327657e+003,2.102808e+001
1.328621e+003,1.967456e+001
1.329585e+003,1.952808e+001
1.330549e+003,1.990546e+001
1.331514e+003,1.901752e+001
1.332478e+003,1.776978e+001
1.333442e+003,1.752698e+001
1.334406e+003,1.835004e+001
1.335371e+003,1.954211e+001
1.336335e+003,2.061481e+001
1.337299e+003,2.112805e+001
1.338263e+003,1.997034e+001
1.339228e+003,1.680029e+001
1.340192e+003,1.535870e+001
1.341156e+003,1.645593e+001
1.342120e+003,1.790094e+001
1.343084e+003,1.990430e+001
1.344049e+003,2.096948e+001
1.345013e+003,1.949591e+001
1.345977e+003,1.659418e+001
1.346941e+003,1.514532e+001
1.347906e+003,1.619092e+001
1.348870e+003,1.801788e+001
1.349834e+003,1.933960e+001
1.350798e+003,1.981580e+001
1.351763e+003,1.934094e+001
1.352727e+003,1.809821e+001
1.353691e+003,1.644702e+001
1.354655e+003,1.444464e+001
1.355620e+003,1.250610e+001
1.356584e+003,1.109283e+001
1.357548e+003,1.033075e+001
1.358512e+003,1.015942e+001
1.359476e+003,1.005554e+001
1.360441e+003,1.051514e+001
1.361405e+003,1.310950e+001
1.362369e+003,1.515863e+001
1.363333e+003,1.514862e+001
1.364298e+003,1.389783e+001
1.365262e+003,1.240167e+001
1.366226e+003,1.112256e+001
1.367190e+003,1.028729e+001
1.368155e+003,1.009357e+001
1.369119e+003,1.051031e+001
1.370083e+003,1.160333e+001
1.371047e+003,1.395618e+001
1.372011e+003,1.532355e+001
1.372976e+003,1.448907e+001
1.373940e+003,1.344098e+001
1.374904e+003,1.240387e+001
1.375868e+003,1.222449e+001
1.376833e+003,1.482800e+001
1.377797e+003,1.955536e+001
1.378761e+003,2.173303e+001
1.379725e+003,1.881158e+001
1.380690e+003,1.506396e+001
1.381654e+003,1.564844e+001
1.382618e+003,1.794202e+001
1.383582e+003,1.774091e+001
1.384547e+003,1.526221e+001
1.385511e+003,1.404047e+001
1.386475e+003,1.585498e+001
1.387439e+003,1.902747e+001
1.388403e+003,2.142023e+001
1.389368e+003,2.298767e+001
1.390332e+003,2.334918e+001
1.391296e+003,2.180084e+001
1.392260e+003,2.103027e+001
1.393225e+003,2.259167e+001
1.394189e+003,2.380157e+001
1.395153e+003,2.293042e+001
1.396117e+003,2.081128e+001
1.397082e+003,1.865747e+001
1.398046e+003,1.709711e+001
1.399010e+003,1.636859e+001
1.399974e+003,1.647333e+001
1.400938e+003,1.678430e+001
1.401903e+003,1.662390e+001
1.402867e+003,1.682233e+001
1.403831e+003,1.803442e+001
1.404795e+003,2.014014e+001
1.405760e+003,2.232770e+001
1.406724e+003,2.426935e+001
1.407688e+003,2.480505e+001
1.408652e+003,2.232184e+001
1.409617e+003,1.804974e+001
1.410581e+003,1.679407e+001
1.411545e+003,2.107758e+001
1.412509e+003,2.525208e+001
1.413474e+003,2.236035e+001
1.414438e+003,1.610736e+001
1.415402e+003,1.324158e+001
1.416366e+003,1.398608e+001
1.417330e+003,1.670404e+001
1.418295e+003,2.131055e+001
1.419259e+003,2.566681e+001
1.420223e+003,2.674420e+001
1.421187e+003,2.480017e+001
1.422152e+003,2.284277e+001
1.423116e+003,2.090747e+001
1.424080e+003,2.066241e+001
1.425044e+003,2.391376e+001
1.426009e+003,2.668323e+001
1.426973e+003,2.774060e+001
1.427937e+003,2.710590e+001
1.428901e+003,2.387018e+001
1.429865e+003,1.923920e+001
1.430830e+003,1.671198e+001
1.431794e+003,1.837634e+001
1.432758e+003,2.242419e+001
1.433722e+003,2.585120e+001
1.434687e+003,2.922546e+001
1.435651e+003,3.291077e+001
1.436615e+003,3.599634e+001
1.437579e+003,3.790210e+001
1.438544e+003,3.869598e+001
1.439508e+003,3.853729e+001
1.440472e+003,3.686810e+001
1.441436e+003,3.509393e+001
1.442401e+003,3.597021e+001
1.443365e+003,3.967175e+001
1.444329e+003,4.235443e+001
1.445293e+003,4.105927e+001
1.446257e+003,3.802917e+001
1.447222e+003,3.737299e+001
1.448186e+003,3.852521e+001
1.449150e+003,3.890845e+001
1.450114e+003,3.828418e+001
1.451079e+003,3.641693e+001
1.452043e+003,3.220184e+001
1.453007e+003,2.792896e+001
1.453971e+003,2.667041e+001
1.454936e+003,2.797620e+001
1.455900e+003,2.956812e+001
1.456864e+003,3.135583e+001
1.457828e+003,3.288477e+001
1.458792e+003,3.363062e+001
1.459757e+003,3.365979e+001
1.460721e+003,3.228436e+001
1.461685e+003,3.044910e+001
1.462649e+003,3.053790e+001
1.463614e+003,3.311536e+001
1.464578e+003,3.560779e+001
1.465542e+003,3.542102e+001
1.466506e+003,3.351849e+001
1.467471e+003,3.348328e+001
1.468435e+003,3.644104e+001
1.469399e+003,3.806891e+001
1.470363e+003,3.617065e+001
1.471328e+003,3.466394e+001
1.472292e+003,3.422528e+001
1.473256e+003,3.380579e+001
1.474220e+003,3.297174e+001
1.475184e+003,3.238867e+001
1.476149e+003,3.305780e+001
1.477113e+003,3.487701e+001
1.478077e+003,3.670679e+001
1.479041e+003,3.781854e+001
1.480006e+003,3.823743e+001
1.480970e+003,3.687830e+001
1.481934e+003,3.191345e+001
1.482898e+003,3.134644e+001
1.483863e+003,3.895624e+001
1.484827e+003,4.492926e+001
1.485791e+003,4.614844e+001
1.486755e+003,4.585480e+001
1.487719e+003,4.603943e+001
1.488684e+003,4.696698e+001
1.489648e+003,4.896021e+001
1.490612e+003,5.231531e+001
1.491576e+003,5.675818e+001
1.492541e+003,6.205219e+001
1.493505e+003,6.779559e+001
1.494469e+003,7.350732e+001
1.495433e+003,7.865619e+001
1.496398e+003,8.235406e+001
1.497362e+003,8.437396e+001
1.498326e+003,8.766150e+001
1.499290e+003,9.416779e+001
1.500255e+003,1.023316e+002
1.501219e+003,1.096815e+002
1.502183e+003,1.164027e+002
1.503147e+003,1.242903e+002
1.504111e+003,1.333997e+002
1.505076e+003,1.454383e+002
1.506040e+003,1.623650e+002
1.507004e+003,1.820496e+002
1.507968e+003,2.024657e+002
1.508933e+003,2.237173e+002
1.509897e+003,2.456179e+002
1.510861e+003,2.689857e+002
1.511825e+003,2.960957e+002
1.512790e+003,3.281902e+002
1.513754e+003,3.641448e+002
1.514718e+003,4.040287e+002
1.515682e+003,4.473127e+002
1.516646e+003,4.857886e+002
1.517611e+003,5.186196e+002
1.518575e+003,5.483684e+002
1.519539e+003,5.771697e+002
1.520503e+003,6.026656e+002
1.521468e+003,6.259633e+002
1.522432e+003,6.434374e+002
1.523396e+003,6.495007e+002
1.524360e+003,6.443549e+002
1.525325e+003,6.336133e+002
1.526289e+003,6.211420e+002
1.527253e+003,6.055268e+002
1.528217e+003,5.837999e+002
1.529182e+003,5.563173e+002
1.530146e+003,5.259402e+002
1.531110e+003,4.932120e+002
1.532074e+003,4.552713e+002
1.533039e+003,4.079033e+002
1.534003e+003,3.587031e+002
1.534967e+003,3.093033e+002
1.535931e+003,2.629026e+002
1.536896e+003,2.217502e+002
1.537860e+003,1.866663e+002
1.538824e+003,1.581422e+002
1.539788e+003,1.360200e+002
1.540752e+003,1.183435e+002
1.541717e+003,1.028616e+002
1.542681e+003,8.988727e+001
1.543645e+003,7.955432e+001
1.544609e+003,7.281018e+001
1.545573e+003,6.790558e+001
1.546538e+003,6.541455e+001
1.547502e+003,6.266968e+001
1.548466e+003,5.886487e+001
1.549430e+003,5.534515e+001
1.550395e+003,5.282343e+001
1.551359e+003,5.131226e+001
1.552323e+003,5.186688e+001
1.553287e+003,5.458118e+001
1.554252e+003,5.496899e+001
1.555216e+003,4.839191e+001
1.556180e+003,3.856238e+001
1.557144e+003,3.459106e+001
1.558109e+003,3.690741e+001
1.559073e+003,3.728625e+001
1.560037e+003,3.405536e+001
1.561001e+003,3.066034e+001
1.561966e+003,2.891022e+001
1.562930e+003,2.800763e+001
1.563894e+003,2.649194e+001
1.564858e+003,2.484259e+001
1.565823e+003,2.464935e+001
1.566787e+003,2.614008e+001
1.567751e+003,2.860242e+001
1.568715e+003,3.211456e+001
1.569679e+003,3.563373e+001
1.570644e+003,3.839215e+001
1.571608e+003,3.936212e+001
1.572572e+003,3.526117e+001
1.573536e+003,2.607910e+001
1.574500e+003,2.155988e+001
1.575465e+003,2.728107e+001
1.576429e+003,3.444055e+001
1.577393e+003,3.538318e+001
1.578357e+003,3.277448e+001
1.579322e+003,3.233777e+001
1.580286e+003,3.440283e+001
1.581250e+003,3.537866e+001
1.582214e+003,3.363434e+001
1.583179e+003,3.267267e+001
1.584143e+003,3.620679e+001
1.585107e+003,4.042682e+001
1.586071e+003,4.004224e+001
1.587036e+003,3.701819e+001
1.588000e+003,3.639111e+001
1.588964e+003,3.908807e+001
1.589928e+003,4.127740e+001
1.590893e+003,4.016754e+001
1.591857e+003,3.755292e+001
1.592821e+003,3.544836e+001
1.593785e+003,3.419592e+001
1.594750e+003,3.588342e+001
1.595714e+003,4.119733e+001
1.596678e+003,4.527832e+001
1.597642e+003,4.576886e+001
1.598606e+003,4.515173e+001
1.599571e+003,4.529565e+001
1.600535e+003,4.593781e+001
1.601499e+003,4.674646e+001
1.602463e+003,4.750476e+001
1.603427e+003,4.787177e+001
1.604392e+003,4.769861e+001
1.605356e+003,4.748785e+001
1.606320e+003,4.838586e+001
1.607284e+003,4.948328e+001
1.608249e+003,4.766449e+001
1.609213e+003,4.282153e+001
1.610177e+003,3.849030e+001
1.611141e+003,3.486237e+001
1.612106e+003,3.277777e+001
1.613070e+003,3.355627e+001
1.614034e+003,3.517194e+001
1.614998e+003,3.739130e+001
1.615963e+003,3.898499e+001
1.616927e+003,3.690955e+001
1.617891e+003,3.134503e+001
1.618855e+003,2.706525e+001
1.619820e+003,2.684015e+001
1.620784e+003,2.818951e+001
1.621748e+003,2.863464e+001
1.622712e+003,2.877484e+001
1.623677e+003,2.835663e+001
1.624641e+003,2.701300e+001
1.625605e+003,2.778839e+001
1.626569e+003,3.224829e+001
1.627533e+003,3.522736e+001
1.628498e+003,3.398541e+001
1.629462e+003,3.148944e+001
1.630426e+003,2.912262e+001
1.631390e+003,2.759326e+001
1.632354e+003,2.895624e+001
1.633319e+003,3.310718e+001
1.634283e+003,3.511627e+001
1.635247e+003,3.062329e+001
1.636211e+003,2.387628e+001
1.637176e+003,2.336078e+001
1.638140e+003,2.875018e+001
1.639104e+003,3.222626e+001
1.640068e+003,3.334332e+001
1.641033e+003,3.256561e+001
1.641997e+003,2.829303e+001
1.642961e+003,2.500171e+001
1.643925e+003,2.553491e+001
1.644890e+003,2.740161e+001
1.645854e+003,2.787518e+001
1.646818e+003,2.744012e+001
1.647782e+003,2.844812e+001
1.648747e+003,3.144073e+001
1.649711e+003,3.394037e+001
1.650675e+003,3.415704e+001
1.651639e+003,3.288568e+001
1.652604e+003,3.079352e+001
1.653568e+003,2.772131e+001
1.654532e+003,2.580695e+001
1.655496e+003,2.544208e+001
1.656460e+003,2.527991e+001
1.657425e+003,2.524915e+001
1.658389e+003,2.527588e+001
1.659353e+003,2.536395e+001
1.660317e+003,2.539056e+001
1.661281e+003,2.549176e+001
1.662246e+003,2.524786e+001
1.663210e+003,2.351990e+001
1.664174e+003,2.016064e+001
1.665138e+003,1.718085e+001
1.666103e+003,1.602393e+001
1.667067e+003,1.617297e+001
1.668031e+003,1.741577e+001
1.668995e+003,1.966949e+001
1.669960e+003,1.999731e+001
1.670924e+003,1.759528e+001
1.671888e+003,1.638885e+001
1.672852e+003,1.859784e+001
1.673817e+003,2.034326e+001
1.674781e+003,1.772314e+001
1.675745e+003,1.437231e+001
1.676709e+003,1.524237e+001
1.677674e+003,1.891431e+001
1.678638e+003,1.961993e+001
1.679602e+003,1.562073e+001
1.680566e+003,1.203137e+001
1.681531e+003,1.342743e+001
1.682495e+003,1.726410e+001
1.683459e+003,1.883112e+001
1.684423e+003,1.825555e+001
1.685387e+003,1.779736e+001
1.686352e+003,1.777936e+001
1.687316e+003,1.804553e+001
1.688280e+003,1.906519e+001
1.689244e+003,1.934137e+001
1.690208e+003,1.647736e+001
1.691173e+003,1.293958e+001
1.692137e+003,1.166266e+001
1.693101e+003,1.252020e+001
1.694065e+003,1.406207e+001
1.695030e+003,1.564191e+001
1.695994e+003,1.622223e+001
1.696958e+003,1.519067e+001
1.697922e+003,1.324194e+001
1.698887e+003,1.006659e+001
1.699851e+003,6.954163e+000
1.700815e+003,8.546143e+000
1.701779e+003,1.487335e+001
1.702744e+003,1.889471e+001
1.703708e+003,1.855359e+001
1.704672e+003,1.680389e+001
1.705636e+003,1.481470e+001
1.706601e+003,1.238202e+001
1.707565e+003,9.274658e+000
1.708529e+003,6.333618e+000
1.709493e+003,5.834900e+000
1.710458e+003,8.297974e+000
1.711422e+003,1.007269e+001
1.712386e+003,9.592041e+000
1.713350e+003,8.635803e+000
1.714314e+003,8.088074e+000
1.715279e+003,7.562439e+000
1.716243e+003,6.848267e+000
1.717207e+003,5.957520e+000
1.718171e+003,4.876404e+000
1.719135e+003,3.691162e+000
1.720100e+003,2.219360e+000
1.721064e+003,-6.896973e-002
1.722028e+003,-2.110901e+000
1.722992e+003,-1.862366e+000
1.723957e+003,7.043457e-001
1.724921e+003,3.331116e+000
1.725885e+003,5.439392e+000
1.726849e+003,6.935791e+000
1.727814e+003,8.599854e+000
1.728778e+003,1.006836e+001
1.729742e+003,1.179803e+001
1.730706e+003,1.242517e+001
1.731671e+003,8.381226e+000
1.732635e+003,2.248413e+000
1.733599e+003,1.220154e+000
1.734563e+003,5.940247e+000
1.735528e+003,9.624390e+000
1.736492e+003,8.515320e+000
1.737456e+003,5.522644e+000
1.738420e+003,4.047485e+000
1.739385e+003,3.253357e+000
1.740349e+003,1.108582e+000
1.741313e+003,-2.775452e+000
1.742277e+003,-4.460815e+000
1.743241e+003,-1.930481e+000
1.744206e+003,1.303101e-001
1.745170e+003,-3.947754e-001
1.746134e+003,-1.705933e-001
1.747098e+003,4.286072e+000
1.748063e+003,9.202637e+000
1.749027e+003,9.743347e+000
1.749991e+003,6.861267e+000
1.750955e+003,4.415955e+000
1.751919e+003,3.696899e+000
1.752884e+003,3.179749e+000
1.753848e+003,1.595337e+000
1.754812e+003,-4.194946e-001
1.755776e+003,-1.277466e+000
1.756741e+003,-6.651611e-001
1.757705e+003,3.068237e-001
1.758669e+003,1.768066e+000
1.759633e+003,2.194580e+000
1.760598e+003,-3.104858e-001
1.761562e+003,-1.951294e+000
1.762526e+003,-6.658325e-001
1.763490e+003,1.609070e+000
1.764455e+003,4.472595e+000
1.765419e+003,7.023621e+000
1.766383e+003,7.503357e+000
1.767347e+003,5.940735e+000
1.768312e+003,4.449219e+000
1.769276e+003,3.923889e+000
1.770240e+003,2.906250e+000
1.771204e+003,-1.025391e-001
1.772168e+003,-3.496094e+000
1.773133e+003,-4.119080e+000
1.774097e+003,-2.302429e+000
1.775061e+003,-1.333008e+000
1.776025e+003,-2.084167e+000
1.776990e+003,-2.556763e+000
1.777954e+003,-1.586304e+000
1.778918e+003,6.384277e-002
1.779882e+003,1.899475e+000
1.780846e+003,3.316772e+000
1.781811e+003,3.735962e+000
1.782775e+003,3.562866e+000
1.783739e+003,3.961670e+000
1.784703e+003,5.329773e+000
1.785668e+003,6.124817e+000
1.786632e+003,5.056885e+000
1.787596e+003,3.109436e+000
1.788560e+003,7.858276e-001
1.789525e+003,-7.728271e-001
1.790489e+003,-4.614258e-002
1.791453e+003,2.117249e+000
1.792417e+003,3.493835e+000
1.793382e+003,3.691406e+000
1.794346e+003,3.893738e+000
1.795310e+003,4.686035e+000
1.796274e+003,5.572021e+000
1.797239e+003,6.338501e+000
1.798203e+003,7.211487e+000
1.799167e+003,7.221985e+000
1.800131e+003,5.230530e+000
1.801095e+003,4.294556e+000
1.802060e+003,6.003052e+000
1.803024e+003,7.697754e+000
1.803988e+003,9.642761e+000
1.804952e+003,1.031213e+001
1.805917e+003,7.466797e+000
1.806881e+003,4.257874e+000
1.807845e+003,4.221191e+000
1.808809e+003,6.508240e+000
1.809773e+003,9.165833e+000
1.810738e+003,1.116089e+001
1.811702e+003,1.100647e+001
1.812666e+003,7.819397e+000
1.813630e+003,4.134583e+000
1.814595e+003,3.409851e+000
1.815559e+003,4.874634e+000
1.816523e+003,5.971008e+000
1.817487e+003,6.772949e+000
1.818452e+003,7.461426e+000
1.819416e+003,8.543518e+000
1.820380e+003,9.189392e+000
1.821344e+003,8.505920e+000
1.822309e+003,7.460754e+000
1.823273e+003,7.086853e+000
1.824237e+003,6.866394e+000
1.825201e+003,5.626587e+000
1.826166e+003,3.822144e+000
1.827130e+003,2.904785e+000
1.828094e+003,2.988464e+000
1.829058e+003,3.708374e+000
1.830022e+003,5.468933e+000
1.830987e+003,7.265015e+000
1.831951e+003,9.001587e+000
1.832915e+003,9.751343e+000
1.833879e+003,7.051208e+000
1.834844e+003,2.298279e+000
1.835808e+003,-2.724609e-001
1.836772e+003,1.147461e-002
1.837736e+003,1.953247e+000
1.838700e+003,4.960083e+000
1.839665e+003,6.411804e+000
1.840629e+003,3.697571e+000
1.841593e+003,-8.110962e-001
1.842557e+003,-2.296692e+000
1.843522e+003,-8.312378e-001
1.844486e+003,-3.026733e-001
1.845450e+003,-1.776978e+000
1.846414e+003,-1.058167e+000
1.847379e+003,3.474548e+000
1.848343e+003,6.608154e+000
1.849307e+003,6.346313e+000
1.850271e+003,5.144531e+000
1.851236e+003,5.144775e+000
1.852200e+003,5.532349e+000
1.853164e+003,4.056091e+000
1.854128e+003,9.074097e-001
1.855093e+003,-1.556213e+000
1.856057e+003,-2.072937e+000
1.857021e+003,-1.144470e+000
1.857985e+003,7.770386e-001
1.858949e+003,2.707825e+000
1.859914e+003,2.764648e+000
1.860878e+003,1.506287e+000
1.861842e+003,1.559509e+000
1.862806e+003,2.827942e+000
1.863771e+003,4.016357e+000
1.864735e+003,4.648621e+000
1.865699e+003,5.733215e+000
1.866663e+003,8.551392e+000
1.867627e+003,1.108997e+001
1.868592e+003,1.120013e+001
1.869556e+003,9.311646e+000
1.870520e+003,6.319153e+000
1.871484e+003,2.546143e+000
1.872449e+003,5.402222e-001
1.873413e+003,1.854919e+000
1.874377e+003,4.402344e+000
1.875341e+003,7.464844e+000
1.876306e+003,9.807800e+000
1.877270e+003,9.942932e+000
1.878234e+003,9.541870e+000
1.879198e+003,1.115625e+001
1.880163e+003,1.339154e+001
1.881127e+003,1.288141e+001
1.882091e+003,1.007550e+001
1.883055e+003,8.704712e+000
1.884020e+003,1.018610e+001
1.884984e+003,1.215417e+001
1.885948e+003,1.246259e+001
1.886912e+003,1.223602e+001
1.887876e+003,1.420300e+001
1.888841e+003,1.796411e+001
1.889805e+003,1.722668e+001
1.890769e+003,1.058600e+001
1.891733e+003,7.315063e+000
1.892698e+003,9.682251e+000
1.893662e+003,1.116510e+001
1.894626e+003,8.481873e+000
1.895590e+003,6.033630e+000
1.896554e+003,7.954651e+000
1.897519e+003,1.138824e+001
1.898483e+003,1.229413e+001
1.899447e+003,1.108539e+001
1.900411e+003,1.109888e+001
1.901376e+003,1.312854e+001
1.902340e+003,1.429974e+001
1.903304e+003,1.300610e+001
1.904268e+003,1.127167e+001
1.905233e+003,1.034637e+001
1.906197e+003,9.865112e+000
1.907161e+003,9.270874e+000
1.908125e+003,9.097595e+000
1.909090e+003,1.022015e+001
1.910054e+003,1.221405e+001
1.911018e+003,1.415393e+001
1.911982e+003,1.579388e+001
1.912947e+003,1.657690e+001
1.913911e+003,1.597803e+001
1.914875e+003,1.559363e+001
1.915839e+003,1.794965e+001
1.916803e+003,2.201074e+001
1.917768e+003,2.433002e+001
1.918732e+003,2.532037e+001
1.919696e+003,2.323175e+001
1.920660e+003,1.591479e+001
1.921625e+003,1.252051e+001
1.922589e+003,1.709888e+001
1.923553e+003,2.195337e+001
1.924517e+003,2.392493e+001
1.925481e+003,2.373425e+001
1.926446e+003,2.060803e+001
1.927410e+003,1.635040e+001
1.928374e+003,1.416779e+001
1.929338e+003,1.405219e+001
1.930303e+003,1.506976e+001
1.931267e+003,1.820087e+001
1.932231e+003,2.058667e+001
1.933195e+003,1.970911e+001
1.934160e+003,1.822095e+001
1.935124e+003,1.855011e+001
1.936088e+003,1.873291e+001
1.937052e+003,1.592944e+001
1.938017e+003,1.178656e+001
1.938981e+003,1.017603e+001
1.939945e+003,1.110968e+001
1.940909e+003,1.089325e+001
1.941874e+003,7.982727e+000
1.942838e+003,5.804993e+000
1.943802e+003,7.972229e+000
1.944766e+003,1.268414e+001
1.945730e+003,1.574506e+001
1.946695e+003,1.696704e+001
1.947659e+003,1.664868e+001
1.948623e+003,1.442267e+001
1.949587e+003,1.399091e+001
1.950552e+003,1.671381e+001
1.951516e+003,1.800580e+001
1.952480e+003,1.554309e+001
1.953444e+003,1.298297e+001
1.954408e+003,1.279919e+001
1.955373e+003,1.348639e+001
1.956337e+003,1.353802e+001
1.957301e+003,1.347900e+001
1.958265e+003,1.378125e+001
1.959230e+003,1.460059e+001
1.960194e+003,1.499939e+001
1.961158e+003,1.341919e+001
1.962122e+003,1.224121e+001
1.963087e+003,1.197473e+001
1.964051e+003,1.260156e+001
1.965015e+003,1.516437e+001
1.965979e+003,1.843420e+001
1.966944e+003,2.103015e+001
1.967908e+003,2.269745e+001
1.968872e+003,2.390845e+001
1.969836e+003,2.462946e+001
1.970801e+003,2.371857e+001
1.971765e+003,2.091870e+001
1.972729e+003,1.899725e+001
1.973693e+003,2.062390e+001
1.974657e+003,2.324744e+001
1.975622e+003,2.208148e+001
1.976586e+003,1.896570e+001
1.977550e+003,1.996838e+001
1.978514e+003,2.447925e+001
1.979479e+003,2.787927e+001
1.980443e+003,2.930798e+001
1.981407e+003,2.826001e+001
1.982371e+003,2.455023e+001
1.983335e+003,2.126733e+001
1.984300e+003,2.047894e+001
1.985264e+003,2.123529e+001
1.986228e+003,2.261694e+001
1.987192e+003,2.424451e+001
1.988157e+003,2.407166e+001
1.989121e+003,2.168201e+001
1.990085e+003,2.048486e+001
1.991049e+003,2.102905e+001
1.992014e+003,2.214661e+001
1.992978e+003,2.460217e+001
1.993942e+003,2.591077e+001
1.994906e+003,2.434283e+001
1.995871e+003,2.229071e+001
1.996835e+003,2.152405e+001
1.997799e+003,2.163788e+001
1.998763e+003,2.172217e+001
1.999728e+003,2.160175e+001
