5.003444e+002,5.145660e+001
5.013087e+002,4.931642e+001
5.022729e+002,4.787379e+001
5.032371e+002,4.703061e+001
5.042014e+002,4.573340e+001
5.051656e+002,4.409819e+001
5.061298e+002,4.253873e+001
5.070941e+002,4.137135e+001
5.080583e+002,4.051880e+001
5.090225e+002,4.025261e+001
5.099868e+002,4.126019e+001
5.109510e+002,4.195657e+001
5.119152e+002,4.104642e+001
5.128795e+002,3.833302e+001
5.138437e+002,3.693353e+001
5.148079e+002,3.925554e+001
5.157722e+002,4.191940e+001
5.167364e+002,4.366226e+001
5.177006e+002,4.420874e+001
5.186649e+002,4.412025e+001
5.196291e+002,4.411679e+001
5.205933e+002,4.401085e+001
5.215576e+002,4.334990e+001
5.225218e+002,4.201726e+001
5.234860e+002,4.013010e+001
5.244503e+002,3.796703e+001
5.254145e+002,3.550951e+001
5.263787e+002,3.410738e+001
5.273430e+002,3.460489e+001
5.283072e+002,3.558467e+001
5.292714e+002,3.472141e+001
5.302357e+002,2.995233e+001
5.311999e+002,2.763303e+001
5.321641e+002,3.028262e+001
5.331284e+002,3.411504e+001
5.340926e+002,3.606235e+001
5.350568e+002,3.485031e+001
5.360211e+002,3.295850e+001
5.369853e+002,3.366643e+001
5.379495e+002,3.459613e+001
5.389138e+002,3.305731e+001
5.398780e+002,2.831102e+001
5.408422e+002,2.225092e+001
5.418065e+002,2.034216e+001
5.427707e+002,2.205042e+001
5.437349e+002,2.446260e+001
5.446992e+002,2.717981e+001
5.456634e+002,2.987834e+001
5.466276e+002,3.146674e+001
5.475919e+002,3.085097e+001
5.485561e+002,3.041260e+001
5.495203e+002,3.056619e+001
5.504846e+002,3.074783e+001
5.514488e+002,3.005180e+001
5.524130e+002,2.774580e+001
5.533773e+002,2.568079e+001
5.543415e+002,2.504201e+001
5.553057e+002,2.496663e+001
5.562700e+002,2.438747e+001
5.572342e+002,2.264825e+001
5.581984e+002,2.061943e+001
5.591627e+002,2.086789e+001
5.601269e+002,2.257675e+001
5.610911e+002,2.393829e+001
5.620554e+002,2.395201e+001
5.630196e+002,2.279355e+001
5.639838e+002,2.247734e+001
5.649481e+002,2.450528e+001
5.659123e+002,2.522787e+001
5.668765e+002,2.336261e+001
5.678408e+002,1.987749e+001
5.688050e+002,1.731163e+001
5.697692e+002,1.629141e+001
5.707335e+002,1.603755e+001
5.716977e+002,1.711862e+001
5.726619e+002,1.858168e+001
5.736262e+002,1.911430e+001
5.745904e+002,1.769177e+001
5.755546e+002,1.568697e+001
5.765189e+002,1.533943e+001
5.774831e+002,1.587880e+001
5.784473e+002,1.608498e+001
5.794116e+002,1.518214e+001
5.803758e+002,1.336723e+001
5.813400e+002,1.220831e+001
5.823043e+002,1.137325e+001
5.832685e+002,1.124106e+001
5.842327e+002,1.237511e+001
5.851970e+002,1.464101e+001
5.861612e+002,1.670222e+001
5.871254e+002,1.865642e+001
5.880897e+002,1.984821e+001
5.890539e+002,1.943105e+001
5.900181e+002,1.823404e+001
5.909824e+002,1.791010e+001
5.919466e+002,2.022725e+001
5.929108e+002,2.202414e+001
5.938751e+002,1.921249e+001
5.948393e+002,1.403578e+001
5.958035e+002,9.939865e+000
5.967678e+002,9.439148e+000
5.977320e+002,1.203918e+001
5.986962e+002,1.387437e+001
5.996605e+002,1.494983e+001
6.006247e+002,1.541049e+001
6.015889e+002,1.535812e+001
6.025532e+002,1.479131e+001
6.035174e+002,1.354259e+001
6.044816e+002,9.564865e+000
6.054459e+002,7.252136e+000
6.064101e+002,8.315750e+000
6.073743e+002,1.130553e+001
6.083386e+002,1.367798e+001
6.093028e+002,1.422670e+001
6.102670e+002,1.361597e+001
6.112313e+002,1.184286e+001
6.121955e+002,9.730179e+000
6.131597e+002,8.218796e+000
6.141240e+002,7.966171e+000
6.150882e+002,8.870758e+000
6.160524e+002,1.153271e+001
6.170167e+002,1.566225e+001
6.179809e+002,1.805849e+001
6.189451e+002,1.659106e+001
6.199094e+002,1.188646e+001
6.208736e+002,9.214478e+000
6.218378e+002,1.102429e+001
6.228021e+002,1.245520e+001
6.237663e+002,1.305128e+001
6.247305e+002,1.307153e+001
6.256948e+002,1.286592e+001
6.266590e+002,1.224164e+001
6.276232e+002,1.190059e+001
6.285875e+002,1.267798e+001
6.295517e+002,1.382190e+001
6.305159e+002,1.452737e+001
6.314802e+002,1.432303e+001
6.324444e+002,1.344327e+001
6.334086e+002,1.262334e+001
6.343729e+002,1.186870e+001
6.353371e+002,1.069159e+001
6.363013e+002,8.760620e+000
6.372656e+002,6.419815e+000
6.382298e+002,4.989761e+000
6.391940e+002,5.048340e+000
6.401583e+002,5.371185e+000
6.411225e+002,6.426346e+000
6.420867e+002,7.704300e+000
6.430510e+002,8.575989e+000
6.440152e+002,8.806931e+000
6.449794e+002,8.431793e+000
6.459437e+002,7.288910e+000
6.469079e+002,5.850601e+000
6.478721e+002,4.178452e+000
6.488364e+002,2.487885e+000
6.498006e+002,1.437881e+000
6.507648e+002,2.930069e+000
6.517291e+002,5.782913e+000
6.526933e+002,6.911179e+000
6.536575e+002,5.642456e+000
6.546218e+002,3.337326e+000
6.555860e+002,2.651474e+000
6.565502e+002,4.699387e+000
6.575145e+002,6.083435e+000
6.584787e+002,6.890152e+000
6.594429e+002,7.098969e+000
6.604072e+002,6.310425e+000
6.613714e+002,4.295502e+000
6.623356e+002,3.090057e+000
6.632999e+002,4.420181e+000
6.642641e+002,6.002899e+000
6.652283e+002,6.874283e+000
6.661926e+002,6.915848e+000
6.671568e+002,6.519501e+000
6.681210e+002,5.953217e+000
6.690853e+002,5.301453e+000
6.700495e+002,4.881882e+000
6.710137e+002,4.701920e+000
6.719780e+002,4.697495e+000
6.729422e+002,4.786041e+000
6.739064e+002,4.924576e+000
6.748707e+002,5.214218e+000
6.758349e+002,5.908417e+000
6.767991e+002,6.382538e+000
6.777634e+002,6.405884e+000
6.787276e+002,6.084305e+000
6.796918e+002,5.774643e+000
6.806561e+002,5.543503e+000
6.816203e+002,5.194672e+000
6.825845e+002,4.363525e+000
6.835488e+002,3.429062e+000
6.845130e+002,3.124313e+000
6.854772e+002,4.098145e+000
6.864415e+002,5.615082e+000
6.874057e+002,5.775162e+000
6.883699e+002,4.881454e+000
6.893342e+002,3.778580e+000
6.902984e+002,2.910507e+000
6.912626e+002,2.377731e+000
6.922269e+002,2.655685e+000
6.931911e+002,5.329971e+000
6.941553e+002,6.911957e+000
6.951196e+002,6.075821e+000
6.960838e+002,4.174088e+000
6.970480e+002,3.658722e+000
6.980123e+002,5.930908e+000
6.989765e+002,7.380432e+000
6.999407e+002,5.886703e+000
7.009050e+002,3.583160e+000
7.018692e+002,2.145737e+000
7.028334e+002,2.119049e+000
7.037977e+002,2.631104e+000
7.047619e+002,2.304306e+000
7.057261e+002,1.652542e+000
7.066904e+002,1.618134e+000
7.076546e+002,2.345093e+000
7.086188e+002,3.476669e+000
7.095831e+002,4.438110e+000
7.105473e+002,5.030945e+000
7.115115e+002,5.940918e+000
7.124758e+002,8.090149e+000
7.134400e+002,9.556778e+000
7.144042e+002,8.884247e+000
7.153685e+002,6.128906e+000
7.163327e+002,3.545181e+000
7.172969e+002,2.055099e+000
7.182612e+002,1.103317e+000
7.192254e+002,3.112946e-001
7.201896e+002,-1.348572e-001
7.211539e+002,4.758453e-001
7.221181e+002,2.970993e+000
7.230823e+002,6.066696e+000
7.240466e+002,5.960373e+000
7.250108e+002,3.487930e+000
7.259750e+002,1.521118e+000
7.269393e+002,1.732880e+000
7.279035e+002,3.696564e+000
7.288677e+002,4.672302e+000
7.298320e+002,3.820358e+000
7.307962e+002,3.395813e+000
7.317604e+002,3.821075e+000
7.327247e+002,4.666946e+000
7.336889e+002,5.286224e+000
7.346531e+002,5.371140e+000
7.356174e+002,5.062134e+000
7.365816e+002,4.618530e+000
7.375458e+002,4.124435e+000
7.385101e+002,3.516464e+000
7.394743e+002,2.841690e+000
7.404385e+002,2.314316e+000
7.414028e+002,2.293121e+000
7.423670e+002,2.476425e+000
7.433312e+002,2.259445e+000
7.442955e+002,1.690979e+000
7.452597e+002,1.404587e+000
7.462239e+002,2.223053e+000
7.471882e+002,4.594620e+000
7.481524e+002,5.855042e+000
7.491166e+002,5.101791e+000
7.500809e+002,4.202576e+000
7.510451e+002,3.958649e+000
7.520093e+002,4.187912e+000
7.529736e+002,4.061584e+000
7.539378e+002,3.163223e+000
7.549020e+002,2.095062e+000
7.558663e+002,9.815979e-001
7.568306e+002,2.218628e-002
7.577948e+002,-6.135559e-001
7.587590e+002,-8.381805e-001
7.597233e+002,-6.477509e-001
7.606875e+002,4.678192e-001
7.616517e+002,2.434067e+000
7.626160e+002,4.108124e+000
7.635802e+002,5.367538e+000
7.645444e+002,6.051300e+000
7.655087e+002,5.573502e+000
7.664729e+002,2.794525e+000
7.674371e+002,1.354782e+000
7.684014e+002,1.731003e+000
7.693656e+002,2.946884e+000
7.703298e+002,4.901825e+000
7.712941e+002,7.357758e+000
7.722583e+002,9.126694e+000
7.732225e+002,8.951950e+000
7.741868e+002,7.994583e+000
7.751510e+002,6.884537e+000
7.761152e+002,5.814209e+000
7.770795e+002,4.928299e+000
7.780437e+002,4.341354e+000
7.790079e+002,4.029251e+000
7.799722e+002,4.139908e+000
7.809364e+002,4.708130e+000
7.819006e+002,5.156448e+000
7.828649e+002,5.026230e+000
7.838291e+002,4.693970e+000
7.847933e+002,5.446182e+000
7.857576e+002,8.658920e+000
7.867218e+002,1.024564e+001
7.876860e+002,8.594345e+000
7.886503e+002,6.132736e+000
7.896145e+002,4.734085e+000
7.905787e+002,4.928238e+000
7.915430e+002,5.947571e+000
7.925072e+002,7.675003e+000
7.934714e+002,9.154221e+000
7.944357e+002,9.252167e+000
7.953999e+002,8.099228e+000
7.963641e+002,6.477219e+000
7.973284e+002,5.164352e+000
7.982926e+002,4.126526e+000
7.992568e+002,4.537079e+000
8.002211e+002,6.924057e+000
8.011853e+002,8.974258e+000
8.021495e+002,1.011269e+001
8.031138e+002,1.054613e+001
8.040780e+002,1.052361e+001
8.050422e+002,9.559341e+000
8.060065e+002,8.674316e+000
8.069707e+002,7.712952e+000
8.079349e+002,7.128616e+000
8.088992e+002,7.730042e+000
8.098634e+002,9.684845e+000
8.108276e+002,1.185161e+001
8.117919e+002,1.253316e+001
8.127561e+002,1.193176e+001
8.137203e+002,1.046405e+001
8.146846e+002,8.333359e+000
8.156488e+002,6.577744e+000
8.166130e+002,6.525269e+000
8.175773e+002,8.603638e+000
8.185415e+002,9.612854e+000
8.195057e+002,9.010345e+000
8.204700e+002,8.065933e+000
8.214342e+002,6.854034e+000
8.223984e+002,5.628540e+000
8.233627e+002,5.081467e+000
8.243269e+002,5.926956e+000
8.252911e+002,6.588684e+000
8.262554e+002,5.551468e+000
8.272196e+002,4.209106e+000
8.281838e+002,4.204987e+000
8.291481e+002,5.987610e+000
8.301123e+002,8.456909e+000
8.310765e+002,9.785141e+000
8.320408e+002,9.874390e+000
8.330050e+002,9.189590e+000
8.339692e+002,7.611282e+000
8.349335e+002,5.772156e+000
8.358977e+002,4.178802e+000
8.368619e+002,2.793884e+000
8.378262e+002,2.338516e+000
8.387904e+002,3.662888e+000
8.397546e+002,4.793900e+000
8.407189e+002,5.245331e+000
8.416831e+002,5.196259e+000
8.426473e+002,5.007507e+000
8.436116e+002,4.817078e+000
8.445758e+002,4.674088e+000
8.455400e+002,4.353821e+000
8.465043e+002,4.026718e+000
8.474685e+002,4.113388e+000
8.484327e+002,4.756912e+000
8.493970e+002,5.694489e+000
8.503612e+002,6.352371e+000
8.513254e+002,6.604767e+000
8.522897e+002,7.246719e+000
8.532539e+002,8.534958e+000
8.542181e+002,9.702286e+000
8.551824e+002,1.032428e+001
8.561466e+002,1.056754e+001
8.571108e+002,1.107271e+001
8.580751e+002,1.234990e+001
8.590393e+002,1.281244e+001
8.600035e+002,1.100806e+001
8.609678e+002,8.822586e+000
8.619320e+002,8.689560e+000
8.628962e+002,1.143460e+001
8.638605e+002,1.491484e+001
8.648247e+002,1.583214e+001
8.657889e+002,1.502673e+001
8.667532e+002,1.415887e+001
8.677174e+002,1.344533e+001
8.686816e+002,1.292239e+001
8.696459e+002,1.261217e+001
8.706101e+002,1.251183e+001
8.715743e+002,1.311853e+001
8.725386e+002,1.518442e+001
8.735028e+002,1.695520e+001
8.744670e+002,1.780241e+001
8.754313e+002,1.796436e+001
8.763955e+002,1.794447e+001
8.773597e+002,1.783757e+001
8.783240e+002,1.800160e+001
8.792882e+002,1.857013e+001
8.802524e+002,1.946815e+001
8.812167e+002,2.109370e+001
8.821809e+002,2.321019e+001
8.831451e+002,2.479111e+001
8.841094e+002,2.444867e+001
8.850736e+002,2.233122e+001
8.860378e+002,2.098170e+001
8.870021e+002,2.025101e+001
8.879663e+002,2.030496e+001
8.889305e+002,2.169525e+001
8.898948e+002,2.403368e+001
8.908590e+002,2.540918e+001
8.918232e+002,2.512645e+001
8.927875e+002,2.494788e+001
8.937517e+002,2.515808e+001
8.947159e+002,2.567819e+001
8.956802e+002,2.649203e+001
8.966444e+002,2.747157e+001
8.976086e+002,2.828278e+001
8.985729e+002,2.855455e+001
8.995371e+002,2.870323e+001
9.005013e+002,2.959966e+001
9.014656e+002,3.106638e+001
9.024298e+002,3.192931e+001
9.033940e+002,3.114314e+001
9.043583e+002,2.892218e+001
9.053225e+002,2.763864e+001
9.062867e+002,2.828455e+001
9.072510e+002,2.850076e+001
9.082152e+002,2.783989e+001
9.091794e+002,2.722159e+001
9.101437e+002,2.771172e+001
9.111079e+002,2.948068e+001
9.120721e+002,3.110321e+001
9.130364e+002,3.171783e+001
9.140006e+002,3.172989e+001
9.149648e+002,3.117426e+001
9.159291e+002,3.035373e+001
9.168933e+002,2.963040e+001
9.178575e+002,2.921552e+001
9.188218e+002,2.902711e+001
9.197860e+002,2.899698e+001
9.207502e+002,2.907332e+001
9.217145e+002,2.928323e+001
9.226787e+002,3.004466e+001
9.236429e+002,3.080002e+001
9.246072e+002,3.063089e+001
9.255714e+002,2.929987e+001
9.265356e+002,2.786830e+001
9.274999e+002,2.590472e+001
9.284641e+002,2.444086e+001
9.294283e+002,2.435277e+001
9.303926e+002,2.498444e+001
9.313568e+002,2.499849e+001
9.323210e+002,2.364600e+001
9.332853e+002,2.203391e+001
9.342495e+002,2.247939e+001
9.352137e+002,2.374658e+001
9.361780e+002,2.388678e+001
9.371422e+002,2.256453e+001
9.381064e+002,2.082996e+001
9.390707e+002,1.994087e+001
9.400349e+002,1.981458e+001
9.409991e+002,2.043346e+001
9.419634e+002,2.264471e+001
9.429276e+002,2.436539e+001
9.438918e+002,2.487273e+001
9.448561e+002,2.464894e+001
9.458203e+002,2.473598e+001
9.467845e+002,2.566824e+001
9.477488e+002,2.581343e+001
9.487130e+002,2.279196e+001
9.496772e+002,1.925891e+001
9.506415e+002,1.711986e+001
9.516057e+002,1.659483e+001
9.525699e+002,1.715685e+001
9.535342e+002,1.830412e+001
9.544984e+002,1.985020e+001
9.554626e+002,2.040881e+001
9.564269e+002,2.002423e+001
9.573911e+002,1.953198e+001
9.583553e+002,1.912820e+001
9.593196e+002,1.868628e+001
9.602838e+002,1.784747e+001
9.612480e+002,1.630219e+001
9.622123e+002,1.550143e+001
9.631765e+002,1.659319e+001
9.641407e+002,1.783533e+001
9.651050e+002,1.880214e+001
9.660692e+002,1.914801e+001
9.670334e+002,1.828914e+001
9.679977e+002,1.587328e+001
9.689619e+002,1.306030e+001
9.699261e+002,1.212378e+001
9.708904e+002,1.261922e+001
9.718546e+002,1.401125e+001
9.728188e+002,1.625706e+001
9.737831e+002,1.893494e+001
9.747473e+002,2.156267e+001
9.757115e+002,2.414223e+001
9.766758e+002,2.684996e+001
9.776400e+002,3.133548e+001
9.786042e+002,3.409868e+001
9.795685e+002,3.353683e+001
9.805327e+002,3.092737e+001
9.814969e+002,2.784627e+001
9.824612e+002,2.487488e+001
9.834254e+002,2.220064e+001
9.843896e+002,1.986790e+001
9.853539e+002,1.784875e+001
9.863181e+002,1.610786e+001
9.872823e+002,1.463905e+001
9.882466e+002,1.369542e+001
9.892108e+002,1.362288e+001
9.901750e+002,1.435078e+001
9.911393e+002,1.440675e+001
9.921035e+002,1.302875e+001
9.930677e+002,1.163260e+001
9.940320e+002,1.013870e+001
9.949962e+002,8.929733e+000
9.959604e+002,8.489670e+000
9.969247e+002,8.830536e+000
9.978889e+002,9.228851e+000
9.988531e+002,9.391129e+000
9.998174e+002,9.184845e+000
1.000782e+003,8.084045e+000
1.001746e+003,6.903519e+000
1.002710e+003,6.874710e+000
1.003674e+003,8.438843e+000
1.004639e+003,1.085532e+001
1.005603e+003,1.294582e+001
1.006567e+003,1.463547e+001
1.007531e+003,1.479250e+001
1.008495e+003,1.281984e+001
1.009460e+003,1.064325e+001
1.010424e+003,9.390884e+000
1.011388e+003,8.901169e+000
1.012352e+003,8.481216e+000
1.013317e+003,8.080612e+000
1.014281e+003,7.570480e+000
1.015245e+003,6.582291e+000
1.016209e+003,5.682877e+000
1.017174e+003,5.241852e+000
1.018138e+003,5.343918e+000
1.019102e+003,6.058701e+000
1.020066e+003,7.594513e+000
1.021031e+003,9.407974e+000
1.021995e+003,9.614441e+000
1.022959e+003,8.443436e+000
1.023923e+003,6.958694e+000
1.024887e+003,5.328506e+000
1.025852e+003,3.807053e+000
1.026816e+003,2.800766e+000
1.027780e+003,2.384506e+000
1.028744e+003,2.484741e+000
1.029709e+003,3.643372e+000
1.030673e+003,4.636292e+000
1.031637e+003,5.458694e+000
1.032601e+003,5.692398e+000
1.033566e+003,4.495590e+000
1.034530e+003,1.664871e+000
1.035494e+003,-1.101288e+000
1.036458e+003,-1.751816e+000
1.037422e+003,-1.278915e+000
1.038387e+003,-1.415176e+000
1.039351e+003,-2.174179e+000
1.040315e+003,-2.681610e+000
1.041279e+003,-2.206421e+000
1.042244e+003,-9.595032e-001
1.043208e+003,-1.814270e-001
1.044172e+003,-5.026703e-001
1.045136e+003,-3.829041e-001
1.046101e+003,6.909027e-001
1.047065e+003,1.790100e+000
1.048029e+003,2.304626e+000
1.048993e+003,2.266739e+000
1.049958e+003,2.011017e+000
1.050922e+003,1.594223e+000
1.051886e+003,1.416458e+000
1.052850e+003,2.002533e+000
1.053814e+003,2.947723e+000
1.054779e+003,3.924149e+000
1.055743e+003,4.749680e+000
1.056707e+003,5.037552e+000
1.057671e+003,4.266953e+000
1.058636e+003,2.410172e+000
1.059600e+003,1.400330e+000
1.060564e+003,1.797821e+000
1.061528e+003,2.387833e+000
1.062493e+003,3.024796e+000
1.063457e+003,3.617203e+000
1.064421e+003,4.356079e+000
1.065385e+003,5.262024e+000
1.066349e+003,5.266190e+000
1.067314e+003,2.728851e+000
1.068278e+003,4.625397e-001
1.069242e+003,9.669342e-001
1.070206e+003,2.925308e+000
1.071171e+003,3.993469e+000
1.072135e+003,3.248230e+000
1.073099e+003,2.036011e+000
1.074063e+003,2.790588e+000
1.075028e+003,5.857483e+000
1.075992e+003,6.656052e+000
1.076956e+003,3.914688e+000
1.077920e+003,1.344238e+000
1.078885e+003,5.189819e-001
1.079849e+003,7.788849e-001
1.080813e+003,7.266693e-001
1.081777e+003,1.393127e-002
1.082741e+003,-1.690674e-002
1.083706e+003,2.360840e+000
1.084670e+003,4.527588e+000
1.085634e+003,5.059891e+000
1.086598e+003,4.222641e+000
1.087563e+003,2.559998e+000
1.088527e+003,5.253296e-001
1.089491e+003,-1.283447e+000
1.090455e+003,-1.774490e+000
1.091420e+003,-8.367767e-001
1.092384e+003,2.542419e-001
1.093348e+003,1.961990e+000
1.094312e+003,2.891052e+000
1.095276e+003,1.789642e+000
1.096241e+003,-5.960083e-001
1.097205e+003,-2.114212e+000
1.098169e+003,-2.399368e+000
1.099133e+003,-2.358246e+000
1.100098e+003,-2.226151e+000
1.101062e+003,-1.938660e+000
1.102026e+003,-1.355377e+000
1.102990e+003,-5.773468e-001
1.103955e+003,2.354584e-001
1.104919e+003,9.618225e-001
1.105883e+003,1.405212e+000
1.106847e+003,1.101974e+000
1.107812e+003,2.220154e-002
1.108776e+003,-8.597260e-001
1.109740e+003,-1.663239e+000
1.110704e+003,-1.938263e+000
1.111668e+003,-8.033905e-001
1.112633e+003,1.317062e+000
1.113597e+003,2.191940e+000
1.114561e+003,9.563751e-001
1.115525e+003,-1.648102e-001
1.116490e+003,-4.988251e-001
1.117454e+003,-5.182953e-001
1.118418e+003,-5.886383e-001
1.119382e+003,-5.139313e-001
1.120347e+003,4.435883e-001
1.121311e+003,2.659607e+000
1.122275e+003,4.814240e+000
1.123239e+003,3.960876e+000
1.124203e+003,5.571594e-001
1.125168e+003,-7.355194e-001
1.126132e+003,1.026138e+000
1.127096e+003,3.397186e+000
1.128060e+003,4.638672e+000
1.129025e+003,4.894867e+000
1.129989e+003,4.916870e+000
1.130953e+003,4.535934e+000
1.131917e+003,4.327347e+000
1.132882e+003,4.961304e+000
1.133846e+003,5.377625e+000
1.134810e+003,4.714539e+000
1.135774e+003,3.313599e+000
1.136739e+003,2.004349e+000
1.137703e+003,1.255463e+000
1.138667e+003,9.464417e-001
1.139631e+003,8.447723e-001
1.140595e+003,1.029999e+000
1.141560e+003,2.059387e+000
1.142524e+003,4.262772e+000
1.143488e+003,6.464401e+000
1.144452e+003,7.661926e+000
1.145417e+003,8.183197e+000
1.146381e+003,9.256454e+000
1.147345e+003,1.100262e+001
1.148309e+003,1.299126e+001
1.149274e+003,1.542081e+001
1.150238e+003,1.780731e+001
1.151202e+003,1.993987e+001
1.152166e+003,2.189833e+001
1.153130e+003,2.393797e+001
1.154095e+003,2.607098e+001
1.155059e+003,2.771008e+001
1.156023e+003,2.801619e+001
1.156987e+003,2.719528e+001
1.157952e+003,2.703270e+001
1.158916e+003,2.803487e+001
1.159880e+003,2.776482e+001
1.160844e+003,2.379701e+001
1.161809e+003,1.776439e+001
1.162773e+003,1.356706e+001
1.163737e+003,1.149222e+001
1.164701e+003,1.009201e+001
1.165666e+003,9.899994e+000
1.166630e+003,9.491348e+000
1.167594e+003,8.263062e+000
1.168558e+003,6.506683e+000
1.169522e+003,4.309952e+000
1.170487e+003,1.945190e+000
1.171451e+003,4.241180e-001
1.172415e+003,1.019745e+000
1.173379e+003,3.213455e+000
1.174344e+003,4.403549e+000
1.175308e+003,4.667313e+000
1.176272e+003,4.345078e+000
1.177236e+003,3.018005e+000
1.178201e+003,1.609772e+000
1.179165e+003,1.558655e+000
1.180129e+003,2.834808e+000
1.181093e+003,3.093994e+000
1.182057e+003,9.483490e-001
1.183022e+003,-8.310394e-001
1.183986e+003,-9.062653e-001
1.184950e+003,-3.836060e-001
1.185914e+003,-2.518463e-001
1.186879e+003,-6.412964e-001
1.187843e+003,-1.182053e+000
1.188807e+003,-1.606674e+000
1.189771e+003,-1.862671e+000
1.190736e+003,-1.607712e+000
1.191700e+003,-7.697296e-001
1.192664e+003,-2.696228e-001
1.193628e+003,-1.463928e-001
1.194593e+003,-3.296051e-001
1.195557e+003,-9.772644e-001
1.196521e+003,-1.929352e+000
1.197485e+003,-2.561935e+000
1.198449e+003,-2.703339e+000
1.199414e+003,-2.726639e+000
1.200378e+003,-2.710541e+000
1.201342e+003,-2.704117e+000
1.202306e+003,-2.821091e+000
1.203271e+003,-3.004913e+000
1.204235e+003,-2.946823e+000
1.205199e+003,-2.556641e+000
1.206163e+003,-2.422684e+000
1.207128e+003,-3.650223e+000
1.208092e+003,-6.337738e+000
1.209056e+003,-7.843338e+000
1.210020e+003,-7.537201e+000
1.210984e+003,-7.514130e+000
1.211949e+003,-8.963440e+000
1.212913e+003,-1.067963e+001
1.213877e+003,-1.063165e+001
1.214841e+003,-8.769455e+000
1.215806e+003,-8.148514e+000
1.216770e+003,-1.091513e+001
1.217734e+003,-1.371123e+001
1.218698e+003,-1.426695e+001
1.219663e+003,-1.357368e+001
1.220627e+003,-1.241763e+001
1.221591e+003,-1.125220e+001
1.222555e+003,-1.083084e+001
1.223520e+003,-1.189114e+001
1.224484e+003,-1.389369e+001
1.225448e+003,-1.436284e+001
1.226412e+003,-1.194377e+001
1.227376e+003,-1.111151e+001
1.228341e+003,-1.330202e+001
1.229305e+003,-1.545551e+001
1.230269e+003,-1.584323e+001
1.231233e+003,-1.504451e+001
1.232198e+003,-1.424110e+001
1.233162e+003,-1.368637e+001
1.234126e+003,-1.331723e+001
1.235090e+003,-1.318289e+001
1.236055e+003,-1.324425e+001
1.237019e+003,-1.348338e+001
1.237983e+003,-1.387059e+001
1.238947e+003,-1.427768e+001
1.239911e+003,-1.461766e+001
1.240876e+003,-1.494710e+001
1.241840e+003,-1.546397e+001
1.242804e+003,-1.621725e+001
1.243768e+003,-1.620860e+001
1.244733e+003,-1.430827e+001
1.245697e+003,-1.314203e+001
1.246661e+003,-1.356671e+001
1.247625e+003,-1.431813e+001
1.248590e+003,-1.425751e+001
1.249554e+003,-1.358537e+001
1.250518e+003,-1.345943e+001
1.251482e+003,-1.450410e+001
1.252447e+003,-1.558000e+001
1.253411e+003,-1.503926e+001
1.254375e+003,-1.357059e+001
1.255339e+003,-1.262494e+001
1.256303e+003,-1.224686e+001
1.257268e+003,-1.230957e+001
1.258232e+003,-1.302261e+001
1.259196e+003,-1.391283e+001
1.260160e+003,-1.388319e+001
1.261125e+003,-1.276585e+001
1.262089e+003,-1.137019e+001
1.263053e+003,-9.075882e+000
1.264017e+003,-7.560776e+000
1.264982e+003,-7.856873e+000
1.265946e+003,-8.567032e+000
1.266910e+003,-8.112396e+000
1.267874e+003,-6.697174e+000
1.268839e+003,-5.864212e+000
1.269803e+003,-6.637573e+000
1.270767e+003,-8.308334e+000
1.271731e+003,-9.685791e+000
1.272695e+003,-1.067293e+001
1.273660e+003,-1.072258e+001
1.274624e+003,-9.411423e+000
1.275588e+003,-8.559723e+000
1.276552e+003,-9.468887e+000
1.277517e+003,-1.122226e+001
1.278481e+003,-1.216312e+001
1.279445e+003,-1.217726e+001
1.280409e+003,-1.211037e+001
1.281374e+003,-1.221935e+001
1.282338e+003,-1.228011e+001
1.283302e+003,-1.239752e+001
1.284266e+003,-1.229939e+001
1.285230e+003,-1.139592e+001
1.286195e+003,-9.873596e+000
1.287159e+003,-8.715866e+000
1.288123e+003,-8.709412e+000
1.289087e+003,-9.443054e+000
1.290052e+003,-9.781387e+000
1.291016e+003,-9.578049e+000
1.291980e+003,-9.719254e+000
1.292944e+003,-1.052402e+001
1.293909e+003,-1.134612e+001
1.294873e+003,-1.202730e+001
1.295837e+003,-1.242952e+001
1.296801e+003,-1.214963e+001
1.297766e+003,-1.123958e+001
1.298730e+003,-1.088322e+001
1.299694e+003,-1.207875e+001
1.300658e+003,-1.345473e+001
1.301622e+003,-1.334804e+001
1.302587e+003,-1.240381e+001
1.303551e+003,-1.163235e+001
1.304515e+003,-1.118098e+001
1.305479e+003,-1.057094e+001
1.306444e+003,-9.353607e+000
1.307408e+003,-7.887253e+000
1.308372e+003,-7.303375e+000
1.309336e+003,-7.745209e+000
1.310301e+003,-8.680923e+000
1.311265e+003,-1.075557e+001
1.312229e+003,-1.239723e+001
1.313193e+003,-1.283598e+001
1.314157e+003,-1.284027e+001
1.315122e+003,-1.325993e+001
1.316086e+003,-1.416694e+001
1.317050e+003,-1.512406e+001
1.318014e+003,-1.584702e+001
1.318979e+003,-1.615105e+001
1.319943e+003,-1.554886e+001
1.320907e+003,-1.415686e+001
1.321871e+003,-1.341119e+001
1.322836e+003,-1.368445e+001
1.323800e+003,-1.376492e+001
1.324764e+003,-1.275053e+001
1.325728e+003,-1.125195e+001
1.326693e+003,-1.034962e+001
1.327657e+003,-1.011829e+001
1.328621e+003,-1.003105e+001
1.329585e+003,-1.005142e+001
1.330549e+003,-9.637589e+000
1.331514e+003,-8.027374e+000
1.332478e+003,-6.554306e+000
1.333442e+003,-6.604218e+000
1.334406e+003,-7.977341e+000
1.335371e+003,-9.621689e+000
1.336335e+003,-1.087555e+001
1.337299e+003,-1.178305e+001
1.338263e+003,-1.245512e+001
1.339228e+003,-1.289667e+001
1.340192e+003,-1.302134e+001
1.341156e+003,-1.265620e+001
1.342120e+003,-1.226086e+001
1.343084e+003,-1.199429e+001
1.344049e+003,-1.175087e+001
1.345013e+003,-1.154800e+001
1.345977e+003,-1.119727e+001
1.346941e+003,-1.017117e+001
1.347906e+003,-8.235962e+000
1.348870e+003,-6.297165e+000
1.349834e+003,-5.055893e+000
1.350798e+003,-4.550751e+000
1.351763e+003,-4.679947e+000
1.352727e+003,-5.376785e+000
1.353691e+003,-6.511520e+000
1.354655e+003,-8.252960e+000
1.355620e+003,-9.641113e+000
1.356584e+003,-8.964478e+000
1.357548e+003,-6.587875e+000
1.358512e+003,-6.352798e+000
1.359476e+003,-9.827621e+000
1.360441e+003,-1.187926e+001
1.361405e+003,-9.632126e+000
1.362369e+003,-7.337112e+000
1.363333e+003,-7.345627e+000
1.364298e+003,-8.477615e+000
1.365262e+003,-8.722382e+000
1.366226e+003,-7.731934e+000
1.367190e+003,-7.030121e+000
1.368155e+003,-8.017578e+000
1.369119e+003,-9.729691e+000
1.370083e+003,-8.942871e+000
1.371047e+003,-4.498566e+000
1.372011e+003,-2.468887e+000
1.372976e+003,-4.619934e+000
1.373940e+003,-6.868164e+000
1.374904e+003,-7.873199e+000
1.375868e+003,-8.006500e+000
1.376833e+003,-7.499695e+000
1.377797e+003,-6.553665e+000
1.378761e+003,-6.047455e+000
1.379725e+003,-6.567444e+000
1.380690e+003,-6.856613e+000
1.381654e+003,-4.483749e+000
1.382618e+003,-1.626816e+000
1.383582e+003,-1.842484e+000
1.384547e+003,-4.909393e+000
1.385511e+003,-7.764160e+000
1.386475e+003,-8.964035e+000
1.387439e+003,-9.030457e+000
1.388403e+003,-8.376709e+000
1.389368e+003,-7.014877e+000
1.390332e+003,-6.592438e+000
1.391296e+003,-7.648651e+000
1.392260e+003,-8.566956e+000
1.393225e+003,-9.119873e+000
1.394189e+003,-9.347733e+000
1.395153e+003,-9.147232e+000
1.396117e+003,-8.682220e+000
1.397082e+003,-8.153229e+000
1.398046e+003,-7.616776e+000
1.399010e+003,-6.959229e+000
1.399974e+003,-6.101288e+000
1.400938e+003,-5.340759e+000
1.401903e+003,-5.480118e+000
1.402867e+003,-6.737869e+000
1.403831e+003,-7.060562e+000
1.404795e+003,-5.765686e+000
1.405760e+003,-4.670563e+000
1.406724e+003,-4.493958e+000
1.407688e+003,-4.996475e+000
1.408652e+003,-6.068802e+000
1.409617e+003,-7.406494e+000
1.410581e+003,-8.086212e+000
1.411545e+003,-7.676071e+000
1.412509e+003,-6.921494e+000
1.413474e+003,-6.632416e+000
1.414438e+003,-6.490143e+000
1.415402e+003,-5.563141e+000
1.416366e+003,-4.007980e+000
1.417330e+003,-3.272491e+000
1.418295e+003,-4.100250e+000
1.419259e+003,-5.237671e+000
1.420223e+003,-4.931900e+000
1.421187e+003,-3.607330e+000
1.422152e+003,-4.037323e+000
1.423116e+003,-7.198151e+000
1.424080e+003,-8.806229e+000
1.425044e+003,-5.679169e+000
1.426009e+003,-3.077240e+000
1.426973e+003,-4.031433e+000
1.427937e+003,-6.208679e+000
1.428901e+003,-6.534790e+000
1.429865e+003,-4.908951e+000
1.430830e+003,-3.471649e+000
1.431794e+003,-3.668488e+000
1.432758e+003,-4.752899e+000
1.433722e+003,-5.160995e+000
1.434687e+003,-4.732056e+000
1.435651e+003,-4.470856e+000
1.436615e+003,-4.908615e+000
1.437579e+003,-5.170029e+000
1.438544e+003,-5.040680e+000
1.439508e+003,-4.794632e+000
1.440472e+003,-4.514572e+000
1.441436e+003,-4.205276e+000
1.442401e+003,-3.817627e+000
1.443365e+003,-3.401154e+000
1.444329e+003,-3.338043e+000
1.445293e+003,-3.987350e+000
1.446257e+003,-4.843323e+000
1.447222e+003,-4.793701e+000
1.448186e+003,-4.088882e+000
1.449150e+003,-4.188248e+000
1.450114e+003,-5.514542e+000
1.451079e+003,-6.513672e+000
1.452043e+003,-6.202240e+000
1.453007e+003,-5.171600e+000
1.453971e+003,-4.011261e+000
1.454936e+003,-2.860825e+000
1.455900e+003,-2.522507e+000
1.456864e+003,-3.377136e+000
1.457828e+003,-4.164398e+000
1.458792e+003,-3.923126e+000
1.459757e+003,-3.624100e+000
1.460721e+003,-4.627716e+000
1.461685e+003,-6.030807e+000
1.462649e+003,-5.588715e+000
1.463614e+003,-2.885544e+000
1.464578e+003,-2.158966e-001
1.465542e+003,3.816223e-001
1.466506e+003,-6.047668e-001
1.467471e+003,-1.797394e+000
1.468435e+003,-3.232574e+000
1.469399e+003,-4.333527e+000
1.470363e+003,-5.479507e+000
1.471328e+003,-5.800301e+000
1.472292e+003,-4.638535e+000
1.473256e+003,-3.195572e+000
1.474220e+003,-1.883377e+000
1.475184e+003,-9.625244e-001
1.476149e+003,-9.782562e-001
1.477113e+003,-1.971069e+000
1.478077e+003,-3.040100e+000
1.479041e+003,-3.258377e+000
1.480006e+003,-2.777573e+000
1.480970e+003,-2.210571e+000
1.481934e+003,-1.584061e+000
1.482898e+003,-1.067261e+000
1.483863e+003,-5.794525e-001
1.484827e+003,-3.325806e-001
1.485791e+003,-4.673920e-001
1.486755e+003,-6.822357e-001
1.487719e+003,-7.104340e-001
1.488684e+003,-6.560211e-001
1.489648e+003,-8.391724e-001
1.490612e+003,-1.319489e+000
1.491576e+003,-1.670029e+000
1.492541e+003,-1.572418e+000
1.493505e+003,-1.169708e+000
1.494469e+003,-8.420715e-001
1.495433e+003,-5.831757e-001
1.496398e+003,3.239441e-001
1.497362e+003,2.368591e+000
1.498326e+003,4.120377e+000
1.499290e+003,4.439972e+000
1.500255e+003,4.306702e+000
1.501219e+003,5.121613e+000
1.502183e+003,6.707703e+000
1.503147e+003,7.866608e+000
1.504111e+003,8.218750e+000
1.505076e+003,8.770584e+000
1.506040e+003,1.040207e+001
1.507004e+003,1.219684e+001
1.507968e+003,1.286073e+001
1.508933e+003,1.309872e+001
1.509897e+003,1.451688e+001
1.510861e+003,1.745004e+001
1.511825e+003,2.075812e+001
1.512790e+003,2.363843e+001
1.513754e+003,2.619612e+001
1.514718e+003,2.865562e+001
1.515682e+003,3.096834e+001
1.516646e+003,3.342377e+001
1.517611e+003,3.608527e+001
1.518575e+003,3.899684e+001
1.519539e+003,4.349471e+001
1.520503e+003,4.697882e+001
1.521468e+003,4.751024e+001
1.522432e+003,4.638867e+001
1.523396e+003,4.536365e+001
1.524360e+003,4.476584e+001
1.525325e+003,4.404655e+001
1.526289e+003,4.286456e+001
1.527253e+003,4.125134e+001
1.528217e+003,3.916312e+001
1.529182e+003,3.663646e+001
1.530146e+003,3.455457e+001
1.531110e+003,3.369069e+001
1.532074e+003,3.169421e+001
1.533039e+003,2.727802e+001
1.534003e+003,2.287076e+001
1.534967e+003,1.981308e+001
1.535931e+003,1.738306e+001
1.536896e+003,1.435188e+001
1.537860e+003,1.099464e+001
1.538824e+003,8.870316e+000
1.539788e+003,8.659943e+000
1.540752e+003,8.881409e+000
1.541717e+003,7.608871e+000
1.542681e+003,5.203918e+000
1.543645e+003,3.789261e+000
1.544609e+003,4.015823e+000
1.545573e+003,3.780716e+000
1.546538e+003,2.214798e+000
1.547502e+003,1.147949e+000
1.548466e+003,1.377289e+000
1.549430e+003,2.471375e+000
1.550395e+003,4.560867e+000
1.551359e+003,6.939926e+000
1.552323e+003,7.861160e+000
1.553287e+003,6.799728e+000
1.554252e+003,5.196640e+000
1.555216e+003,4.215973e+000
1.556180e+003,3.768250e+000
1.557144e+003,3.753677e+000
1.558109e+003,4.216858e+000
1.559073e+003,4.587524e+000
1.560037e+003,4.890656e+000
1.561001e+003,4.791168e+000
1.561966e+003,3.809097e+000
1.562930e+003,2.913956e+000
1.563894e+003,3.161621e+000
1.564858e+003,4.083038e+000
1.565823e+003,4.488129e+000
1.566787e+003,4.155197e+000
1.567751e+003,3.740738e+000
1.568715e+003,3.619476e+000
1.569679e+003,3.627487e+000
1.570644e+003,3.494217e+000
1.571608e+003,3.273163e+000
1.572572e+003,3.208527e+000
1.573536e+003,3.348938e+000
1.574500e+003,3.813904e+000
1.575465e+003,5.033768e+000
1.576429e+003,5.916687e+000
1.577393e+003,5.008881e+000
1.578357e+003,3.343567e+000
1.579322e+003,2.944321e+000
1.580286e+003,3.947678e+000
1.581250e+003,5.977051e+000
1.582214e+003,9.470810e+000
1.583179e+003,1.184979e+001
1.584143e+003,1.027350e+001
1.585107e+003,7.293152e+000
1.586071e+003,6.510468e+000
1.587036e+003,7.391205e+000
1.588000e+003,8.102936e+000
1.588964e+003,8.219833e+000
1.589928e+003,7.904434e+000
1.590893e+003,6.686996e+000
1.591857e+003,5.677765e+000
1.592821e+003,7.062263e+000
1.593785e+003,1.033430e+001
1.594750e+003,1.245358e+001
1.595714e+003,1.293787e+001
1.596678e+003,1.277577e+001
1.597642e+003,1.204936e+001
1.598606e+003,1.126385e+001
1.599571e+003,1.079758e+001
1.600535e+003,1.056936e+001
1.601499e+003,1.028963e+001
1.602463e+003,1.006772e+001
1.603427e+003,1.074757e+001
1.604392e+003,1.281866e+001
1.605356e+003,1.474035e+001
1.606320e+003,1.454232e+001
1.607284e+003,1.313228e+001
1.608249e+003,1.332648e+001
1.609213e+003,1.519763e+001
1.610177e+003,1.632629e+001
1.611141e+003,1.596375e+001
1.612106e+003,1.572536e+001
1.613070e+003,1.680043e+001
1.614034e+003,1.788541e+001
1.614998e+003,1.808449e+001
1.615963e+003,1.762453e+001
1.616927e+003,1.666796e+001
1.617891e+003,1.540115e+001
1.618855e+003,1.471037e+001
1.619820e+003,1.521446e+001
1.620784e+003,1.584978e+001
1.621748e+003,1.480099e+001
1.622712e+003,1.261657e+001
1.623677e+003,1.241759e+001
1.624641e+003,1.465053e+001
1.625605e+003,1.644200e+001
1.626569e+003,1.718062e+001
1.627533e+003,1.701902e+001
1.628498e+003,1.523284e+001
1.629462e+003,1.349483e+001
1.630426e+003,1.337080e+001
1.631390e+003,1.436327e+001
1.632354e+003,1.531842e+001
1.633319e+003,1.589294e+001
1.634283e+003,1.614193e+001
1.635247e+003,1.599198e+001
1.636211e+003,1.585352e+001
1.637176e+003,1.691597e+001
1.638140e+003,1.903401e+001
1.639104e+003,1.922013e+001
1.640068e+003,1.667835e+001
1.641033e+003,1.482540e+001
1.641997e+003,1.483908e+001
1.642961e+003,1.530424e+001
1.643925e+003,1.564392e+001
1.644890e+003,1.592721e+001
1.645854e+003,1.632259e+001
1.646818e+003,1.668693e+001
1.647782e+003,1.649203e+001
1.648747e+003,1.564751e+001
1.649711e+003,1.518553e+001
1.650675e+003,1.610430e+001
1.651639e+003,1.775739e+001
1.652604e+003,1.884620e+001
1.653568e+003,1.933620e+001
1.654532e+003,1.903484e+001
1.655496e+003,1.751649e+001
1.656460e+003,1.673592e+001
1.657425e+003,1.809595e+001
1.658389e+003,1.922324e+001
1.659353e+003,1.851682e+001
1.660317e+003,1.717853e+001
1.661281e+003,1.654742e+001
1.662246e+003,1.643098e+001
1.663210e+003,1.587774e+001
1.664174e+003,1.460813e+001
1.665138e+003,1.322601e+001
1.666103e+003,1.206575e+001
1.667067e+003,1.130022e+001
1.668031e+003,1.165217e+001
1.668995e+003,1.300248e+001
1.669960e+003,1.312394e+001
1.670924e+003,1.140125e+001
1.671888e+003,1.053552e+001
1.672852e+003,1.198796e+001
1.673817e+003,1.350546e+001
1.674781e+003,1.359832e+001
1.675745e+003,1.304693e+001
1.676709e+003,1.268898e+001
1.677674e+003,1.245261e+001
1.678638e+003,1.171663e+001
1.679602e+003,1.030720e+001
1.680566e+003,9.258720e+000
1.681531e+003,9.605125e+000
1.682495e+003,1.055676e+001
1.683459e+003,1.064398e+001
1.684423e+003,9.984665e+000
1.685387e+003,9.649788e+000
1.686352e+003,9.832695e+000
1.687316e+003,9.640160e+000
1.688280e+003,8.487259e+000
1.689244e+003,7.453018e+000
1.690208e+003,7.594620e+000
1.691173e+003,8.071236e+000
1.692137e+003,7.940575e+000
1.693101e+003,7.417213e+000
1.694065e+003,7.159210e+000
1.695030e+003,7.272690e+000
1.695994e+003,7.513199e+000
1.696958e+003,7.946526e+000
1.697922e+003,8.234169e+000
1.698887e+003,7.864037e+000
1.699851e+003,7.033447e+000
1.700815e+003,6.357101e+000
1.701779e+003,5.847702e+000
1.702744e+003,4.749664e+000
1.703708e+003,2.600067e+000
1.704672e+003,1.008270e+000
1.705636e+003,1.120209e+000
1.706601e+003,2.315315e+000
1.707565e+003,4.427002e+000
1.708529e+003,6.925301e+000
1.709493e+003,7.758827e+000
1.710458e+003,6.534691e+000
1.711422e+003,5.079575e+000
1.712386e+003,3.843643e+000
1.713350e+003,3.089027e+000
1.714314e+003,3.122383e+000
1.715279e+003,3.596992e+000
1.716243e+003,4.197075e+000
1.717207e+003,4.764229e+000
1.718171e+003,4.638313e+000
1.719135e+003,3.652962e+000
1.720100e+003,2.900581e+000
1.721064e+003,3.166023e+000
1.722028e+003,3.751915e+000
1.722992e+003,3.642868e+000
1.723957e+003,3.082146e+000
1.724921e+003,3.285629e+000
1.725885e+003,4.437584e+000
1.726849e+003,4.527100e+000
1.727814e+003,1.786827e+000
1.728778e+003,1.255341e-001
1.729742e+003,2.434677e+000
1.730706e+003,5.431412e+000
1.731671e+003,5.605850e+000
1.732635e+003,3.927231e+000
1.733599e+003,2.981758e+000
1.734563e+003,3.281822e+000
1.735528e+003,3.871178e+000
1.736492e+003,4.212814e+000
1.737456e+003,4.421005e+000
1.738420e+003,4.710289e+000
1.739385e+003,4.728546e+000
1.740349e+003,3.188080e+000
1.741313e+003,-5.831985e-001
1.742277e+003,-2.226471e+000
1.743241e+003,4.425049e-004
1.744206e+003,1.566689e+000
1.745170e+003,1.368561e+000
1.746134e+003,9.479599e-001
1.747098e+003,1.115356e+000
1.748063e+003,1.544701e+000
1.749027e+003,1.937325e+000
1.749991e+003,2.167809e+000
1.750955e+003,2.047203e+000
1.751919e+003,1.558487e+000
1.752884e+003,9.849625e-001
1.753848e+003,5.545654e-001
1.754812e+003,3.490601e-001
1.755776e+003,5.906372e-001
1.756741e+003,1.321037e+000
1.757705e+003,2.378998e+000
1.758669e+003,4.267601e+000
1.759633e+003,4.824425e+000
1.760598e+003,2.515320e+000
1.761562e+003,6.527863e-001
1.762526e+003,3.855515e-001
1.763490e+003,8.197403e-001
1.764455e+003,1.891060e+000
1.765419e+003,2.951958e+000
1.766383e+003,2.741997e+000
1.767347e+003,1.453651e+000
1.768312e+003,9.684677e-001
1.769276e+003,2.180237e+000
1.770240e+003,3.322479e+000
1.771204e+003,2.381943e+000
1.772168e+003,4.253006e-001
1.773133e+003,-2.201767e-001
1.774097e+003,3.339462e-001
1.775061e+003,1.167900e+000
1.776025e+003,2.270172e+000
1.776990e+003,2.508705e+000
1.777954e+003,1.013069e+000
1.778918e+003,-9.720612e-002
1.779882e+003,1.484543e+000
1.780846e+003,3.564110e+000
1.781811e+003,2.807137e+000
1.782775e+003,1.425476e-001
1.783739e+003,-1.337196e+000
1.784703e+003,-1.112106e+000
1.785668e+003,-5.672684e-001
1.786632e+003,-1.550980e-001
1.787596e+003,1.111145e-001
1.788560e+003,2.409134e-001
1.789525e+003,3.564301e-001
1.790489e+003,4.397354e-001
1.791453e+003,5.745239e-001
1.792417e+003,1.268158e+000
1.793382e+003,2.513451e+000
1.794346e+003,3.192429e+000
1.795310e+003,2.675400e+000
1.796274e+003,1.707512e+000
1.797239e+003,1.099541e+000
1.798203e+003,9.355316e-001
1.799167e+003,1.344376e+000
1.800131e+003,2.378769e+000
1.801095e+003,2.802277e+000
1.802060e+003,2.511780e+000
1.803024e+003,2.066956e+000
1.803988e+003,6.850052e-001
1.804952e+003,1.040115e-001
1.805917e+003,2.271698e+000
1.806881e+003,4.677399e+000
1.807845e+003,4.473961e+000
1.808809e+003,2.616081e+000
1.809773e+003,1.435936e+000
1.810738e+003,1.519722e+000
1.811702e+003,2.209572e+000
1.812666e+003,3.054337e+000
1.813630e+003,3.455528e+000
1.814595e+003,2.441422e+000
1.815559e+003,5.137711e-001
1.816523e+003,-2.106171e-001
1.817487e+003,3.351059e-001
1.818452e+003,1.683365e+000
1.819416e+003,4.510460e+000
1.820380e+003,6.248665e+000
1.821344e+003,5.779480e+000
1.822309e+003,4.543304e+000
1.823273e+003,3.002800e+000
1.824237e+003,1.527557e+000
1.825201e+003,1.961975e-001
1.826166e+003,-7.520599e-001
1.827130e+003,-4.785004e-001
1.828094e+003,1.087601e+000
1.829058e+003,2.322144e+000
1.830022e+003,2.415833e+000
1.830987e+003,2.138580e+000
1.831951e+003,1.984398e+000
1.832915e+003,1.950920e+000
1.833879e+003,2.080963e+000
1.834844e+003,2.314476e+000
1.835808e+003,2.460251e+000
1.836772e+003,2.510597e+000
1.837736e+003,2.651382e+000
1.838700e+003,2.939728e+000
1.839665e+003,3.200996e+000
1.840629e+003,3.283096e+000
1.841593e+003,3.350464e+000
1.842557e+003,3.858093e+000
1.843522e+003,4.779388e+000
1.844486e+003,4.220253e+000
1.845450e+003,4.119415e-001
1.846414e+003,-1.275322e+000
1.847379e+003,8.597717e-001
1.848343e+003,2.579048e+000
1.849307e+003,2.111099e+000
1.850271e+003,1.439690e+000
1.851236e+003,2.663551e+000
1.852200e+003,4.261063e+000
1.853164e+003,3.402924e+000
1.854128e+003,6.412506e-001
1.855093e+003,-1.050613e+000
1.856057e+003,-5.154343e-001
1.857021e+003,1.087555e+000
1.857985e+003,2.930298e+000
1.858949e+003,4.430443e+000
1.859914e+003,4.297897e+000
1.860878e+003,2.910919e+000
1.861842e+003,2.241379e+000
1.862806e+003,2.283928e+000
1.863771e+003,3.252327e+000
1.864735e+003,5.568642e+000
1.865699e+003,6.891678e+000
1.866663e+003,5.909531e+000
1.867627e+003,4.282234e+000
1.868592e+003,3.023087e+000
1.869556e+003,2.263931e+000
1.870520e+003,2.514771e+000
1.871484e+003,3.611526e+000
1.872449e+003,4.574120e+000
1.873413e+003,5.571663e+000
1.874377e+003,6.092583e+000
1.875341e+003,5.240028e+000
1.876306e+003,4.561058e+000
1.877270e+003,5.355560e+000
1.878234e+003,6.246490e+000
1.879198e+003,5.491974e+000
1.880163e+003,3.988800e+000
1.881127e+003,3.596840e+000
1.882091e+003,4.393089e+000
1.883055e+003,5.307701e+000
1.884020e+003,5.823357e+000
1.884984e+003,5.909180e+000
1.885948e+003,5.525978e+000
1.886912e+003,4.930656e+000
1.887876e+003,4.662071e+000
1.888841e+003,4.688705e+000
1.889805e+003,4.508774e+000
1.890769e+003,4.022278e+000
1.891733e+003,3.914894e+000
1.892698e+003,4.452080e+000
1.893662e+003,4.745773e+000
1.894626e+003,4.098442e+000
1.895590e+003,3.688614e+000
1.896554e+003,5.012886e+000
1.897519e+003,6.590080e+000
1.898483e+003,6.291733e+000
1.899447e+003,4.599915e+000
1.900411e+003,3.529434e+000
1.901376e+003,3.443260e+000
1.902340e+003,3.642998e+000
1.903304e+003,4.040840e+000
1.904268e+003,4.362732e+000
1.905233e+003,4.468910e+000
1.906197e+003,4.436920e+000
1.907161e+003,4.243248e+000
1.908125e+003,4.046021e+000
1.909090e+003,3.885223e+000
1.910054e+003,3.915123e+000
1.911018e+003,4.886345e+000
1.911982e+003,6.890236e+000
1.912947e+003,8.544662e+000
1.913911e+003,8.825066e+000
1.914875e+003,8.255753e+000
1.915839e+003,7.579651e+000
1.916803e+003,6.795128e+000
1.917768e+003,6.032341e+000
1.918732e+003,5.216179e+000
1.919696e+003,5.301369e+000
1.920660e+003,6.961288e+000
1.921625e+003,7.644997e+000
1.922589e+003,5.808144e+000
1.923553e+003,4.446785e+000
1.924517e+003,5.911736e+000
1.925481e+003,7.860626e+000
1.926446e+003,8.388908e+000
1.927410e+003,7.860260e+000
1.928374e+003,6.592857e+000
1.929338e+003,4.781021e+000
1.930303e+003,4.378448e+000
1.931267e+003,6.509850e+000
1.932231e+003,8.290573e+000
1.933195e+003,8.162437e+000
1.934160e+003,7.440750e+000
1.935124e+003,6.969154e+000
1.936088e+003,6.506554e+000
1.937052e+003,5.506699e+000
1.938017e+003,4.417076e+000
1.938981e+003,4.506958e+000
1.939945e+003,5.593079e+000
1.940909e+003,5.717964e+000
1.941874e+003,4.132538e+000
1.942838e+003,2.941345e+000
1.943802e+003,4.212776e+000
1.944766e+003,6.604088e+000
1.945730e+003,7.289223e+000
1.946695e+003,6.441872e+000
1.947659e+003,5.619156e+000
1.948623e+003,4.721031e+000
1.949587e+003,4.966064e+000
1.950552e+003,6.860512e+000
1.951516e+003,8.477936e+000
1.952480e+003,9.176796e+000
1.953444e+003,9.458000e+000
1.954408e+003,9.521645e+000
1.955373e+003,9.433594e+000
1.956337e+003,9.435532e+000
1.957301e+003,9.472763e+000
1.958265e+003,9.003113e+000
1.959230e+003,7.902679e+000
1.960194e+003,7.353378e+000
1.961158e+003,8.058716e+000
1.962122e+003,8.310432e+000
1.963087e+003,7.231415e+000
1.964051e+003,6.156876e+000
1.965015e+003,5.884125e+000
1.965979e+003,6.057114e+000
1.966944e+003,6.513329e+000
1.967908e+003,6.883995e+000
1.968872e+003,6.242981e+000
1.969836e+003,4.984566e+000
1.970801e+003,5.209076e+000
1.971765e+003,7.691544e+000
1.972729e+003,1.015538e+001
1.973693e+003,1.069048e+001
1.974657e+003,1.012131e+001
1.975622e+003,9.174622e+000
1.976586e+003,8.236954e+000
1.977550e+003,8.802841e+000
1.978514e+003,1.052315e+001
1.979479e+003,1.105022e+001
1.980443e+003,1.010143e+001
1.981407e+003,9.380600e+000
1.982371e+003,9.542915e+000
1.983335e+003,1.002179e+001
1.984300e+003,1.040531e+001
1.985264e+003,1.059456e+001
1.986228e+003,1.040434e+001
1.987192e+003,1.000438e+001
1.988157e+003,1.038895e+001
1.989121e+003,1.202714e+001
1.990085e+003,1.202799e+001
1.991049e+003,8.875725e+000
1.992014e+003,7.221916e+000
1.992978e+003,8.554878e+000
1.993942e+003,1.012410e+001
1.994906e+003,1.132963e+001
1.995871e+003,1.210081e+001
1.996835e+003,1.211224e+001
1.997799e+003,1.185260e+001
1.998763e+003,1.219604e+001
1.999728e+003,1.290345e+001
