5.003444e+002,4.159399e+001
5.013087e+002,4.009933e+001
5.022729e+002,4.040059e+001
5.032371e+002,4.204073e+001
5.042014e+002,4.274199e+001
5.051656e+002,4.267007e+001
5.061298e+002,4.250769e+001
5.070941e+002,4.291478e+001
5.080583e+002,4.414056e+001
5.090225e+002,4.395287e+001
5.099868e+002,4.126860e+001
5.109510e+002,3.875922e+001
5.119152e+002,3.802658e+001
5.128795e+002,3.926573e+001
5.138437e+002,4.018248e+001
5.148079e+002,3.968587e+001
5.157722e+002,3.904929e+001
5.167364e+002,3.897606e+001
5.177006e+002,3.935699e+001
5.186649e+002,3.926192e+001
5.196291e+002,3.694141e+001
5.205933e+002,3.416435e+001
5.215576e+002,3.286850e+001
5.225218e+002,3.310384e+001
5.234860e+002,3.404991e+001
5.244503e+002,3.436580e+001
5.254145e+002,3.397217e+001
5.263787e+002,3.360286e+001
5.273430e+002,3.303146e+001
5.283072e+002,3.262950e+001
5.292714e+002,3.308115e+001
5.302357e+002,3.522087e+001
5.311999e+002,3.588170e+001
5.321641e+002,3.422482e+001
5.331284e+002,3.189580e+001
5.340926e+002,3.000797e+001
5.350568e+002,2.890979e+001
5.360211e+002,2.807712e+001
5.369853e+002,2.713316e+001
5.379495e+002,2.634233e+001
5.389138e+002,2.602191e+001
5.398780e+002,2.621007e+001
5.408422e+002,2.657355e+001
5.418065e+002,2.606450e+001
5.427707e+002,2.484709e+001
5.437349e+002,2.417876e+001
5.446992e+002,2.447850e+001
5.456634e+002,2.545923e+001
5.466276e+002,2.616388e+001
5.475919e+002,2.687299e+001
5.485561e+002,2.688744e+001
5.495203e+002,2.557445e+001
5.504846e+002,2.367291e+001
5.514488e+002,2.227980e+001
5.524130e+002,2.196555e+001
5.533773e+002,2.197533e+001
5.543415e+002,2.178667e+001
5.553057e+002,2.166451e+001
5.562700e+002,2.205202e+001
5.572342e+002,2.319196e+001
5.581984e+002,2.440915e+001
5.591627e+002,2.412555e+001
5.601269e+002,2.284392e+001
5.610911e+002,2.110805e+001
5.620554e+002,1.910303e+001
5.630196e+002,1.690163e+001
5.639838e+002,1.558113e+001
5.649481e+002,1.560844e+001
5.659123e+002,1.582704e+001
5.668765e+002,1.645320e+001
5.678408e+002,1.730927e+001
5.688050e+002,1.766534e+001
5.697692e+002,1.660452e+001
5.707335e+002,1.570764e+001
5.716977e+002,1.589279e+001
5.726619e+002,1.646648e+001
5.736262e+002,1.628424e+001
5.745904e+002,1.438873e+001
5.755546e+002,1.236978e+001
5.765189e+002,1.297147e+001
5.774831e+002,1.500656e+001
5.784473e+002,1.653041e+001
5.794116e+002,1.626727e+001
5.803758e+002,1.448766e+001
5.813400e+002,1.372960e+001
5.823043e+002,1.399146e+001
5.832685e+002,1.443524e+001
5.842327e+002,1.532535e+001
5.851970e+002,1.651550e+001
5.861612e+002,1.656036e+001
5.871254e+002,1.281725e+001
5.880897e+002,1.050020e+001
5.890539e+002,1.168730e+001
5.900181e+002,1.470178e+001
5.909824e+002,1.668393e+001
5.919466e+002,1.566354e+001
5.929108e+002,1.352322e+001
5.938751e+002,1.225784e+001
5.948393e+002,1.157497e+001
5.958035e+002,1.105542e+001
5.967678e+002,1.040089e+001
5.977320e+002,9.714401e+000
5.986962e+002,9.498474e+000
5.996605e+002,9.581787e+000
6.006247e+002,9.865997e+000
6.015889e+002,1.072169e+001
6.025532e+002,1.204228e+001
6.035174e+002,1.212335e+001
6.044816e+002,8.905914e+000
6.054459e+002,6.670471e+000
6.064101e+002,6.354553e+000
6.073743e+002,7.378021e+000
6.083386e+002,8.743118e+000
6.093028e+002,1.032532e+001
6.102670e+002,1.138196e+001
6.112313e+002,1.088200e+001
6.121955e+002,9.780609e+000
6.131597e+002,9.487167e+000
6.141240e+002,1.093256e+001
6.150882e+002,1.343782e+001
6.160524e+002,1.407164e+001
6.170167e+002,1.322258e+001
6.179809e+002,1.202351e+001
6.189451e+002,1.081947e+001
6.199094e+002,9.582626e+000
6.208736e+002,8.477966e+000
6.218378e+002,7.187439e+000
6.228021e+002,6.698517e+000
6.237663e+002,8.001205e+000
6.247305e+002,9.966675e+000
6.256948e+002,1.057573e+001
6.266590e+002,8.308289e+000
6.276232e+002,6.060013e+000
6.285875e+002,5.520920e+000
6.295517e+002,6.088776e+000
6.305159e+002,7.418350e+000
6.314802e+002,9.203354e+000
6.324444e+002,1.093977e+001
6.334086e+002,1.114969e+001
6.343729e+002,1.033192e+001
6.353371e+002,9.212280e+000
6.363013e+002,7.893631e+000
6.372656e+002,6.566055e+000
6.382298e+002,6.022659e+000
6.391940e+002,7.623947e+000
6.401583e+002,8.109818e+000
6.411225e+002,6.661133e+000
6.420867e+002,4.685379e+000
6.430510e+002,3.897430e+000
6.440152e+002,5.016754e+000
6.449794e+002,6.015427e+000
6.459437e+002,5.977905e+000
6.469079e+002,5.354797e+000
6.478721e+002,4.227676e+000
6.488364e+002,2.790176e+000
6.498006e+002,1.553177e+000
6.507648e+002,1.586456e+000
6.517291e+002,2.441422e+000
6.526933e+002,3.142502e+000
6.536575e+002,3.502121e+000
6.546218e+002,3.666733e+000
6.555860e+002,3.929291e+000
6.565502e+002,4.366867e+000
6.575145e+002,4.705872e+000
6.584787e+002,5.120499e+000
6.594429e+002,5.337112e+000
6.604072e+002,5.094391e+000
6.613714e+002,4.325058e+000
6.623356e+002,3.435593e+000
6.632999e+002,2.099915e+000
6.642641e+002,1.009338e+000
6.652283e+002,8.732300e-001
6.661926e+002,1.569519e+000
6.671568e+002,2.273026e+000
6.681210e+002,1.811874e+000
6.690853e+002,7.029724e-001
6.700495e+002,4.949036e-001
6.710137e+002,1.182358e+000
6.719780e+002,2.182236e+000
6.729422e+002,2.938431e+000
6.739064e+002,3.519089e+000
6.748707e+002,3.037064e+000
6.758349e+002,3.768616e-001
6.767991e+002,-1.792526e+000
6.777634e+002,-2.110825e+000
6.787276e+002,-7.041779e-001
6.796918e+002,8.706665e-001
6.806561e+002,1.941818e+000
6.816203e+002,3.069931e+000
6.825845e+002,5.153992e+000
6.835488e+002,7.320648e+000
6.845130e+002,7.917282e+000
6.854772e+002,5.541794e+000
6.864415e+002,2.006760e+000
6.874057e+002,1.458755e+000
6.883699e+002,2.901245e+000
6.893342e+002,4.144119e+000
6.902984e+002,3.969803e+000
6.912626e+002,2.689163e+000
6.922269e+002,2.271942e+000
6.931911e+002,3.752563e+000
6.941553e+002,4.972855e+000
6.951196e+002,5.727020e+000
6.960838e+002,5.990692e+000
6.970480e+002,5.747284e+000
6.980123e+002,4.884827e+000
6.989765e+002,3.878891e+000
6.999407e+002,2.096466e+000
7.009050e+002,7.841034e-001
7.018692e+002,1.583603e+000
7.028334e+002,4.685791e+000
7.037977e+002,7.919739e+000
7.047619e+002,7.388687e+000
7.057261e+002,4.662277e+000
7.066904e+002,2.692291e+000
7.076546e+002,1.943222e+000
7.086188e+002,1.914063e+000
7.095831e+002,1.793106e+000
7.105473e+002,1.221588e+000
7.115115e+002,1.720673e+000
7.124758e+002,4.460861e+000
7.134400e+002,6.845276e+000
7.144042e+002,6.822754e+000
7.153685e+002,4.461273e+000
7.163327e+002,3.079834e+000
7.172969e+002,5.631424e+000
7.182612e+002,8.203644e+000
7.192254e+002,9.491409e+000
7.201896e+002,9.438705e+000
7.211539e+002,8.276810e+000
7.221181e+002,6.073212e+000
7.230823e+002,3.352005e+000
7.240466e+002,1.218842e+000
7.250108e+002,-2.602234e-001
7.259750e+002,-6.677399e-001
7.269393e+002,3.145447e-001
7.279035e+002,2.359863e+000
7.288677e+002,3.513184e+000
7.298320e+002,3.528305e+000
7.307962e+002,3.241745e+000
7.317604e+002,2.227585e+000
7.327247e+002,1.145309e+000
7.336889e+002,9.375305e-001
7.346531e+002,1.955170e+000
7.356174e+002,2.893112e+000
7.365816e+002,3.772964e+000
7.375458e+002,4.120117e+000
7.385101e+002,2.970093e+000
7.394743e+002,4.462891e-001
7.404385e+002,-1.935944e+000
7.414028e+002,-1.625854e+000
7.423670e+002,5.969086e-001
7.433312e+002,1.516373e+000
7.442955e+002,9.642029e-001
7.452597e+002,1.956940e-001
7.462239e+002,7.040710e-001
7.471882e+002,2.972687e+000
7.481524e+002,4.190033e+000
7.491166e+002,3.884369e+000
7.500809e+002,3.033783e+000
7.510451e+002,1.461243e+000
7.520093e+002,-4.279633e-001
7.529736e+002,-1.380371e+000
7.539378e+002,-1.176300e-001
7.549020e+002,1.437973e+000
7.558663e+002,1.902420e+000
7.568306e+002,1.852341e+000
7.577948e+002,2.203751e+000
7.587590e+002,3.432831e+000
7.597233e+002,4.953445e+000
7.606875e+002,5.003937e+000
7.616517e+002,3.843323e+000
7.626160e+002,2.808289e+000
7.635802e+002,2.154678e+000
7.645444e+002,1.918213e+000
7.655087e+002,2.229965e+000
7.664729e+002,3.445679e+000
7.674371e+002,4.376999e+000
7.684014e+002,4.992310e+000
7.693656e+002,5.314163e+000
7.703298e+002,5.063980e+000
7.712941e+002,4.369110e+000
7.722583e+002,4.234894e+000
7.732225e+002,5.983063e+000
7.741868e+002,8.048294e+000
7.751510e+002,9.448502e+000
7.761152e+002,1.009633e+001
7.770795e+002,1.001372e+001
7.780437e+002,9.193924e+000
7.790079e+002,7.719955e+000
7.799722e+002,6.414337e+000
7.809364e+002,5.233292e+000
7.819006e+002,4.270782e+000
7.828649e+002,3.772247e+000
7.838291e+002,3.625732e+000
7.847933e+002,3.257797e+000
7.857576e+002,2.185425e+000
7.867218e+002,1.441483e+000
7.876860e+002,9.984741e-001
7.886503e+002,1.193253e+000
7.896145e+002,2.531372e+000
7.905787e+002,5.047607e+000
7.915430e+002,7.864563e+000
7.925072e+002,1.084755e+001
7.934714e+002,1.280331e+001
7.944357e+002,1.177344e+001
7.953999e+002,8.184662e+000
7.963641e+002,4.298660e+000
7.973284e+002,2.607254e+000
7.982926e+002,3.259872e+000
7.992568e+002,3.708313e+000
8.002211e+002,3.655258e+000
8.011853e+002,3.549438e+000
8.021495e+002,3.527252e+000
8.031138e+002,3.812408e+000
8.040780e+002,4.964371e+000
8.050422e+002,8.124802e+000
8.060065e+002,1.004564e+001
8.069707e+002,8.653030e+000
8.079349e+002,6.219009e+000
8.088992e+002,5.160599e+000
8.098634e+002,6.283554e+000
8.108276e+002,8.008118e+000
8.117919e+002,7.835846e+000
8.127561e+002,6.464798e+000
8.137203e+002,5.656830e+000
8.146846e+002,5.706573e+000
8.156488e+002,6.072845e+000
8.166130e+002,5.992279e+000
8.175773e+002,5.264847e+000
8.185415e+002,5.163803e+000
8.195057e+002,6.028641e+000
8.204700e+002,6.799286e+000
8.214342e+002,7.065521e+000
8.223984e+002,6.973068e+000
8.233627e+002,6.985260e+000
8.243269e+002,7.438553e+000
8.252911e+002,7.702637e+000
8.262554e+002,7.313751e+000
8.272196e+002,6.645493e+000
8.281838e+002,6.094208e+000
8.291481e+002,5.785721e+000
8.301123e+002,5.490158e+000
8.310765e+002,4.780777e+000
8.320408e+002,3.668961e+000
8.330050e+002,2.650452e+000
8.339692e+002,1.667999e+000
8.349335e+002,1.121124e+000
8.358977e+002,1.675278e+000
8.368619e+002,3.611206e+000
8.378262e+002,4.955444e+000
8.387904e+002,4.787155e+000
8.397546e+002,4.873978e+000
8.407189e+002,6.170425e+000
8.416831e+002,7.910370e+000
8.426473e+002,8.523361e+000
8.436116e+002,7.045197e+000
8.445758e+002,5.533691e+000
8.455400e+002,6.582199e+000
8.465043e+002,8.449921e+000
8.474685e+002,9.189377e+000
8.484327e+002,8.408646e+000
8.493970e+002,7.207916e+000
8.503612e+002,7.356613e+000
8.513254e+002,9.155899e+000
8.522897e+002,9.712448e+000
8.532539e+002,8.380035e+000
8.542181e+002,6.712677e+000
8.551824e+002,5.390350e+000
8.561466e+002,4.561142e+000
8.571108e+002,4.785187e+000
8.580751e+002,6.961411e+000
8.590393e+002,8.761353e+000
8.600035e+002,9.016541e+000
8.609678e+002,8.883957e+000
8.619320e+002,1.005441e+001
8.628962e+002,1.305287e+001
8.638605e+002,1.601089e+001
8.648247e+002,1.545250e+001
8.657889e+002,1.289546e+001
8.667532e+002,1.158696e+001
8.677174e+002,1.195131e+001
8.686816e+002,1.322247e+001
8.696459e+002,1.477997e+001
8.706101e+002,1.691530e+001
8.715743e+002,1.733794e+001
8.725386e+002,1.375908e+001
8.735028e+002,1.153697e+001
8.744670e+002,1.298993e+001
8.754313e+002,1.634998e+001
8.763955e+002,1.814723e+001
8.773597e+002,1.687688e+001
8.783240e+002,1.550763e+001
8.792882e+002,1.614729e+001
8.802524e+002,1.761699e+001
8.812167e+002,1.920499e+001
8.821809e+002,2.059280e+001
8.831451e+002,2.170111e+001
8.841094e+002,2.247304e+001
8.850736e+002,2.289291e+001
8.860378e+002,2.203761e+001
8.870021e+002,1.924693e+001
8.879663e+002,1.733963e+001
8.889305e+002,1.839798e+001
8.898948e+002,2.175386e+001
8.908590e+002,2.406596e+001
8.918232e+002,2.455443e+001
8.927875e+002,2.503714e+001
8.937517e+002,2.638609e+001
8.947159e+002,2.756537e+001
8.956802e+002,2.735339e+001
8.966444e+002,2.563139e+001
8.976086e+002,2.373700e+001
8.985729e+002,2.310590e+001
8.995371e+002,2.331642e+001
9.005013e+002,2.326715e+001
9.014656e+002,2.312198e+001
9.024298e+002,2.370134e+001
9.033940e+002,2.566707e+001
9.043583e+002,2.868639e+001
9.053225e+002,3.069745e+001
9.062867e+002,3.112280e+001
9.072510e+002,3.097223e+001
9.082152e+002,2.978351e+001
9.091794e+002,2.855550e+001
9.101437e+002,2.847552e+001
9.111079e+002,2.973701e+001
9.120721e+002,3.063905e+001
9.130364e+002,2.917899e+001
9.140006e+002,2.778001e+001
9.149648e+002,2.855075e+001
9.159291e+002,3.060213e+001
9.168933e+002,3.165497e+001
9.178575e+002,3.009914e+001
9.188218e+002,2.689464e+001
9.197860e+002,2.557475e+001
9.207502e+002,2.611052e+001
9.217145e+002,2.667125e+001
9.226787e+002,2.717220e+001
9.236429e+002,2.755693e+001
9.246072e+002,2.758215e+001
9.255714e+002,2.708170e+001
9.265356e+002,2.672629e+001
9.274999e+002,2.733319e+001
9.284641e+002,2.725412e+001
9.294283e+002,2.505280e+001
9.303926e+002,2.201512e+001
9.313568e+002,2.065204e+001
9.323210e+002,2.236087e+001
9.332853e+002,2.483202e+001
9.342495e+002,2.376010e+001
9.352137e+002,2.102066e+001
9.361780e+002,1.962534e+001
9.371422e+002,2.027916e+001
9.381064e+002,2.154227e+001
9.390707e+002,2.127625e+001
9.400349e+002,1.893671e+001
9.409991e+002,1.816583e+001
9.419634e+002,2.010811e+001
9.429276e+002,2.187010e+001
9.438918e+002,2.309467e+001
9.448561e+002,2.358124e+001
9.458203e+002,2.284818e+001
9.467845e+002,2.054507e+001
9.477488e+002,1.825755e+001
9.487130e+002,1.674858e+001
9.496772e+002,1.600513e+001
9.506415e+002,1.648535e+001
9.516057e+002,1.789401e+001
9.525699e+002,1.934695e+001
9.535342e+002,1.998732e+001
9.544984e+002,1.979153e+001
9.554626e+002,1.858434e+001
9.564269e+002,1.616273e+001
9.573911e+002,1.445830e+001
9.583553e+002,1.414995e+001
9.593196e+002,1.473094e+001
9.602838e+002,1.555043e+001
9.612480e+002,1.671066e+001
9.622123e+002,1.741893e+001
9.631765e+002,1.759114e+001
9.641407e+002,1.721033e+001
9.651050e+002,1.554192e+001
9.660692e+002,1.332651e+001
9.670334e+002,1.208594e+001
9.679977e+002,1.282942e+001
9.689619e+002,1.471626e+001
9.699261e+002,1.576141e+001
9.708904e+002,1.625685e+001
9.718546e+002,1.737758e+001
9.728188e+002,1.944940e+001
9.737831e+002,2.178107e+001
9.747473e+002,2.349533e+001
9.757115e+002,2.450180e+001
9.766758e+002,2.553773e+001
9.776400e+002,2.730258e+001
9.786042e+002,2.839592e+001
9.795685e+002,2.856866e+001
9.805327e+002,2.769894e+001
9.814969e+002,2.527646e+001
9.824612e+002,2.117453e+001
9.834254e+002,1.742903e+001
9.843896e+002,1.665515e+001
9.853539e+002,1.678561e+001
9.863181e+002,1.523903e+001
9.872823e+002,1.220836e+001
9.882466e+002,9.890717e+000
9.892108e+002,1.030573e+001
9.901750e+002,1.298502e+001
9.911393e+002,1.359430e+001
9.921035e+002,9.882950e+000
9.930677e+002,7.198883e+000
9.940320e+002,6.127792e+000
9.949962e+002,6.017349e+000
9.959604e+002,6.386703e+000
9.969247e+002,7.190567e+000
9.978889e+002,8.479202e+000
9.988531e+002,1.096584e+001
9.998174e+002,1.279205e+001
1.000782e+003,1.268204e+001
1.001746e+003,1.144170e+001
1.002710e+003,9.996414e+000
1.003674e+003,8.864197e+000
1.004639e+003,8.300156e+000
1.005603e+003,8.880905e+000
1.006567e+003,1.071101e+001
1.007531e+003,1.145061e+001
1.008495e+003,1.081667e+001
1.009460e+003,9.784454e+000
1.010424e+003,8.762207e+000
1.011388e+003,7.818726e+000
1.012352e+003,7.269791e+000
1.013317e+003,7.595276e+000
1.014281e+003,7.258072e+000
1.015245e+003,4.693176e+000
1.016209e+003,2.279495e+000
1.017174e+003,2.242065e+000
1.018138e+003,4.266724e+000
1.019102e+003,6.122635e+000
1.020066e+003,5.988724e+000
1.021031e+003,4.571732e+000
1.021995e+003,3.451797e+000
1.022959e+003,2.547882e+000
1.023923e+003,2.384155e+000
1.024887e+003,3.440765e+000
1.025852e+003,4.741562e+000
1.026816e+003,4.550735e+000
1.027780e+003,2.419342e+000
1.028744e+003,1.240570e+000
1.029709e+003,2.525482e+000
1.030673e+003,3.220123e+000
1.031637e+003,1.724472e+000
1.032601e+003,-6.715088e-001
1.033566e+003,-2.103714e+000
1.034530e+003,-1.898438e+000
1.035494e+003,-8.605957e-001
1.036458e+003,5.592194e-001
1.037422e+003,1.901871e+000
1.038387e+003,2.236465e+000
1.039351e+003,1.641342e+000
1.040315e+003,1.134491e+000
1.041279e+003,1.518799e+000
1.042244e+003,2.633530e+000
1.043208e+003,3.585709e+000
1.044172e+003,4.862152e+000
1.045136e+003,4.791718e+000
1.046101e+003,2.117661e+000
1.047065e+003,-5.178375e-001
1.048029e+003,-1.490997e+000
1.048993e+003,-9.380646e-001
1.049958e+003,1.997986e-001
1.050922e+003,1.723862e+000
1.051886e+003,3.262772e+000
1.052850e+003,4.758896e+000
1.053814e+003,5.889465e+000
1.054779e+003,6.057968e+000
1.055743e+003,5.193542e+000
1.056707e+003,3.788345e+000
1.057671e+003,2.403290e+000
1.058636e+003,1.020599e+000
1.059600e+003,6.497192e-002
1.060564e+003,-5.044556e-002
1.061528e+003,-1.717072e-001
1.062493e+003,-9.262085e-001
1.063457e+003,-1.543472e+000
1.064421e+003,-8.093567e-001
1.065385e+003,1.394119e+000
1.066349e+003,3.140182e+000
1.067314e+003,2.893433e+000
1.068278e+003,2.588745e+000
1.069242e+003,4.477081e+000
1.070206e+003,7.008194e+000
1.071171e+003,7.309372e+000
1.072135e+003,4.348587e+000
1.073099e+003,1.155090e-002
1.074063e+003,-2.513428e+000
1.075028e+003,-3.075745e+000
1.075992e+003,-2.439072e+000
1.076956e+003,1.661530e-001
1.077920e+003,2.344009e+000
1.078885e+003,3.355606e+000
1.079849e+003,3.445206e+000
1.080813e+003,2.812042e+000
1.081777e+003,1.319321e+000
1.082741e+003,8.793640e-002
1.083706e+003,-6.882019e-001
1.084670e+003,-8.409729e-001
1.085634e+003,4.078217e-001
1.086598e+003,2.270752e+000
1.087563e+003,3.241150e+000
1.088527e+003,2.569626e+000
1.089491e+003,1.191879e+000
1.090455e+003,9.019470e-001
1.091420e+003,1.792297e+000
1.092384e+003,1.557892e+000
1.093348e+003,-6.854095e-001
1.094312e+003,-2.551331e+000
1.095276e+003,-2.089539e+000
1.096241e+003,-1.132660e-001
1.097205e+003,5.953674e-001
1.098169e+003,-9.089203e-001
1.099133e+003,-2.024673e+000
1.100098e+003,-1.350281e+000
1.101062e+003,-3.388977e-001
1.102026e+003,2.338257e-001
1.102990e+003,3.667450e-001
1.103955e+003,2.511902e-001
1.104919e+003,6.134033e-003
1.105883e+003,-1.044312e-001
1.106847e+003,7.686157e-001
1.107812e+003,2.579895e+000
1.108776e+003,2.784042e+000
1.109740e+003,5.969391e-001
1.110704e+003,-1.791702e+000
1.111668e+003,-2.672363e+000
1.112633e+003,-2.338882e+000
1.113597e+003,-2.393494e+000
1.114561e+003,-3.590622e+000
1.115525e+003,-3.836807e+000
1.116490e+003,-1.590958e+000
1.117454e+003,7.968750e-001
1.118418e+003,1.969086e+000
1.119382e+003,2.020050e+000
1.120347e+003,1.593750e+000
1.121311e+003,1.026978e+000
1.122275e+003,2.267303e-001
1.123239e+003,-1.024231e+000
1.124203e+003,-2.484314e+000
1.125168e+003,-2.503784e+000
1.126132e+003,-3.212433e-001
1.127096e+003,1.707443e+000
1.128060e+003,1.654999e+000
1.129025e+003,-1.396484e-001
1.129989e+003,-2.114136e+000
1.130953e+003,-4.790115e+000
1.131917e+003,-6.218628e+000
1.132882e+003,-5.188751e+000
1.133846e+003,-3.591370e+000
1.134810e+003,-2.351532e+000
1.135774e+003,-1.539398e+000
1.136739e+003,-8.883667e-001
1.137703e+003,-2.539825e-001
1.138667e+003,1.985168e-001
1.139631e+003,-4.844666e-002
1.140595e+003,-7.857971e-001
1.141560e+003,-1.946259e-001
1.142524e+003,2.183746e+000
1.143488e+003,4.756531e+000
1.144452e+003,6.429108e+000
1.145417e+003,7.408432e+000
1.146381e+003,8.374313e+000
1.147345e+003,9.091873e+000
1.148309e+003,1.043484e+001
1.149274e+003,1.332655e+001
1.150238e+003,1.618616e+001
1.151202e+003,1.795567e+001
1.152166e+003,1.920403e+001
1.153130e+003,2.138518e+001
1.154095e+003,2.498274e+001
1.155059e+003,2.827190e+001
1.156023e+003,2.888744e+001
1.156987e+003,2.692024e+001
1.157952e+003,2.388779e+001
1.158916e+003,1.956883e+001
1.159880e+003,1.609317e+001
1.160844e+003,1.470660e+001
1.161809e+003,1.466951e+001
1.162773e+003,1.486316e+001
1.163737e+003,1.569385e+001
1.164701e+003,1.490617e+001
1.165666e+003,9.313629e+000
1.166630e+003,4.825714e+000
1.167594e+003,4.403549e+000
1.168558e+003,6.077667e+000
1.169522e+003,7.221695e+000
1.170487e+003,6.922821e+000
1.171451e+003,5.944183e+000
1.172415e+003,5.068161e+000
1.173379e+003,4.274368e+000
1.174344e+003,3.673950e+000
1.175308e+003,3.359253e+000
1.176272e+003,2.540527e+000
1.177236e+003,3.371124e-001
1.178201e+003,-1.972702e+000
1.179165e+003,-2.547058e+000
1.180129e+003,-1.411835e+000
1.181093e+003,-8.663635e-001
1.182057e+003,-1.975983e+000
1.183022e+003,-2.745178e+000
1.183986e+003,-2.181366e+000
1.184950e+003,-1.137726e+000
1.185914e+003,-2.320709e-001
1.186879e+003,3.251801e-001
1.187843e+003,4.379578e-001
1.188807e+003,-1.953125e-003
1.189771e+003,-8.522949e-001
1.190736e+003,-1.729935e+000
1.191700e+003,-2.709900e+000
1.192664e+003,-2.773254e+000
1.193628e+003,-9.343719e-001
1.194593e+003,7.530823e-001
1.195557e+003,9.075775e-001
1.196521e+003,-2.869110e-001
1.197485e+003,-2.474625e+000
1.198449e+003,-6.239342e+000
1.199414e+003,-8.915054e+000
1.200378e+003,-8.604095e+000
1.201342e+003,-7.444344e+000
1.202306e+003,-6.257042e+000
1.203271e+003,-5.402786e+000
1.204235e+003,-5.356903e+000
1.205199e+003,-6.244080e+000
1.206163e+003,-7.295197e+000
1.207128e+003,-7.166786e+000
1.208092e+003,-5.756104e+000
1.209056e+003,-5.496918e+000
1.210020e+003,-6.979874e+000
1.210984e+003,-8.205734e+000
1.211949e+003,-8.428589e+000
1.212913e+003,-8.232330e+000
1.213877e+003,-8.292664e+000
1.214841e+003,-8.643745e+000
1.215806e+003,-9.088531e+000
1.216770e+003,-9.514030e+000
1.217734e+003,-1.012917e+001
1.218698e+003,-1.133350e+001
1.219663e+003,-1.267865e+001
1.220627e+003,-1.361452e+001
1.221591e+003,-1.403925e+001
1.222555e+003,-1.412767e+001
1.223520e+003,-1.401104e+001
1.224484e+003,-1.378201e+001
1.225448e+003,-1.402137e+001
1.226412e+003,-1.522431e+001
1.227376e+003,-1.578120e+001
1.228341e+003,-1.537921e+001
1.229305e+003,-1.475584e+001
1.230269e+003,-1.414107e+001
1.231233e+003,-1.364235e+001
1.232198e+003,-1.359029e+001
1.233162e+003,-1.409315e+001
1.234126e+003,-1.405625e+001
1.235090e+003,-1.212384e+001
1.236055e+003,-9.897247e+000
1.237019e+003,-9.191017e+000
1.237983e+003,-9.624092e+000
1.238947e+003,-9.946007e+000
1.239911e+003,-9.607841e+000
1.240876e+003,-9.305870e+000
1.241840e+003,-1.026086e+001
1.242804e+003,-1.260172e+001
1.243768e+003,-1.375150e+001
1.244733e+003,-1.264368e+001
1.245697e+003,-1.166378e+001
1.246661e+003,-1.063141e+001
1.247625e+003,-1.021061e+001
1.248590e+003,-1.139173e+001
1.249554e+003,-1.352718e+001
1.250518e+003,-1.483004e+001
1.251482e+003,-1.451943e+001
1.252447e+003,-1.334232e+001
1.253411e+003,-1.142509e+001
1.254375e+003,-9.572678e+000
1.255339e+003,-1.008213e+001
1.256303e+003,-1.285929e+001
1.257268e+003,-1.462011e+001
1.258232e+003,-1.321763e+001
1.259196e+003,-1.024933e+001
1.260160e+003,-8.872772e+000
1.261125e+003,-9.299248e+000
1.262089e+003,-9.717270e+000
1.263053e+003,-1.045296e+001
1.264017e+003,-1.061778e+001
1.264982e+003,-9.123909e+000
1.265946e+003,-7.574104e+000
1.266910e+003,-7.835068e+000
1.267874e+003,-9.608665e+000
1.268839e+003,-1.094658e+001
1.269803e+003,-1.054591e+001
1.270767e+003,-9.305763e+000
1.271731e+003,-8.937859e+000
1.272695e+003,-9.403671e+000
1.273660e+003,-9.711708e+000
1.274624e+003,-9.943214e+000
1.275588e+003,-9.998184e+000
1.276552e+003,-9.593880e+000
1.277517e+003,-8.967232e+000
1.278481e+003,-8.669350e+000
1.279445e+003,-8.775566e+000
1.280409e+003,-8.810204e+000
1.281374e+003,-8.312225e+000
1.282338e+003,-8.139336e+000
1.283302e+003,-8.919044e+000
1.284266e+003,-1.012793e+001
1.285230e+003,-1.133731e+001
1.286195e+003,-1.234992e+001
1.287159e+003,-1.302370e+001
1.288123e+003,-1.321323e+001
1.289087e+003,-1.289216e+001
1.290052e+003,-1.205556e+001
1.291016e+003,-1.045467e+001
1.291980e+003,-9.417534e+000
1.292944e+003,-9.083061e+000
1.293909e+003,-9.171524e+000
1.294873e+003,-9.862556e+000
1.295837e+003,-1.066249e+001
1.296801e+003,-1.090828e+001
1.297766e+003,-1.052802e+001
1.298730e+003,-9.913429e+000
1.299694e+003,-9.147552e+000
1.300658e+003,-8.543709e+000
1.301622e+003,-8.423912e+000
1.302587e+003,-8.625404e+000
1.303551e+003,-9.072769e+000
1.304515e+003,-9.676292e+000
1.305479e+003,-9.975189e+000
1.306444e+003,-9.524879e+000
1.307408e+003,-8.695549e+000
1.308372e+003,-8.741570e+000
1.309336e+003,-1.008111e+001
1.310301e+003,-1.101985e+001
1.311265e+003,-1.163716e+001
1.312229e+003,-1.158366e+001
1.313193e+003,-1.002218e+001
1.314157e+003,-8.239479e+000
1.315122e+003,-7.722916e+000
1.316086e+003,-8.481979e+000
1.317050e+003,-9.370705e+000
1.318014e+003,-9.629990e+000
1.318979e+003,-9.448311e+000
1.319943e+003,-9.111839e+000
1.320907e+003,-8.629463e+000
1.321871e+003,-8.266556e+000
1.322836e+003,-8.048332e+000
1.323800e+003,-8.185005e+000
1.324764e+003,-9.096642e+000
1.325728e+003,-1.025203e+001
1.326693e+003,-1.048038e+001
1.327657e+003,-9.754158e+000
1.328621e+003,-1.023242e+001
1.329585e+003,-1.367867e+001
1.330549e+003,-1.601745e+001
1.331514e+003,-1.451367e+001
1.332478e+003,-1.185646e+001
1.333442e+003,-1.053001e+001
1.334406e+003,-1.051677e+001
1.335371e+003,-1.039825e+001
1.336335e+003,-9.325378e+000
1.337299e+003,-7.942825e+000
1.338263e+003,-7.518288e+000
1.339228e+003,-8.176796e+000
1.340192e+003,-8.598007e+000
1.341156e+003,-8.478569e+000
1.342120e+003,-8.591309e+000
1.343084e+003,-9.237938e+000
1.344049e+003,-1.008444e+001
1.345013e+003,-1.115283e+001
1.345977e+003,-1.208111e+001
1.346941e+003,-1.182114e+001
1.347906e+003,-9.925972e+000
1.348870e+003,-8.016502e+000
1.349834e+003,-7.677834e+000
1.350798e+003,-8.302895e+000
1.351763e+003,-8.696945e+000
1.352727e+003,-8.832855e+000
1.353691e+003,-8.649452e+000
1.354655e+003,-8.029877e+000
1.355620e+003,-7.389442e+000
1.356584e+003,-7.426491e+000
1.357548e+003,-7.972481e+000
1.358512e+003,-7.453003e+000
1.359476e+003,-5.021240e+000
1.360441e+003,-3.834023e+000
1.361405e+003,-5.841087e+000
1.362369e+003,-7.927910e+000
1.363333e+003,-8.933578e+000
1.364298e+003,-8.884491e+000
1.365262e+003,-7.528618e+000
1.366226e+003,-5.220177e+000
1.367190e+003,-3.455879e+000
1.368155e+003,-3.591957e+000
1.369119e+003,-4.953758e+000
1.370083e+003,-5.396805e+000
1.371047e+003,-4.598152e+000
1.372011e+003,-4.049393e+000
1.372976e+003,-4.108589e+000
1.373940e+003,-4.066940e+000
1.374904e+003,-3.235527e+000
1.375868e+003,-2.383446e+000
1.376833e+003,-2.805489e+000
1.377797e+003,-4.384468e+000
1.378761e+003,-5.365395e+000
1.379725e+003,-4.787323e+000
1.380690e+003,-4.070915e+000
1.381654e+003,-5.198601e+000
1.382618e+003,-6.807587e+000
1.383582e+003,-6.738441e+000
1.384547e+003,-5.117157e+000
1.385511e+003,-3.861038e+000
1.386475e+003,-4.039192e+000
1.387439e+003,-4.751816e+000
1.388403e+003,-4.426834e+000
1.389368e+003,-3.076744e+000
1.390332e+003,-2.725578e+000
1.391296e+003,-3.852325e+000
1.392260e+003,-5.065514e+000
1.393225e+003,-6.217789e+000
1.394189e+003,-7.210701e+000
1.395153e+003,-8.236145e+000
1.396117e+003,-8.948151e+000
1.397082e+003,-8.552322e+000
1.398046e+003,-7.073792e+000
1.399010e+003,-5.763115e+000
1.399974e+003,-5.831085e+000
1.400938e+003,-6.738029e+000
1.401903e+003,-6.536926e+000
1.402867e+003,-4.647682e+000
1.403831e+003,-3.464325e+000
1.404795e+003,-3.449249e+000
1.405760e+003,-3.622040e+000
1.406724e+003,-3.928429e+000
1.407688e+003,-4.255966e+000
1.408652e+003,-4.273087e+000
1.409617e+003,-3.984848e+000
1.410581e+003,-3.816048e+000
1.411545e+003,-3.932571e+000
1.412509e+003,-4.249062e+000
1.413474e+003,-5.152390e+000
1.414438e+003,-5.975922e+000
1.415402e+003,-5.009010e+000
1.416366e+003,-2.597557e+000
1.417330e+003,-1.412056e+000
1.418295e+003,-2.801147e+000
1.419259e+003,-4.565430e+000
1.420223e+003,-3.730545e+000
1.421187e+003,-9.189224e-001
1.422152e+003,3.117371e-002
1.423116e+003,-1.445534e+000
1.424080e+003,-2.959061e+000
1.425044e+003,-4.219162e+000
1.426009e+003,-5.122978e+000
1.426973e+003,-5.740746e+000
1.427937e+003,-5.898003e+000
1.428901e+003,-4.995262e+000
1.429865e+003,-3.313194e+000
1.430830e+003,-2.048439e+000
1.431794e+003,-2.014580e+000
1.432758e+003,-2.805069e+000
1.433722e+003,-3.582115e+000
1.434687e+003,-4.294037e+000
1.435651e+003,-4.551918e+000
1.436615e+003,-4.694534e+000
1.437579e+003,-4.277977e+000
1.438544e+003,-2.256454e+000
1.439508e+003,-6.350327e-001
1.440472e+003,-1.249107e+000
1.441436e+003,-2.990234e+000
1.442401e+003,-3.604553e+000
1.443365e+003,-2.636131e+000
1.444329e+003,-1.600960e+000
1.445293e+003,-1.693405e+000
1.446257e+003,-2.046288e+000
1.447222e+003,-5.108719e-001
1.448186e+003,2.327553e+000
1.449150e+003,2.961960e+000
1.450114e+003,5.685349e-001
1.451079e+003,-1.947578e+000
1.452043e+003,-3.374313e+000
1.453007e+003,-3.839859e+000
1.453971e+003,-3.135170e+000
1.454936e+003,-1.516457e+000
1.455900e+003,-6.331482e-001
1.456864e+003,-8.783340e-001
1.457828e+003,-1.589478e+000
1.458792e+003,-2.968582e+000
1.459757e+003,-4.214546e+000
1.460721e+003,-4.521881e+000
1.461685e+003,-4.225853e+000
1.462649e+003,-4.112457e+000
1.463614e+003,-4.327454e+000
1.464578e+003,-4.194511e+000
1.465542e+003,-2.997749e+000
1.466506e+003,-1.333702e+000
1.467471e+003,-9.231949e-001
1.468435e+003,-1.883316e+000
1.469399e+003,-3.181175e+000
1.470363e+003,-6.037109e+000
1.471328e+003,-7.492035e+000
1.472292e+003,-6.083176e+000
1.473256e+003,-3.999580e+000
1.474220e+003,-2.143456e+000
1.475184e+003,-9.470444e-001
1.476149e+003,-1.252762e+000
1.477113e+003,-3.041618e+000
1.478077e+003,-4.569023e+000
1.479041e+003,-4.052544e+000
1.480006e+003,-2.261787e+000
1.480970e+003,-1.948677e+000
1.481934e+003,-3.849983e+000
1.482898e+003,-4.317017e+000
1.483863e+003,-2.036865e+000
1.484827e+003,-3.627548e-001
1.485791e+003,-8.296585e-001
1.486755e+003,-1.598877e+000
1.487719e+003,-7.114944e-001
1.488684e+003,1.233719e+000
1.489648e+003,2.246597e+000
1.490612e+003,1.740356e+000
1.491576e+003,9.971924e-001
1.492541e+003,1.014076e+000
1.493505e+003,1.468025e+000
1.494469e+003,1.624321e+000
1.495433e+003,1.505928e+000
1.496398e+003,1.723412e+000
1.497362e+003,2.514206e+000
1.498326e+003,3.430855e+000
1.499290e+003,4.388908e+000
1.500255e+003,5.216766e+000
1.501219e+003,5.410187e+000
1.502183e+003,5.149025e+000
1.503147e+003,5.567184e+000
1.504111e+003,6.946060e+000
1.505076e+003,8.888184e+000
1.506040e+003,1.185436e+001
1.507004e+003,1.455138e+001
1.507968e+003,1.530176e+001
1.508933e+003,1.499594e+001
1.509897e+003,1.541951e+001
1.510861e+003,1.699933e+001
1.511825e+003,1.928839e+001
1.512790e+003,2.198551e+001
1.513754e+003,2.496671e+001
1.514718e+003,2.835271e+001
1.515682e+003,3.208688e+001
1.516646e+003,3.452798e+001
1.517611e+003,3.504943e+001
1.518575e+003,3.566876e+001
1.519539e+003,3.712253e+001
1.520503e+003,3.883022e+001
1.521468e+003,4.112152e+001
1.522432e+003,4.308641e+001
1.523396e+003,4.334370e+001
1.524360e+003,4.192164e+001
1.525325e+003,4.007716e+001
1.526289e+003,3.866358e+001
1.527253e+003,3.741981e+001
1.528217e+003,3.586526e+001
1.529182e+003,3.404154e+001
1.530146e+003,3.190337e+001
1.531110e+003,2.926201e+001
1.532074e+003,2.655759e+001
1.533039e+003,2.349246e+001
1.534003e+003,2.052330e+001
1.534967e+003,1.806174e+001
1.535931e+003,1.587080e+001
1.536896e+003,1.353892e+001
1.537860e+003,1.116167e+001
1.538824e+003,9.275543e+000
1.539788e+003,8.087196e+000
1.540752e+003,6.935669e+000
1.541717e+003,4.911064e+000
1.542681e+003,2.362038e+000
1.543645e+003,1.327522e+000
1.544609e+003,2.744148e+000
1.545573e+003,3.481308e+000
1.546538e+003,2.368263e+000
1.547502e+003,1.961235e+000
1.548466e+003,3.863800e+000
1.549430e+003,6.509193e+000
1.550395e+003,8.506378e+000
1.551359e+003,9.673737e+000
1.552323e+003,1.026922e+001
1.553287e+003,1.037531e+001
1.554252e+003,9.499077e+000
1.555216e+003,6.949821e+000
1.556180e+003,3.808388e+000
1.557144e+003,2.825935e+000
1.558109e+003,4.120316e+000
1.559073e+003,4.407188e+000
1.560037e+003,2.666718e+000
1.561001e+003,1.748917e+000
1.561966e+003,3.490990e+000
1.562930e+003,5.766586e+000
1.563894e+003,6.578926e+000
1.564858e+003,6.288765e+000
1.565823e+003,6.030449e+000
1.566787e+003,6.017021e+000
1.567751e+003,5.778481e+000
1.568715e+003,5.004501e+000
1.569679e+003,4.113991e+000
1.570644e+003,3.414680e+000
1.571608e+003,3.025299e+000
1.572572e+003,3.475914e+000
1.573536e+003,4.842361e+000
1.574500e+003,6.090820e+000
1.575465e+003,6.801628e+000
1.576429e+003,7.376953e+000
1.577393e+003,7.987213e+000
1.578357e+003,8.699745e+000
1.579322e+003,1.024712e+001
1.580286e+003,1.246185e+001
1.581250e+003,1.234081e+001
1.582214e+003,8.221344e+000
1.583179e+003,4.394226e+000
1.584143e+003,4.027496e+000
1.585107e+003,5.646118e+000
1.586071e+003,7.936188e+000
1.587036e+003,1.046931e+001
1.588000e+003,1.150544e+001
1.588964e+003,1.055026e+001
1.589928e+003,9.409904e+000
1.590893e+003,9.334579e+000
1.591857e+003,9.708206e+000
1.592821e+003,9.270157e+000
1.593785e+003,8.361343e+000
1.594750e+003,9.406357e+000
1.595714e+003,1.321526e+001
1.596678e+003,1.526124e+001
1.597642e+003,1.238062e+001
1.598606e+003,9.214470e+000
1.599571e+003,9.924553e+000
1.600535e+003,1.232558e+001
1.601499e+003,1.381319e+001
1.602463e+003,1.419714e+001
1.603427e+003,1.402504e+001
1.604392e+003,1.344762e+001
1.605356e+003,1.300253e+001
1.606320e+003,1.329762e+001
1.607284e+003,1.412817e+001
1.608249e+003,1.511846e+001
1.609213e+003,1.629717e+001
1.610177e+003,1.642025e+001
1.611141e+003,1.472290e+001
1.612106e+003,1.336276e+001
1.613070e+003,1.343368e+001
1.614034e+003,1.419418e+001
1.614998e+003,1.566098e+001
1.615963e+003,1.724038e+001
1.616927e+003,1.789269e+001
1.617891e+003,1.752151e+001
1.618855e+003,1.681573e+001
1.619820e+003,1.608480e+001
1.620784e+003,1.550787e+001
1.621748e+003,1.547299e+001
1.622712e+003,1.601013e+001
1.623677e+003,1.699947e+001
1.624641e+003,1.871223e+001
1.625605e+003,1.918813e+001
1.626569e+003,1.669406e+001
1.627533e+003,1.479205e+001
1.628498e+003,1.601325e+001
1.629462e+003,1.795480e+001
1.630426e+003,1.871799e+001
1.631390e+003,1.849523e+001
1.632354e+003,1.788441e+001
1.633319e+003,1.714098e+001
1.634283e+003,1.672139e+001
1.635247e+003,1.692828e+001
1.636211e+003,1.771507e+001
1.637176e+003,1.960599e+001
1.638140e+003,2.242400e+001
1.639104e+003,2.266238e+001
1.640068e+003,1.928161e+001
1.641033e+003,1.683609e+001
1.641997e+003,1.689420e+001
1.642961e+003,1.754317e+001
1.643925e+003,1.804168e+001
1.644890e+003,1.842375e+001
1.645854e+003,1.882948e+001
1.646818e+003,1.911702e+001
1.647782e+003,1.874394e+001
1.648747e+003,1.762515e+001
1.649711e+003,1.691821e+001
1.650675e+003,1.777388e+001
1.651639e+003,1.933373e+001
1.652604e+003,1.975826e+001
1.653568e+003,1.904667e+001
1.654532e+003,1.791832e+001
1.655496e+003,1.608488e+001
1.656460e+003,1.501691e+001
1.657425e+003,1.552550e+001
1.658389e+003,1.643989e+001
1.659353e+003,1.786034e+001
1.660317e+003,1.878372e+001
1.661281e+003,1.755214e+001
1.662246e+003,1.489155e+001
1.663210e+003,1.308678e+001
1.664174e+003,1.291145e+001
1.665138e+003,1.364958e+001
1.666103e+003,1.511360e+001
1.667067e+003,1.633229e+001
1.668031e+003,1.469501e+001
1.668995e+003,1.053925e+001
1.669960e+003,8.864655e+000
1.670924e+003,1.075815e+001
1.671888e+003,1.201532e+001
1.672852e+003,1.034957e+001
1.673817e+003,9.151634e+000
1.674781e+003,1.172140e+001
1.675745e+003,1.499181e+001
1.676709e+003,1.539867e+001
1.677674e+003,1.346679e+001
1.678638e+003,1.141673e+001
1.679602e+003,9.965958e+000
1.680566e+003,9.549980e+000
1.681531e+003,1.100650e+001
1.682495e+003,1.310628e+001
1.683459e+003,1.352547e+001
1.684423e+003,1.252934e+001
1.685387e+003,1.218241e+001
1.686352e+003,1.283883e+001
1.687316e+003,1.276165e+001
1.688280e+003,1.085199e+001
1.689244e+003,9.104454e+000
1.690208e+003,9.242569e+000
1.691173e+003,1.013808e+001
1.692137e+003,1.076482e+001
1.693101e+003,1.114961e+001
1.694065e+003,1.140926e+001
1.695030e+003,1.151198e+001
1.695994e+003,1.161376e+001
1.696958e+003,1.214594e+001
1.697922e+003,1.237631e+001
1.698887e+003,1.096307e+001
1.699851e+003,8.579048e+000
1.700815e+003,7.254547e+000
1.701779e+003,7.131805e+000
1.702744e+003,7.390961e+000
1.703708e+003,7.988029e+000
1.704672e+003,8.302727e+000
1.705636e+003,7.502609e+000
1.706601e+003,6.403778e+000
1.707565e+003,6.787857e+000
1.708529e+003,8.000648e+000
1.709493e+003,7.418739e+000
1.710458e+003,4.438637e+000
1.711422e+003,2.495888e+000
1.712386e+003,3.720306e+000
1.713350e+003,5.682930e+000
1.714314e+003,6.733627e+000
1.715279e+003,6.998146e+000
1.716243e+003,6.465012e+000
1.717207e+003,5.376137e+000
1.718171e+003,4.674110e+000
1.719135e+003,4.630928e+000
1.720100e+003,4.863510e+000
1.721064e+003,5.174690e+000
1.722028e+003,5.400345e+000
1.722992e+003,5.315895e+000
1.723957e+003,5.032539e+000
1.724921e+003,4.906509e+000
1.725885e+003,4.904152e+000
1.726849e+003,4.676216e+000
1.727814e+003,3.864799e+000
1.728778e+003,3.427841e+000
1.729742e+003,4.127045e+000
1.730706e+003,5.028656e+000
1.731671e+003,5.006599e+000
1.732635e+003,4.443291e+000
1.733599e+003,4.616196e+000
1.734563e+003,5.584831e+000
1.735528e+003,5.811615e+000
1.736492e+003,4.467323e+000
1.737456e+003,2.942406e+000
1.738420e+003,2.866783e+000
1.739385e+003,3.948631e+000
1.740349e+003,5.375778e+000
1.741313e+003,7.508232e+000
1.742277e+003,8.325775e+000
1.743241e+003,7.264694e+000
1.744206e+003,5.975693e+000
1.745170e+003,4.172874e+000
1.746134e+003,2.691124e+000
1.747098e+003,1.964943e+000
1.748063e+003,1.808548e+000
1.749027e+003,2.331146e+000
1.749991e+003,3.143112e+000
1.750955e+003,3.323235e+000
1.751919e+003,2.643539e+000
1.752884e+003,1.880211e+000
1.753848e+003,1.672829e+000
1.754812e+003,1.878059e+000
1.755776e+003,2.326126e+000
1.756741e+003,3.037811e+000
1.757705e+003,3.050293e+000
1.758669e+003,1.765953e+000
1.759633e+003,1.447983e+000
1.760598e+003,3.580894e+000
1.761562e+003,4.786156e+000
1.762526e+003,3.148209e+000
1.763490e+003,1.300682e+000
1.764455e+003,1.125198e+000
1.765419e+003,1.991043e+000
1.766383e+003,2.911171e+000
1.767347e+003,3.566269e+000
1.768312e+003,3.761795e+000
1.769276e+003,3.385658e+000
1.770240e+003,2.758186e+000
1.771204e+003,2.156982e+000
1.772168e+003,1.745789e+000
1.773133e+003,1.782623e+000
1.774097e+003,2.252571e+000
1.775061e+003,3.267166e+000
1.776025e+003,4.998138e+000
1.776990e+003,5.555458e+000
1.777954e+003,3.861984e+000
1.778918e+003,2.030792e+000
1.779882e+003,1.445534e+000
1.780846e+003,1.593910e+000
1.781811e+003,2.012642e+000
1.782775e+003,2.590965e+000
1.783739e+003,2.870102e+000
1.784703e+003,2.762558e+000
1.785668e+003,2.853355e+000
1.786632e+003,3.531349e+000
1.787596e+003,4.153564e+000
1.788560e+003,4.418533e+000
1.789525e+003,4.362144e+000
1.790489e+003,3.725548e+000
1.791453e+003,2.750198e+000
1.792417e+003,2.265701e+000
1.793382e+003,2.407654e+000
1.794346e+003,2.510628e+000
1.795310e+003,2.200096e+000
1.796274e+003,1.916008e+000
1.797239e+003,2.259422e+000
1.798203e+003,2.969276e+000
1.799167e+003,2.908356e+000
1.800131e+003,1.686134e+000
1.801095e+003,1.628311e+000
1.802060e+003,4.288132e+000
1.803024e+003,5.713921e+000
1.803988e+003,4.281792e+000
1.804952e+003,3.007889e+000
1.805917e+003,3.719589e+000
1.806881e+003,4.930069e+000
1.807845e+003,5.206337e+000
1.808809e+003,4.694702e+000
1.809773e+003,3.913712e+000
1.810738e+003,3.128082e+000
1.811702e+003,2.567528e+000
1.812666e+003,2.375046e+000
1.813630e+003,2.651985e+000
1.814595e+003,3.704285e+000
1.815559e+003,5.106766e+000
1.816523e+003,4.921852e+000
1.817487e+003,2.946823e+000
1.818452e+003,1.898483e+000
1.819416e+003,2.290222e+000
1.820380e+003,2.606834e+000
1.821344e+003,2.126053e+000
1.822309e+003,1.823586e+000
1.823273e+003,2.739273e+000
1.824237e+003,3.811035e+000
1.825201e+003,3.635681e+000
1.826166e+003,2.717697e+000
1.827130e+003,2.591492e+000
1.828094e+003,3.489555e+000
1.829058e+003,4.426903e+000
1.830022e+003,5.028618e+000
1.830987e+003,5.424408e+000
1.831951e+003,5.629608e+000
1.832915e+003,5.761673e+000
1.833879e+003,6.291260e+000
1.834844e+003,6.846352e+000
1.835808e+003,5.847961e+000
1.836772e+003,3.350777e+000
1.837736e+003,2.043137e+000
1.838700e+003,3.102043e+000
1.839665e+003,4.875748e+000
1.840629e+003,5.992943e+000
1.841593e+003,6.566643e+000
1.842557e+003,6.811470e+000
1.843522e+003,6.722374e+000
1.844486e+003,6.063805e+000
1.845450e+003,4.029640e+000
1.846414e+003,3.141762e+000
1.847379e+003,4.251495e+000
1.848343e+003,5.164856e+000
1.849307e+003,4.939484e+000
1.850271e+003,4.678055e+000
1.851236e+003,5.665649e+000
1.852200e+003,6.879410e+000
1.853164e+003,6.549591e+000
1.854128e+003,4.907608e+000
1.855093e+003,3.459267e+000
1.856057e+003,2.884964e+000
1.857021e+003,3.126099e+000
1.857985e+003,4.223442e+000
1.858949e+003,5.495438e+000
1.859914e+003,5.679779e+000
1.860878e+003,4.998680e+000
1.861842e+003,4.587120e+000
1.862806e+003,4.436035e+000
1.863771e+003,4.567513e+000
1.864735e+003,5.022377e+000
1.865699e+003,5.531914e+000
1.866663e+003,6.173981e+000
1.867627e+003,6.549103e+000
1.868592e+003,6.062286e+000
1.869556e+003,5.130661e+000
1.870520e+003,4.437523e+000
1.871484e+003,4.041664e+000
1.872449e+003,4.591164e+000
1.873413e+003,6.751945e+000
1.874377e+003,8.104118e+000
1.875341e+003,6.855484e+000
1.876306e+003,5.815697e+000
1.877270e+003,6.886360e+000
1.878234e+003,8.474899e+000
1.879198e+003,8.966957e+000
1.880163e+003,8.774925e+000
1.881127e+003,9.010689e+000
1.882091e+003,9.653648e+000
1.883055e+003,9.717880e+000
1.884020e+003,8.835045e+000
1.884984e+003,7.704330e+000
1.885948e+003,6.946785e+000
1.886912e+003,6.584366e+000
1.887876e+003,6.736023e+000
1.888841e+003,7.349319e+000
1.889805e+003,7.736725e+000
1.890769e+003,7.925919e+000
1.891733e+003,7.632027e+000
1.892698e+003,6.271271e+000
1.893662e+003,5.729034e+000
1.894626e+003,7.406517e+000
1.895590e+003,9.121841e+000
1.896554e+003,9.514160e+000
1.897519e+003,9.081345e+000
1.898483e+003,7.745232e+000
1.899447e+003,6.027405e+000
1.900411e+003,5.997414e+000
1.901376e+003,8.143250e+000
1.902340e+003,9.516243e+000
1.903304e+003,8.525406e+000
1.904268e+003,7.246704e+000
1.905233e+003,6.617081e+000
1.906197e+003,6.651421e+000
1.907161e+003,7.918144e+000
1.908125e+003,9.597412e+000
1.909090e+003,1.040782e+001
1.910054e+003,1.010596e+001
1.911018e+003,8.332672e+000
1.911982e+003,5.347099e+000
1.912947e+003,3.455200e+000
1.913911e+003,4.328690e+000
1.914875e+003,6.731606e+000
1.915839e+003,8.898582e+000
1.916803e+003,1.057710e+001
1.917768e+003,1.035725e+001
1.918732e+003,7.763519e+000
1.919696e+003,6.700050e+000
1.920660e+003,7.794815e+000
1.921625e+003,8.903732e+000
1.922589e+003,9.759697e+000
1.923553e+003,1.017478e+001
1.924517e+003,9.408134e+000
1.925481e+003,8.736519e+000
1.926446e+003,9.671768e+000
1.927410e+003,1.137232e+001
1.928374e+003,1.220031e+001
1.929338e+003,1.202072e+001
1.930303e+003,1.136598e+001
1.931267e+003,1.014624e+001
1.932231e+003,9.416885e+000
1.933195e+003,1.011713e+001
1.934160e+003,1.080814e+001
1.935124e+003,1.017569e+001
1.936088e+003,9.129204e+000
1.937052e+003,8.878914e+000
1.938017e+003,9.210258e+000
1.938981e+003,9.251495e+000
1.939945e+003,8.985237e+000
1.940909e+003,9.380371e+000
1.941874e+003,1.075322e+001
1.942838e+003,1.172824e+001
1.943802e+003,1.101685e+001
1.944766e+003,9.651207e+000
1.945730e+003,9.652252e+000
1.946695e+003,1.080627e+001
1.947659e+003,1.163361e+001
1.948623e+003,1.209382e+001
1.949587e+003,1.269638e+001
1.950552e+003,1.379919e+001
1.951516e+003,1.379839e+001
1.952480e+003,1.157117e+001
1.953444e+003,9.364090e+000
1.954408e+003,8.648788e+000
1.955373e+003,8.842537e+000
1.956337e+003,9.485336e+000
1.957301e+003,1.043398e+001
1.958265e+003,1.095292e+001
1.959230e+003,1.096022e+001
1.960194e+003,1.116071e+001
1.961158e+003,1.178950e+001
1.962122e+003,1.223975e+001
1.963087e+003,1.246792e+001
1.964051e+003,1.236800e+001
1.965015e+003,1.136941e+001
1.965979e+003,1.055411e+001
1.966944e+003,1.131326e+001
1.967908e+003,1.284589e+001
1.968872e+003,1.362400e+001
1.969836e+003,1.348499e+001
1.970801e+003,1.317876e+001
1.971765e+003,1.304281e+001
1.972729e+003,1.286522e+001
1.973693e+003,1.240419e+001
1.974657e+003,1.196887e+001
1.975622e+003,1.200755e+001
1.976586e+003,1.240726e+001
1.977550e+003,1.319161e+001
1.978514e+003,1.416521e+001
1.979479e+003,1.389722e+001
1.980443e+003,1.228836e+001
1.981407e+003,1.153358e+001
1.982371e+003,1.249279e+001
1.983335e+003,1.413045e+001
1.984300e+003,1.586143e+001
1.985264e+003,1.663115e+001
1.986228e+003,1.449052e+001
1.987192e+003,1.037480e+001
1.988157e+003,9.306427e+000
1.989121e+003,1.211524e+001
1.990085e+003,1.383047e+001
1.991049e+003,1.435823e+001
1.992014e+003,1.403036e+001
1.992978e+003,1.165235e+001
1.993942e+003,1.005233e+001
1.994906e+003,1.081611e+001
1.995871e+003,1.204916e+001
1.996835e+003,1.238563e+001
1.997799e+003,1.233207e+001
1.998763e+003,1.280119e+001
1.999728e+003,1.362679e+001
