5.003444e+002,3.693311e+001
5.013087e+002,3.357886e+001
5.022729e+002,3.318323e+001
5.032371e+002,3.520786e+001
5.042014e+002,3.667853e+001
5.051656e+002,3.767114e+001
5.061298e+002,3.812976e+001
5.070941e+002,3.791647e+001
5.080583e+002,3.680817e+001
5.090225e+002,3.555264e+001
5.099868e+002,3.420490e+001
5.109510e+002,3.270303e+001
5.119152e+002,3.067151e+001
5.128795e+002,2.802417e+001
5.138437e+002,2.655453e+001
5.148079e+002,2.814130e+001
5.157722e+002,2.994717e+001
5.167364e+002,3.095444e+001
5.177006e+002,3.085794e+001
5.186649e+002,2.985519e+001
5.196291e+002,2.734845e+001
5.205933e+002,2.507474e+001
5.215576e+002,2.506137e+001
5.225218e+002,2.718585e+001
5.234860e+002,3.020889e+001
5.244503e+002,3.221387e+001
5.254145e+002,3.328329e+001
5.263787e+002,3.227625e+001
5.273430e+002,2.707315e+001
5.283072e+002,2.120657e+001
5.292714e+002,2.001785e+001
5.302357e+002,2.674698e+001
5.311999e+002,3.055518e+001
5.321641e+002,2.962747e+001
5.331284e+002,2.680063e+001
5.340926e+002,2.368149e+001
5.350568e+002,2.066272e+001
5.360211e+002,1.826776e+001
5.369853e+002,1.709164e+001
5.379495e+002,1.696210e+001
5.389138e+002,1.834558e+001
5.398780e+002,2.109576e+001
5.408422e+002,2.410318e+001
5.418065e+002,2.387894e+001
5.427707e+002,2.094263e+001
5.437349e+002,1.888586e+001
5.446992e+002,1.874374e+001
5.456634e+002,1.997443e+001
5.466276e+002,2.074249e+001
5.475919e+002,2.084189e+001
5.485561e+002,2.078183e+001
5.495203e+002,2.034085e+001
5.504846e+002,1.967593e+001
5.514488e+002,1.917838e+001
5.524130e+002,1.939185e+001
5.533773e+002,1.909354e+001
5.543415e+002,1.716382e+001
5.553057e+002,1.478604e+001
5.562700e+002,1.322345e+001
5.572342e+002,1.321368e+001
5.581984e+002,1.393628e+001
5.591627e+002,1.344391e+001
5.601269e+002,1.231616e+001
5.610911e+002,1.159955e+001
5.620554e+002,1.183716e+001
5.630196e+002,1.272894e+001
5.639838e+002,1.216928e+001
5.649481e+002,7.936829e+000
5.659123e+002,5.481537e+000
5.668765e+002,7.215851e+000
5.678408e+002,1.170581e+001
5.688050e+002,1.452023e+001
5.697692e+002,1.322021e+001
5.707335e+002,1.126154e+001
5.716977e+002,9.099060e+000
5.726619e+002,7.314240e+000
5.736262e+002,6.744568e+000
5.745904e+002,8.208252e+000
5.755546e+002,1.023648e+001
5.765189e+002,9.939087e+000
5.774831e+002,8.252167e+000
5.784473e+002,7.218201e+000
5.794116e+002,8.294556e+000
5.803758e+002,1.129056e+001
5.813400e+002,1.195059e+001
5.823043e+002,9.502106e+000
5.832685e+002,6.862701e+000
5.842327e+002,4.566498e+000
5.851970e+002,2.918152e+000
5.861612e+002,3.168121e+000
5.871254e+002,8.485229e+000
5.880897e+002,1.216934e+001
5.890539e+002,1.211520e+001
5.900181e+002,9.622955e+000
5.909824e+002,6.978699e+000
5.919466e+002,5.517609e+000
5.929108e+002,4.743774e+000
5.938751e+002,3.929382e+000
5.948393e+002,3.206177e+000
5.958035e+002,2.886993e+000
5.967678e+002,3.213867e+000
5.977320e+002,4.116333e+000
5.986962e+002,4.344147e+000
5.996605e+002,3.660828e+000
6.006247e+002,3.118744e+000
6.015889e+002,3.709686e+000
6.025532e+002,5.276367e+000
6.035174e+002,5.192535e+000
6.044816e+002,5.699768e-001
6.054459e+002,-2.546844e+000
6.064101e+002,-2.542328e+000
6.073743e+002,-5.771484e-001
6.083386e+002,1.088531e+000
6.093028e+002,1.019226e+000
6.102670e+002,1.194458e+000
6.112313e+002,3.702728e+000
6.121955e+002,7.088928e+000
6.131597e+002,9.461853e+000
6.141240e+002,9.523010e+000
6.150882e+002,7.764252e+000
6.160524e+002,6.044800e+000
6.170167e+002,4.458466e+000
6.179809e+002,3.352325e+000
6.189451e+002,2.789917e+000
6.199094e+002,2.672302e+000
6.208736e+002,2.923309e+000
6.218378e+002,4.537384e+000
6.228021e+002,5.770325e+000
6.237663e+002,6.577911e+000
6.247305e+002,6.950439e+000
6.256948e+002,6.657867e+000
6.266590e+002,4.997864e+000
6.276232e+002,3.616119e+000
6.285875e+002,3.814270e+000
6.295517e+002,4.830231e+000
6.305159e+002,6.088196e+000
6.314802e+002,7.140442e+000
6.324444e+002,7.591522e+000
6.334086e+002,5.637146e+000
6.343729e+002,2.337830e+000
6.353371e+002,5.328369e-001
6.363013e+002,1.454529e+000
6.372656e+002,4.089325e+000
6.382298e+002,4.935822e+000
6.391940e+002,1.576538e+000
6.401583e+002,-6.301880e-001
6.411225e+002,-8.729248e-001
6.420867e+002,4.861450e-002
6.430510e+002,1.328430e+000
6.440152e+002,2.996033e+000
6.449794e+002,3.506653e+000
6.459437e+002,1.215729e+000
6.469079e+002,-1.675781e+000
6.478721e+002,-3.360199e+000
6.488364e+002,-3.216003e+000
6.498006e+002,-2.216858e+000
6.507648e+002,-2.342468e+000
6.517291e+002,-3.038422e+000
6.526933e+002,-2.451233e+000
6.536575e+002,-1.449280e-001
6.546218e+002,2.557404e+000
6.555860e+002,3.061432e+000
6.565502e+002,-1.845093e-001
6.575145e+002,-2.549316e+000
6.584787e+002,-3.821014e+000
6.594429e+002,-4.496185e+000
6.604072e+002,-5.100037e+000
6.613714e+002,-5.781433e+000
6.623356e+002,-5.453033e+000
6.632999e+002,-2.113098e+000
6.642641e+002,8.508911e-001
6.652283e+002,1.330627e+000
6.661926e+002,-3.834229e-001
6.671568e+002,-2.221039e+000
6.681210e+002,-1.668793e+000
6.690853e+002,2.661133e-001
6.700495e+002,9.743042e-001
6.710137e+002,4.581604e-001
6.719780e+002,-4.329834e-001
6.729422e+002,-8.240967e-001
6.739064e+002,-6.474915e-001
6.748707e+002,-7.598572e-001
6.758349e+002,-2.030762e+000
6.767991e+002,-2.628754e+000
6.777634e+002,-1.082428e+000
6.787276e+002,2.365021e+000
6.796918e+002,5.169159e+000
6.806561e+002,6.422455e+000
6.816203e+002,6.260925e+000
6.825845e+002,3.296722e+000
6.835488e+002,-7.138062e-001
6.845130e+002,-2.753265e+000
6.854772e+002,-3.031616e-001
6.864415e+002,4.158295e+000
6.874057e+002,4.476959e+000
6.883699e+002,1.722778e+000
6.893342e+002,-1.270142e+000
6.902984e+002,-2.933624e+000
6.912626e+002,-3.314545e+000
6.922269e+002,-3.152435e+000
6.931911e+002,-1.107178e+000
6.941553e+002,1.461487e-001
6.951196e+002,-1.752014e-001
6.960838e+002,-1.523956e+000
6.970480e+002,-3.109009e+000
6.980123e+002,-5.165283e+000
6.989765e+002,-6.069305e+000
6.999407e+002,-4.279541e+000
7.009050e+002,-2.056732e+000
7.018692e+002,-1.499725e+000
7.028334e+002,-3.165070e+000
7.037977e+002,-5.422272e+000
7.047619e+002,-5.509430e+000
7.057261e+002,-4.067474e+000
7.066904e+002,-2.423004e+000
7.076546e+002,-8.029480e-001
7.086188e+002,4.031067e-001
7.095831e+002,4.647827e-001
7.105473e+002,-1.401428e+000
7.115115e+002,-2.203186e+000
7.124758e+002,-1.448517e+000
7.134400e+002,-4.808655e-001
7.144042e+002,-3.921509e-002
7.153685e+002,-8.386230e-002
7.163327e+002,3.021240e-002
7.172969e+002,8.458862e-001
7.182612e+002,1.695709e+000
7.192254e+002,2.468750e+000
7.201896e+002,2.945374e+000
7.211539e+002,2.673706e+000
7.221181e+002,1.148590e+000
7.230823e+002,-7.580872e-001
7.240466e+002,-3.379211e-001
7.250108e+002,1.963745e+000
7.259750e+002,3.828217e+000
7.269393e+002,3.688080e+000
7.279035e+002,1.619232e+000
7.288677e+002,-1.395569e-001
7.298320e+002,-1.237000e+000
7.307962e+002,-1.649292e+000
7.317604e+002,-1.234070e+000
7.327247e+002,-1.345520e-001
7.336889e+002,1.566620e+000
7.346531e+002,3.972961e+000
7.356174e+002,5.332886e+000
7.365816e+002,4.648560e+000
7.375458e+002,3.411652e+000
7.385101e+002,2.672302e+000
7.394743e+002,2.703522e+000
7.404385e+002,3.007629e+000
7.414028e+002,2.768463e+000
7.423670e+002,1.725494e+000
7.433312e+002,6.316223e-001
7.442955e+002,-1.831970e-001
7.452597e+002,-8.986206e-001
7.462239e+002,-2.219666e+000
7.471882e+002,-4.982635e+000
7.481524e+002,-4.784332e+000
7.491166e+002,6.489563e-001
7.500809e+002,5.367950e+000
7.510451e+002,7.005188e+000
7.520093e+002,6.023682e+000
7.529736e+002,4.639374e+000
7.539378e+002,3.837585e+000
7.549020e+002,3.383789e+000
7.558663e+002,3.219666e+000
7.568306e+002,3.149139e+000
7.577948e+002,2.850555e+000
7.587590e+002,2.084351e+000
7.597233e+002,8.738403e-001
7.606875e+002,-7.653198e-001
7.616517e+002,-2.562653e+000
7.626160e+002,-2.235046e+000
7.635802e+002,1.762299e+000
7.645444e+002,7.318237e+000
7.655087e+002,9.789063e+000
7.664729e+002,7.330109e+000
7.674371e+002,5.483185e+000
7.684014e+002,5.030060e+000
7.693656e+002,4.779388e+000
7.703298e+002,3.818787e+000
7.712941e+002,2.157684e+000
7.722583e+002,8.712158e-001
7.732225e+002,6.376953e-001
7.741868e+002,1.285950e+000
7.751510e+002,3.408630e+000
7.761152e+002,6.300446e+000
7.770795e+002,8.318054e+000
7.780437e+002,7.964203e+000
7.790079e+002,5.608246e+000
7.799722e+002,5.431335e+000
7.809364e+002,7.920441e+000
7.819006e+002,8.659180e+000
7.828649e+002,4.177673e+000
7.838291e+002,-3.227081e+000
7.847933e+002,-5.713165e+000
7.857576e+002,1.003021e+000
7.867218e+002,5.302094e+000
7.876860e+002,3.552155e+000
7.886503e+002,4.109192e-001
7.896145e+002,8.666992e-003
7.905787e+002,3.317047e+000
7.915430e+002,7.194855e+000
7.925072e+002,8.131989e+000
7.934714e+002,7.480560e+000
7.944357e+002,6.662445e+000
7.953999e+002,6.019073e+000
7.963641e+002,5.504944e+000
7.973284e+002,4.967133e+000
7.982926e+002,4.364136e+000
7.992568e+002,4.882629e+000
8.002211e+002,7.110535e+000
8.011853e+002,8.377228e+000
8.021495e+002,7.327026e+000
8.031138e+002,4.969635e+000
8.040780e+002,4.272308e+000
8.050422e+002,6.987030e+000
8.060065e+002,8.772675e+000
8.069707e+002,7.209717e+000
8.079349e+002,4.563965e+000
8.088992e+002,3.187439e+000
8.098634e+002,3.951447e+000
8.108276e+002,5.684631e+000
8.117919e+002,6.996490e+000
8.127561e+002,7.436523e+000
8.137203e+002,6.248657e+000
8.146846e+002,3.607422e+000
8.156488e+002,1.334747e+000
8.166130e+002,1.734497e+000
8.175773e+002,5.516479e+000
8.185415e+002,7.331787e+000
8.195057e+002,5.697266e+000
8.204700e+002,3.995209e+000
8.214342e+002,3.361603e+000
8.223984e+002,3.528137e+000
8.233627e+002,3.625946e+000
8.243269e+002,3.312073e+000
8.252911e+002,3.179443e+000
8.262554e+002,3.527740e+000
8.272196e+002,4.152496e+000
8.281838e+002,4.800446e+000
8.291481e+002,5.386993e+000
8.301123e+002,6.095398e+000
8.310765e+002,7.349426e+000
8.320408e+002,9.001770e+000
8.330050e+002,1.013287e+001
8.339692e+002,1.083908e+001
8.349335e+002,1.072354e+001
8.358977e+002,8.855774e+000
8.368619e+002,4.814545e+000
8.378262e+002,2.955963e+000
8.387904e+002,5.025879e+000
8.397546e+002,7.115021e+000
8.407189e+002,8.597534e+000
8.416831e+002,9.416260e+000
8.426473e+002,9.570770e+000
8.436116e+002,8.948456e+000
8.445758e+002,8.263397e+000
8.455400e+002,7.977142e+000
8.465043e+002,7.812103e+000
8.474685e+002,7.733948e+000
8.484327e+002,7.868134e+000
8.493970e+002,8.354248e+000
8.503612e+002,9.206421e+000
8.513254e+002,1.041953e+001
8.522897e+002,1.145630e+001
8.532539e+002,1.214993e+001
8.542181e+002,1.266739e+001
8.551824e+002,1.342422e+001
8.561466e+002,1.452560e+001
8.571108e+002,1.531049e+001
8.580751e+002,1.491440e+001
8.590393e+002,1.414392e+001
8.600035e+002,1.304608e+001
8.609678e+002,1.217136e+001
8.619320e+002,1.208771e+001
8.628962e+002,1.297647e+001
8.638605e+002,1.444833e+001
8.648247e+002,1.650278e+001
8.657889e+002,1.846927e+001
8.667532e+002,1.862805e+001
8.677174e+002,1.675983e+001
8.686816e+002,1.450348e+001
8.696459e+002,1.373334e+001
8.706101e+002,1.467984e+001
8.715743e+002,1.625931e+001
8.725386e+002,1.936841e+001
8.735028e+002,2.196219e+001
8.744670e+002,2.331802e+001
8.754313e+002,2.359839e+001
8.763955e+002,2.310614e+001
8.773597e+002,2.165884e+001
8.783240e+002,2.081223e+001
8.792882e+002,2.247589e+001
8.802524e+002,2.450647e+001
8.812167e+002,2.473624e+001
8.821809e+002,2.301099e+001
8.831451e+002,2.097064e+001
8.841094e+002,2.078647e+001
8.850736e+002,2.255664e+001
8.860378e+002,2.415762e+001
8.870021e+002,2.547906e+001
8.879663e+002,2.665488e+001
8.889305e+002,2.786084e+001
8.898948e+002,2.891495e+001
8.908590e+002,2.904138e+001
8.918232e+002,2.723422e+001
8.927875e+002,2.645425e+001
8.937517e+002,2.798120e+001
8.947159e+002,3.018228e+001
8.956802e+002,3.187766e+001
8.966444e+002,3.255890e+001
8.976086e+002,3.203998e+001
8.985729e+002,2.966519e+001
8.995371e+002,2.679153e+001
9.005013e+002,2.524957e+001
9.014656e+002,2.514081e+001
9.024298e+002,2.641019e+001
9.033940e+002,2.912241e+001
9.043583e+002,3.274298e+001
9.053225e+002,3.415628e+001
9.062867e+002,3.015884e+001
9.072510e+002,2.780081e+001
9.082152e+002,2.875574e+001
9.091794e+002,3.082166e+001
9.101437e+002,3.145383e+001
9.111079e+002,3.021005e+001
9.120721e+002,2.987808e+001
9.130364e+002,3.400964e+001
9.140006e+002,3.751147e+001
9.149648e+002,3.678110e+001
9.159291e+002,3.331070e+001
9.168933e+002,3.037384e+001
9.178575e+002,3.017960e+001
9.188218e+002,3.180045e+001
9.197860e+002,3.247583e+001
9.207502e+002,3.211945e+001
9.217145e+002,3.164615e+001
9.226787e+002,3.151425e+001
9.236429e+002,3.149356e+001
9.246072e+002,3.107053e+001
9.255714e+002,3.002719e+001
9.265356e+002,2.897733e+001
9.274999e+002,2.783679e+001
9.284641e+002,2.674826e+001
9.294283e+002,2.563770e+001
9.303926e+002,2.478629e+001
9.313568e+002,2.492133e+001
9.323210e+002,2.651224e+001
9.332853e+002,2.794861e+001
9.342495e+002,2.541565e+001
9.352137e+002,2.117532e+001
9.361780e+002,1.904810e+001
9.371422e+002,1.997250e+001
9.381064e+002,2.221286e+001
9.390707e+002,2.322992e+001
9.400349e+002,2.251556e+001
9.409991e+002,2.277509e+001
9.419634e+002,2.513242e+001
9.429276e+002,2.680145e+001
9.438918e+002,2.666855e+001
9.448561e+002,2.559149e+001
9.458203e+002,2.508264e+001
9.467845e+002,2.569861e+001
9.477488e+002,2.647226e+001
9.487130e+002,2.676376e+001
9.496772e+002,2.676398e+001
9.506415e+002,2.666183e+001
9.516057e+002,2.640637e+001
9.525699e+002,2.563531e+001
9.535342e+002,2.393643e+001
9.544984e+002,2.146054e+001
9.554626e+002,2.023236e+001
9.564269e+002,2.053024e+001
9.573911e+002,2.142514e+001
9.583553e+002,2.334473e+001
9.593196e+002,2.532623e+001
9.602838e+002,2.531586e+001
9.612480e+002,2.232733e+001
9.622123e+002,2.100305e+001
9.631765e+002,2.459760e+001
9.641407e+002,2.832700e+001
9.651050e+002,3.010013e+001
9.660692e+002,3.006143e+001
9.670334e+002,2.923788e+001
9.679977e+002,2.835739e+001
9.689619e+002,2.747433e+001
9.699261e+002,2.594894e+001
9.708904e+002,2.403244e+001
9.718546e+002,2.290689e+001
9.728188e+002,2.265741e+001
9.737831e+002,2.365036e+001
9.747473e+002,2.718127e+001
9.757115e+002,3.434326e+001
9.766758e+002,3.834030e+001
9.776400e+002,3.643466e+001
9.786042e+002,3.500244e+001
9.795685e+002,3.617694e+001
9.805327e+002,3.812036e+001
9.814969e+002,3.840308e+001
9.824612e+002,3.633707e+001
9.834254e+002,3.322485e+001
9.843896e+002,2.885385e+001
9.853539e+002,2.469720e+001
9.863181e+002,2.274796e+001
9.872823e+002,2.273602e+001
9.882466e+002,2.322083e+001
9.892108e+002,2.318597e+001
9.901750e+002,2.292816e+001
9.911393e+002,2.276981e+001
9.921035e+002,2.191632e+001
9.930677e+002,2.147772e+001
9.940320e+002,2.219016e+001
9.949962e+002,2.316757e+001
9.959604e+002,2.315909e+001
9.969247e+002,2.222690e+001
9.978889e+002,2.271854e+001
9.988531e+002,2.664999e+001
9.998174e+002,3.066232e+001
1.000782e+003,3.318787e+001
1.001746e+003,3.458313e+001
1.002710e+003,3.513937e+001
1.003674e+003,3.510880e+001
1.004639e+003,3.508316e+001
1.005603e+003,3.626364e+001
1.006567e+003,3.872067e+001
1.007531e+003,3.921490e+001
1.008495e+003,3.682690e+001
1.009460e+003,3.448935e+001
1.010424e+003,3.396130e+001
1.011388e+003,3.497913e+001
1.012352e+003,3.655667e+001
1.013317e+003,3.950586e+001
1.014281e+003,4.075763e+001
1.015245e+003,3.891888e+001
1.016209e+003,3.573370e+001
1.017174e+003,3.184534e+001
1.018138e+003,2.789401e+001
1.019102e+003,2.491809e+001
1.020066e+003,2.396567e+001
1.021031e+003,2.415903e+001
1.021995e+003,2.206705e+001
1.022959e+003,1.809796e+001
1.023923e+003,1.559979e+001
1.024887e+003,1.612775e+001
1.025852e+003,1.772488e+001
1.026816e+003,1.701569e+001
1.027780e+003,1.327753e+001
1.028744e+003,1.137048e+001
1.029709e+003,1.356613e+001
1.030673e+003,1.529355e+001
1.031637e+003,1.499976e+001
1.032601e+003,1.339636e+001
1.033566e+003,1.152820e+001
1.034530e+003,9.841248e+000
1.035494e+003,8.429626e+000
1.036458e+003,7.074829e+000
1.037422e+003,6.179108e+000
1.038387e+003,7.050995e+000
1.039351e+003,9.355255e+000
1.040315e+003,1.050940e+001
1.041279e+003,8.331635e+000
1.042244e+003,3.983826e+000
1.043208e+003,3.080536e+000
1.044172e+003,9.111481e+000
1.045136e+003,1.224036e+001
1.046101e+003,1.046091e+001
1.047065e+003,7.902069e+000
1.048029e+003,7.337372e+000
1.048993e+003,8.320801e+000
1.049958e+003,8.251862e+000
1.050922e+003,5.437958e+000
1.051886e+003,2.816223e+000
1.052850e+003,3.756134e+000
1.053814e+003,6.396820e+000
1.054779e+003,8.582458e+000
1.055743e+003,9.735565e+000
1.056707e+003,1.033560e+001
1.057671e+003,1.098636e+001
1.058636e+003,1.165320e+001
1.059600e+003,1.154022e+001
1.060564e+003,9.884277e+000
1.061528e+003,9.044403e+000
1.062493e+003,9.683868e+000
1.063457e+003,1.071460e+001
1.064421e+003,1.112198e+001
1.065385e+003,1.085660e+001
1.066349e+003,1.035959e+001
1.067314e+003,9.883789e+000
1.068278e+003,9.179779e+000
1.069242e+003,7.457703e+000
1.070206e+003,5.692871e+000
1.071171e+003,5.612030e+000
1.072135e+003,7.698456e+000
1.073099e+003,1.046323e+001
1.074063e+003,1.151926e+001
1.075028e+003,1.074786e+001
1.075992e+003,1.035016e+001
1.076956e+003,1.023590e+001
1.077920e+003,1.025525e+001
1.078885e+003,1.075293e+001
1.079849e+003,1.145486e+001
1.080813e+003,1.155341e+001
1.081777e+003,1.075458e+001
1.082741e+003,1.055280e+001
1.083706e+003,1.253564e+001
1.084670e+003,1.423224e+001
1.085634e+003,1.413504e+001
1.086598e+003,1.269318e+001
1.087563e+003,1.092905e+001
1.088527e+003,9.543640e+000
1.089491e+003,8.652374e+000
1.090455e+003,8.285217e+000
1.091420e+003,8.374481e+000
1.092384e+003,8.019714e+000
1.093348e+003,6.819061e+000
1.094312e+003,5.646851e+000
1.095276e+003,5.138000e+000
1.096241e+003,5.251709e+000
1.097205e+003,5.614807e+000
1.098169e+003,6.185028e+000
1.099133e+003,6.599274e+000
1.100098e+003,6.620880e+000
1.101062e+003,6.708649e+000
1.102026e+003,7.357910e+000
1.102990e+003,8.320557e+000
1.103955e+003,8.872375e+000
1.104919e+003,8.551849e+000
1.105883e+003,7.789642e+000
1.106847e+003,7.558075e+000
1.107812e+003,7.870148e+000
1.108776e+003,8.513763e+000
1.109740e+003,9.509949e+000
1.110704e+003,1.078729e+001
1.111668e+003,1.305536e+001
1.112633e+003,1.589178e+001
1.113597e+003,1.660660e+001
1.114561e+003,1.355197e+001
1.115525e+003,1.129999e+001
1.116490e+003,1.206937e+001
1.117454e+003,1.318814e+001
1.118418e+003,1.307941e+001
1.119382e+003,1.198221e+001
1.120347e+003,1.076489e+001
1.121311e+003,9.822113e+000
1.122275e+003,9.009277e+000
1.123239e+003,8.444000e+000
1.124203e+003,8.403503e+000
1.125168e+003,9.209717e+000
1.126132e+003,1.111957e+001
1.127096e+003,1.343338e+001
1.128060e+003,1.547845e+001
1.129025e+003,1.732877e+001
1.129989e+003,1.986041e+001
1.130953e+003,2.412463e+001
1.131917e+003,2.648459e+001
1.132882e+003,2.462262e+001
1.133846e+003,2.234738e+001
1.134810e+003,2.212692e+001
1.135774e+003,2.347418e+001
1.136739e+003,2.430530e+001
1.137703e+003,2.346375e+001
1.138667e+003,2.256775e+001
1.139631e+003,2.487335e+001
1.140595e+003,2.994836e+001
1.141560e+003,3.356686e+001
1.142524e+003,3.512088e+001
1.143488e+003,3.725787e+001
1.144452e+003,4.214719e+001
1.145417e+003,4.899701e+001
1.146381e+003,5.461237e+001
1.147345e+003,5.765961e+001
1.148309e+003,6.276685e+001
1.149274e+003,7.265363e+001
1.150238e+003,8.325049e+001
1.151202e+003,9.277942e+001
1.152166e+003,1.015649e+002
1.153130e+003,1.109503e+002
1.154095e+003,1.212504e+002
1.155059e+003,1.304224e+002
1.156023e+003,1.359429e+002
1.156987e+003,1.377390e+002
1.157952e+003,1.368095e+002
1.158916e+003,1.331299e+002
1.159880e+003,1.289788e+002
1.160844e+003,1.257025e+002
1.161809e+003,1.220929e+002
1.162773e+003,1.157441e+002
1.163737e+003,1.061360e+002
1.164701e+003,9.621109e+001
1.165666e+003,8.558698e+001
1.166630e+003,7.623688e+001
1.167594e+003,6.941794e+001
1.168558e+003,6.404730e+001
1.169522e+003,5.820154e+001
1.170487e+003,5.160840e+001
1.171451e+003,4.673044e+001
1.172415e+003,4.667639e+001
1.173379e+003,5.015286e+001
1.174344e+003,5.021533e+001
1.175308e+003,4.682346e+001
1.176272e+003,4.373947e+001
1.177236e+003,4.221118e+001
1.178201e+003,4.165723e+001
1.179165e+003,4.142059e+001
1.180129e+003,4.138351e+001
1.181093e+003,4.092929e+001
1.182057e+003,4.013412e+001
1.183022e+003,3.872977e+001
1.183986e+003,3.588644e+001
1.184950e+003,3.300623e+001
1.185914e+003,3.126816e+001
1.186879e+003,3.095447e+001
1.187843e+003,3.213480e+001
1.188807e+003,3.488141e+001
1.189771e+003,3.807901e+001
1.190736e+003,3.824005e+001
1.191700e+003,3.493005e+001
1.192664e+003,3.285422e+001
1.193628e+003,3.304715e+001
1.194593e+003,3.392789e+001
1.195557e+003,3.483304e+001
1.196521e+003,3.548563e+001
1.197485e+003,3.480804e+001
1.198449e+003,3.223416e+001
1.199414e+003,2.971667e+001
1.200378e+003,2.777554e+001
1.201342e+003,2.652963e+001
1.202306e+003,2.651697e+001
1.203271e+003,2.710986e+001
1.204235e+003,2.724512e+001
1.205199e+003,2.641144e+001
1.206163e+003,2.486179e+001
1.207128e+003,2.290048e+001
1.208092e+003,2.050974e+001
1.209056e+003,1.866498e+001
1.210020e+003,1.732413e+001
1.210984e+003,1.648267e+001
1.211949e+003,1.706631e+001
1.212913e+003,1.750070e+001
1.213877e+003,1.524020e+001
1.214841e+003,1.029843e+001
1.215806e+003,6.530029e+000
1.216770e+003,6.054535e+000
1.217734e+003,6.039581e+000
1.218698e+003,4.306763e+000
1.219663e+003,1.800995e+000
1.220627e+003,-3.730469e-001
1.221591e+003,-1.953979e+000
1.222555e+003,-3.269714e+000
1.223520e+003,-4.600891e+000
1.224484e+003,-5.773834e+000
1.225448e+003,-6.276031e+000
1.226412e+003,-5.740906e+000
1.227376e+003,-5.394806e+000
1.228341e+003,-5.531830e+000
1.229305e+003,-5.635315e+000
1.230269e+003,-5.226563e+000
1.231233e+003,-4.659943e+000
1.232198e+003,-4.672089e+000
1.233162e+003,-5.404388e+000
1.234126e+003,-6.152008e+000
1.235090e+003,-6.579529e+000
1.236055e+003,-6.831024e+000
1.237019e+003,-7.209686e+000
1.237983e+003,-7.567688e+000
1.238947e+003,-7.094452e+000
1.239911e+003,-5.401520e+000
1.240876e+003,-3.841278e+000
1.241840e+003,-4.822296e+000
1.242804e+003,-8.607452e+000
1.243768e+003,-9.937775e+000
1.244733e+003,-5.805145e+000
1.245697e+003,-3.118927e+000
1.246661e+003,-3.594940e+000
1.247625e+003,-4.886078e+000
1.248590e+003,-5.136719e+000
1.249554e+003,-4.405975e+000
1.250518e+003,-3.746002e+000
1.251482e+003,-3.699707e+000
1.252447e+003,-4.182220e+000
1.253411e+003,-5.597260e+000
1.254375e+003,-6.950287e+000
1.255339e+003,-5.815552e+000
1.256303e+003,-2.171448e+000
1.257268e+003,9.320984e-001
1.258232e+003,1.501862e+000
1.259196e+003,5.001831e-001
1.260160e+003,-8.609009e-002
1.261125e+003,-1.964111e-001
1.262089e+003,6.826172e-001
1.263053e+003,3.508057e+000
1.264017e+003,5.912231e+000
1.264982e+003,7.667328e+000
1.265946e+003,8.654358e+000
1.266910e+003,8.107239e+000
1.267874e+003,6.646118e+000
1.268839e+003,6.553619e+000
1.269803e+003,9.397949e+000
1.270767e+003,1.293420e+001
1.271731e+003,1.253741e+001
1.272695e+003,8.358124e+000
1.273660e+003,5.342560e+000
1.274624e+003,3.685577e+000
1.275588e+003,2.310516e+000
1.276552e+003,4.778442e-001
1.277517e+003,-1.098602e+000
1.278481e+003,-7.881775e-001
1.279445e+003,1.660370e+000
1.280409e+003,2.822083e+000
1.281374e+003,6.278687e-001
1.282338e+003,-1.767731e+000
1.283302e+003,-2.984375e+000
1.284266e+003,-3.378723e+000
1.285230e+003,-2.959320e+000
1.286195e+003,-2.130096e+000
1.287159e+003,-2.133575e+000
1.288123e+003,-3.941925e+000
1.289087e+003,-6.336304e+000
1.290052e+003,-5.733582e+000
1.291016e+003,-6.929016e-001
1.291980e+003,1.638123e+000
1.292944e+003,-7.018127e-001
1.293909e+003,-3.214081e+000
1.294873e+003,-3.770111e+000
1.295837e+003,-3.492371e+000
1.296801e+003,-4.217621e+000
1.297766e+003,-6.094696e+000
1.298730e+003,-7.571259e+000
1.299694e+003,-7.896912e+000
1.300658e+003,-7.624084e+000
1.301622e+003,-6.847961e+000
1.302587e+003,-5.995331e+000
1.303551e+003,-6.105042e+000
1.304515e+003,-7.183197e+000
1.305479e+003,-7.858612e+000
1.306444e+003,-7.023346e+000
1.307408e+003,-5.210144e+000
1.308372e+003,-4.059784e+000
1.309336e+003,-3.934784e+000
1.310301e+003,-3.393005e+000
1.311265e+003,-7.580261e-001
1.312229e+003,4.834595e-001
1.313193e+003,-2.247253e+000
1.314157e+003,-5.920837e+000
1.315122e+003,-6.962952e+000
1.316086e+003,-5.432709e+000
1.317050e+003,-4.370972e+000
1.318014e+003,-5.760132e+000
1.318979e+003,-8.030060e+000
1.319943e+003,-8.494659e+000
1.320907e+003,-7.226196e+000
1.321871e+003,-5.842163e+000
1.322836e+003,-4.491364e+000
1.323800e+003,-3.425995e+000
1.324764e+003,-2.663544e+000
1.325728e+003,-2.265869e+000
1.326693e+003,-2.652863e+000
1.327657e+003,-3.936707e+000
1.328621e+003,-4.663239e+000
1.329585e+003,-3.809601e+000
1.330549e+003,-2.540009e+000
1.331514e+003,-1.706848e+000
1.332478e+003,-1.260254e+000
1.333442e+003,-9.891663e-001
1.334406e+003,-8.496399e-001
1.335371e+003,-1.092651e+000
1.336335e+003,-1.845062e+000
1.337299e+003,-2.618225e+000
1.338263e+003,-2.491547e+000
1.339228e+003,-1.313354e+000
1.340192e+003,-5.982056e-001
1.341156e+003,-2.197876e-001
1.342120e+003,-4.543457e-001
1.343084e+003,-2.512665e+000
1.344049e+003,-4.431061e+000
1.345013e+003,-4.071411e+000
1.345977e+003,-1.963196e+000
1.346941e+003,-2.186890e-001
1.347906e+003,4.020081e-001
1.348870e+003,4.799194e-001
1.349834e+003,4.611816e-001
1.350798e+003,1.541748e-001
1.351763e+003,-7.539063e-001
1.352727e+003,-2.089478e+000
1.353691e+003,-3.075928e+000
1.354655e+003,-3.384369e+000
1.355620e+003,-3.366730e+000
1.356584e+003,-3.330383e+000
1.357548e+003,-3.243805e+000
1.358512e+003,-3.364136e+000
1.359476e+003,-4.191406e+000
1.360441e+003,-4.465057e+000
1.361405e+003,-3.140564e+000
1.362369e+003,-1.826904e+000
1.363333e+003,-1.335236e+000
1.364298e+003,-1.322144e+000
1.365262e+003,-1.286591e+000
1.366226e+003,-1.053497e+000
1.367190e+003,-6.239929e-001
1.368155e+003,1.483154e-002
1.369119e+003,6.527710e-001
1.370083e+003,6.176453e-001
1.371047e+003,-2.609558e-001
1.372011e+003,-7.616577e-001
1.372976e+003,-8.517151e-001
1.373940e+003,-9.653931e-001
1.374904e+003,-1.602203e+000
1.375868e+003,-1.997070e+000
1.376833e+003,-5.721436e-001
1.377797e+003,2.283630e+000
1.378761e+003,3.280884e+000
1.379725e+003,5.160522e-001
1.380690e+003,-2.670197e+000
1.381654e+003,-2.337921e+000
1.382618e+003,-4.518738e-001
1.383582e+003,1.190796e-001
1.384547e+003,-5.830078e-001
1.385511e+003,-6.301575e-001
1.386475e+003,1.089478e+000
1.387439e+003,3.135925e+000
1.388403e+003,3.086365e+000
1.389368e+003,9.332886e-001
1.390332e+003,-3.220520e-001
1.391296e+003,-9.234619e-002
1.392260e+003,2.413635e-001
1.393225e+003,5.298767e-001
1.394189e+003,5.803833e-001
1.395153e+003,3.857422e-002
1.396117e+003,-6.994324e-001
1.397082e+003,-1.050385e+000
1.398046e+003,-8.187561e-001
1.399010e+003,-1.340027e-001
1.399974e+003,8.211670e-001
1.400938e+003,1.616241e+000
1.401903e+003,1.305237e+000
1.402867e+003,-1.713867e-001
1.403831e+003,-5.303955e-001
1.404795e+003,8.410339e-001
1.405760e+003,2.053558e+000
1.406724e+003,1.851624e+000
1.407688e+003,1.060913e+000
1.408652e+003,1.053192e+000
1.409617e+003,1.919464e+000
1.410581e+003,2.707977e+000
1.411545e+003,3.088379e+000
1.412509e+003,3.010315e+000
1.413474e+003,1.730621e+000
1.414438e+003,1.470337e-001
1.415402e+003,3.984070e-001
1.416366e+003,2.297821e+000
1.417330e+003,3.683289e+000
1.418295e+003,3.650604e+000
1.419259e+003,3.100037e+000
1.420223e+003,2.869263e+000
1.421187e+003,2.848755e+000
1.422152e+003,3.037598e+000
1.423116e+003,3.770813e+000
1.424080e+003,4.188660e+000
1.425044e+003,3.464111e+000
1.426009e+003,2.691742e+000
1.426973e+003,2.059235e+000
1.427937e+003,1.774200e+000
1.428901e+003,2.362701e+000
1.429865e+003,3.678467e+000
1.430830e+003,4.979431e+000
1.431794e+003,5.684143e+000
1.432758e+003,5.466614e+000
1.433722e+003,3.661255e+000
1.434687e+003,1.268311e-001
1.435651e+003,-1.774597e-001
1.436615e+003,5.487701e+000
1.437579e+003,9.215210e+000
1.438544e+003,9.071594e+000
1.439508e+003,8.209503e+000
1.440472e+003,9.312195e+000
1.441436e+003,1.125391e+001
1.442401e+003,1.105426e+001
1.443365e+003,8.188049e+000
1.444329e+003,5.657837e+000
1.445293e+003,5.833344e+000
1.446257e+003,7.368439e+000
1.447222e+003,7.536133e+000
1.448186e+003,6.654633e+000
1.449150e+003,6.774567e+000
1.450114e+003,8.421570e+000
1.451079e+003,9.405579e+000
1.452043e+003,8.266907e+000
1.453007e+003,6.300781e+000
1.453971e+003,5.066345e+000
1.454936e+003,4.472351e+000
1.455900e+003,4.027954e+000
1.456864e+003,3.597290e+000
1.457828e+003,3.757904e+000
1.458792e+003,5.764648e+000
1.459757e+003,7.447449e+000
1.460721e+003,6.475891e+000
1.461685e+003,3.969635e+000
1.462649e+003,2.124359e+000
1.463614e+003,1.665863e+000
1.464578e+003,2.558289e+000
1.465542e+003,5.031250e+000
1.466506e+003,8.108093e+000
1.467471e+003,8.825500e+000
1.468435e+003,6.707916e+000
1.469399e+003,5.575897e+000
1.470363e+003,5.863403e+000
1.471328e+003,6.469849e+000
1.472292e+003,6.925049e+000
1.473256e+003,7.502625e+000
1.474220e+003,9.353668e+000
1.475184e+003,1.154510e+001
1.476149e+003,1.190381e+001
1.477113e+003,9.853607e+000
1.478077e+003,7.062683e+000
1.479041e+003,5.240204e+000
1.480006e+003,4.481842e+000
1.480970e+003,4.907043e+000
1.481934e+003,6.800842e+000
1.482898e+003,7.954956e+000
1.483863e+003,7.889679e+000
1.484827e+003,7.770325e+000
1.485791e+003,7.556061e+000
1.486755e+003,7.971008e+000
1.487719e+003,9.967285e+000
1.488684e+003,1.293515e+001
1.489648e+003,1.555133e+001
1.490612e+003,1.744016e+001
1.491576e+003,1.845105e+001
1.492541e+003,1.807022e+001
1.493505e+003,1.720416e+001
1.494469e+003,1.798511e+001
1.495433e+003,2.000586e+001
1.496398e+003,2.206226e+001
1.497362e+003,2.431659e+001
1.498326e+003,2.651685e+001
1.499290e+003,2.840909e+001
1.500255e+003,3.019818e+001
1.501219e+003,3.206717e+001
1.502183e+003,3.398480e+001
1.503147e+003,3.578299e+001
1.504111e+003,3.719101e+001
1.505076e+003,3.972705e+001
1.506040e+003,4.489267e+001
1.507004e+003,5.103891e+001
1.507968e+003,5.647244e+001
1.508933e+003,6.156961e+001
1.509897e+003,6.693210e+001
1.510861e+003,7.297412e+001
1.511825e+003,8.046976e+001
1.512790e+003,8.990704e+001
1.513754e+003,1.006604e+002
1.514718e+003,1.122002e+002
1.515682e+003,1.243612e+002
1.516646e+003,1.350024e+002
1.517611e+003,1.433436e+002
1.518575e+003,1.521087e+002
1.519539e+003,1.636239e+002
1.520503e+003,1.745612e+002
1.521468e+003,1.841512e+002
1.522432e+003,1.914173e+002
1.523396e+003,1.947388e+002
1.524360e+003,1.943949e+002
1.525325e+003,1.926897e+002
1.526289e+003,1.911974e+002
1.527253e+003,1.892795e+002
1.528217e+003,1.858668e+002
1.529182e+003,1.811059e+002
1.530146e+003,1.734716e+002
1.531110e+003,1.611067e+002
1.532074e+003,1.489518e+002
1.533039e+003,1.386093e+002
1.534003e+003,1.263401e+002
1.534967e+003,1.091069e+002
1.535931e+003,9.073550e+001
1.536896e+003,7.483496e+001
1.537860e+003,6.217764e+001
1.538824e+003,5.228580e+001
1.539788e+003,4.474387e+001
1.540752e+003,3.892914e+001
1.541717e+003,3.419724e+001
1.542681e+003,3.051935e+001
1.543645e+003,2.704187e+001
1.544609e+003,2.372348e+001
1.545573e+003,2.127515e+001
1.546538e+003,1.978918e+001
1.547502e+003,1.854553e+001
1.548466e+003,1.762164e+001
1.549430e+003,1.695764e+001
1.550395e+003,1.590485e+001
1.551359e+003,1.490439e+001
1.552323e+003,1.596814e+001
1.553287e+003,1.958792e+001
1.554252e+003,2.228748e+001
1.555216e+003,2.076849e+001
1.556180e+003,1.687448e+001
1.557144e+003,1.491397e+001
1.558109e+003,1.504068e+001
1.559073e+003,1.470374e+001
1.560037e+003,1.329352e+001
1.561001e+003,1.207666e+001
1.561966e+003,1.168628e+001
1.562930e+003,1.189743e+001
1.563894e+003,1.317377e+001
1.564858e+003,1.451813e+001
1.565823e+003,1.294046e+001
1.566787e+003,8.133026e+000
1.567751e+003,4.929504e+000
1.568715e+003,6.368591e+000
1.569679e+003,9.771027e+000
1.570644e+003,1.236292e+001
1.571608e+003,1.390433e+001
1.572572e+003,1.379785e+001
1.573536e+003,1.206995e+001
1.574500e+003,1.127734e+001
1.575465e+003,1.271310e+001
1.576429e+003,1.446249e+001
1.577393e+003,1.510043e+001
1.578357e+003,1.481808e+001
1.579322e+003,1.352081e+001
1.580286e+003,1.148904e+001
1.581250e+003,1.151651e+001
1.582214e+003,1.504803e+001
1.583179e+003,1.852783e+001
1.584143e+003,1.915894e+001
1.585107e+003,1.828711e+001
1.586071e+003,1.816040e+001
1.587036e+003,1.850797e+001
1.588000e+003,1.747159e+001
1.588964e+003,1.437314e+001
1.589928e+003,1.239404e+001
1.590893e+003,1.468982e+001
1.591857e+003,1.832901e+001
1.592821e+003,1.836685e+001
1.593785e+003,1.561667e+001
1.594750e+003,1.493344e+001
1.595714e+003,1.719839e+001
1.596678e+003,1.904745e+001
1.597642e+003,1.877261e+001
1.598606e+003,1.826660e+001
1.599571e+003,1.927448e+001
1.600535e+003,2.092789e+001
1.601499e+003,2.209604e+001
1.602463e+003,2.270782e+001
1.603427e+003,2.322946e+001
1.604392e+003,2.388431e+001
1.605356e+003,2.436127e+001
1.606320e+003,2.452118e+001
1.607284e+003,2.422546e+001
1.608249e+003,2.257797e+001
1.609213e+003,1.949414e+001
1.610177e+003,1.823221e+001
1.611141e+003,2.024982e+001
1.612106e+003,2.182449e+001
1.613070e+003,2.069522e+001
1.614034e+003,1.883228e+001
1.614998e+003,1.681055e+001
1.615963e+003,1.539386e+001
1.616927e+003,1.619119e+001
1.617891e+003,1.905878e+001
1.618855e+003,2.159265e+001
1.619820e+003,2.230820e+001
1.620784e+003,2.184900e+001
1.621748e+003,2.127573e+001
1.622712e+003,2.078000e+001
1.623677e+003,2.009811e+001
1.624641e+003,1.916232e+001
1.625605e+003,1.853943e+001
1.626569e+003,1.796066e+001
1.627533e+003,1.757343e+001
1.628498e+003,1.781049e+001
1.629462e+003,1.829532e+001
1.630426e+003,1.866602e+001
1.631390e+003,1.895828e+001
1.632354e+003,1.956381e+001
1.633319e+003,2.044748e+001
1.634283e+003,2.051694e+001
1.635247e+003,1.870404e+001
1.636211e+003,1.632739e+001
1.637176e+003,1.613947e+001
1.638140e+003,1.801282e+001
1.639104e+003,1.883020e+001
1.640068e+003,1.821976e+001
1.641033e+003,1.730878e+001
1.641997e+003,1.561725e+001
1.642961e+003,1.493832e+001
1.643925e+003,1.698639e+001
1.644890e+003,1.966486e+001
1.645854e+003,2.108545e+001
1.646818e+003,2.125595e+001
1.647782e+003,2.048300e+001
1.648747e+003,1.899146e+001
1.649711e+003,1.810770e+001
1.650675e+003,1.916714e+001
1.651639e+003,2.129724e+001
1.652604e+003,2.265057e+001
1.653568e+003,2.315045e+001
1.654532e+003,2.283469e+001
1.655496e+003,2.154486e+001
1.656460e+003,1.999371e+001
1.657425e+003,1.798740e+001
1.658389e+003,1.644144e+001
1.659353e+003,1.593503e+001
1.660317e+003,1.599033e+001
1.661281e+003,1.635339e+001
1.662246e+003,1.673380e+001
1.663210e+003,1.661209e+001
1.664174e+003,1.587973e+001
1.665138e+003,1.485388e+001
1.666103e+003,1.349731e+001
1.667067e+003,1.230048e+001
1.668031e+003,1.292709e+001
1.668995e+003,1.516913e+001
1.669960e+003,1.497556e+001
1.670924e+003,1.122440e+001
1.671888e+003,8.835663e+000
1.672852e+003,9.952789e+000
1.673817e+003,1.171646e+001
1.674781e+003,1.267218e+001
1.675745e+003,1.299625e+001
1.676709e+003,1.271664e+001
1.677674e+003,1.197086e+001
1.678638e+003,1.096683e+001
1.679602e+003,9.787964e+000
1.680566e+003,8.984711e+000
1.681531e+003,9.252228e+000
1.682495e+003,9.985840e+000
1.683459e+003,9.823456e+000
1.684423e+003,8.900482e+000
1.685387e+003,8.820435e+000
1.686352e+003,9.939514e+000
1.687316e+003,1.049545e+001
1.688280e+003,9.641022e+000
1.689244e+003,8.624207e+000
1.690208e+003,8.137115e+000
1.691173e+003,8.059814e+000
1.692137e+003,8.505249e+000
1.693101e+003,9.424713e+000
1.694065e+003,1.058981e+001
1.695030e+003,1.185818e+001
1.695994e+003,1.199225e+001
1.696958e+003,9.773224e+000
1.697922e+003,6.756165e+000
1.698887e+003,4.456116e+000
1.699851e+003,3.036011e+000
1.700815e+003,3.353088e+000
1.701779e+003,5.334412e+000
1.702744e+003,5.978149e+000
1.703708e+003,3.973419e+000
1.704672e+003,2.716095e+000
1.705636e+003,5.301025e+000
1.706601e+003,8.913727e+000
1.707565e+003,9.620117e+000
1.708529e+003,8.175873e+000
1.709493e+003,6.184296e+000
1.710458e+003,3.629608e+000
1.711422e+003,2.178467e+000
1.712386e+003,3.421844e+000
1.713350e+003,5.145172e+000
1.714314e+003,5.476624e+000
1.715279e+003,4.926636e+000
1.716243e+003,4.537048e+000
1.717207e+003,4.281555e+000
1.718171e+003,3.266327e+000
1.719135e+003,1.279999e+000
1.720100e+003,-6.680298e-002
1.721064e+003,3.368225e-001
1.722028e+003,1.626984e+000
1.722992e+003,3.071503e+000
1.723957e+003,4.552032e+000
1.724921e+003,4.329102e+000
1.725885e+003,1.789520e+000
1.726849e+003,-3.430176e-002
1.727814e+003,2.993164e-001
1.728778e+003,6.467590e-001
1.729742e+003,-4.039612e-001
1.730706e+003,-1.513947e+000
1.731671e+003,-1.491364e+000
1.732635e+003,-7.208557e-001
1.733599e+003,4.700928e-001
1.734563e+003,1.875885e+000
1.735528e+003,2.395905e+000
1.736492e+003,1.392944e+000
1.737456e+003,-1.515808e-001
1.738420e+003,-1.193298e+000
1.739385e+003,-1.648010e+000
1.740349e+003,-6.047974e-001
1.741313e+003,2.728760e+000
1.742277e+003,4.049377e+000
1.743241e+003,1.697113e+000
1.744206e+003,3.137207e-001
1.745170e+003,9.858093e-001
1.746134e+003,2.010986e+000
1.747098e+003,2.833862e+000
1.748063e+003,3.191193e+000
1.749027e+003,2.663513e+000
1.749991e+003,1.561005e+000
1.750955e+003,4.458313e-001
1.751919e+003,-3.880920e-001
1.752884e+003,-4.257202e-001
1.753848e+003,7.951355e-001
1.754812e+003,2.203033e+000
1.755776e+003,1.721008e+000
1.756741e+003,-4.817200e-001
1.757705e+003,-3.400726e+000
1.758669e+003,-8.342987e+000
1.759633e+003,-1.043491e+001
1.760598e+003,-7.002991e+000
1.761562e+003,-3.988159e+000
1.762526e+003,-3.029449e+000
1.763490e+003,-2.936981e+000
1.764455e+003,-3.437012e+000
1.765419e+003,-3.880157e+000
1.766383e+003,-3.330597e+000
1.767347e+003,-1.933380e+000
1.768312e+003,-5.308838e-001
1.769276e+003,4.631958e-001
1.770240e+003,3.959656e-001
1.771204e+003,-1.739868e+000
1.772168e+003,-4.662323e+000
1.773133e+003,-5.839508e+000
1.774097e+003,-5.356171e+000
1.775061e+003,-3.635223e+000
1.776025e+003,-5.556335e-001
1.776990e+003,1.440063e+000
1.777954e+003,1.453949e+000
1.778918e+003,9.025879e-001
1.779882e+003,5.200806e-001
1.780846e+003,8.798218e-002
1.781811e+003,-7.013550e-001
1.782775e+003,-1.610565e+000
1.783739e+003,-1.919434e+000
1.784703e+003,-1.443024e+000
1.785668e+003,-7.819824e-001
1.786632e+003,-7.342529e-002
1.787596e+003,2.442627e-001
1.788560e+003,-3.866577e-002
1.789525e+003,-6.035156e-001
1.790489e+003,-1.685211e+000
1.791453e+003,-2.842957e+000
1.792417e+003,-2.301392e+000
1.793382e+003,1.016541e-001
1.794346e+003,1.954346e+000
1.795310e+003,1.916779e+000
1.796274e+003,1.556824e+000
1.797239e+003,2.964539e+000
1.798203e+003,5.313080e+000
1.799167e+003,5.214905e+000
1.800131e+003,1.788330e+000
1.801095e+003,-2.328491e-001
1.802060e+003,4.505615e-001
1.803024e+003,8.944397e-001
1.803988e+003,1.604919e-001
1.804952e+003,-2.624512e-001
1.805917e+003,6.085815e-001
1.806881e+003,1.882996e+000
1.807845e+003,3.133881e+000
1.808809e+003,3.951324e+000
1.809773e+003,3.361725e+000
1.810738e+003,1.544861e+000
1.811702e+003,3.522339e-001
1.812666e+003,9.110107e-001
1.813630e+003,2.167297e+000
1.814595e+003,2.812134e+000
1.815559e+003,2.792999e+000
1.816523e+003,1.892914e+000
1.817487e+003,3.836060e-002
1.818452e+003,-1.470947e+000
1.819416e+003,-2.606384e+000
1.820380e+003,-2.832458e+000
1.821344e+003,-1.053955e+000
1.822309e+003,1.242065e-002
1.823273e+003,-2.171265e+000
1.824237e+003,-4.863983e+000
1.825201e+003,-5.262726e+000
1.826166e+003,-3.970886e+000
1.827130e+003,-2.694214e+000
1.828094e+003,-1.806641e+000
1.829058e+003,-1.258270e+000
1.830022e+003,-8.368530e-001
1.830987e+003,-9.169006e-001
1.831951e+003,-2.565613e+000
1.832915e+003,-4.351227e+000
1.833879e+003,-3.563049e+000
1.834844e+003,-1.199371e+000
1.835808e+003,-9.138184e-001
1.836772e+003,-2.964386e+000
1.837736e+003,-3.873444e+000
1.838700e+003,-2.151123e+000
1.839665e+003,-1.952209e-001
1.840629e+003,-9.780884e-002
1.841593e+003,-1.243042e+000
1.842557e+003,-2.596375e+000
1.843522e+003,-4.150299e+000
1.844486e+003,-4.768402e+000
1.845450e+003,-3.872101e+000
1.846414e+003,-2.757782e+000
1.847379e+003,-1.298950e+000
1.848343e+003,-2.762451e-001
1.849307e+003,2.236328e-001
1.850271e+003,2.309265e-001
1.851236e+003,-7.434998e-001
1.852200e+003,-1.722626e+000
1.853164e+003,-1.259338e+000
1.854128e+003,1.866760e-001
1.855093e+003,1.056122e+000
1.856057e+003,8.526001e-001
1.857021e+003,-6.164551e-003
1.857985e+003,-1.343964e+000
1.858949e+003,-2.780090e+000
1.859914e+003,-3.728302e+000
1.860878e+003,-4.118744e+000
1.861842e+003,-3.612396e+000
1.862806e+003,-2.232117e+000
1.863771e+003,-1.098145e+000
1.864735e+003,-3.924561e-001
1.865699e+003,-3.125916e-001
1.866663e+003,-1.309052e+000
1.867627e+003,-1.987335e+000
1.868592e+003,-8.981934e-001
1.869556e+003,9.217529e-001
1.870520e+003,2.091827e+000
1.871484e+003,2.510773e+000
1.872449e+003,1.178619e+000
1.873413e+003,-2.553528e+000
1.874377e+003,-4.311005e+000
1.875341e+003,-1.229523e+000
1.876306e+003,1.324982e+000
1.877270e+003,-5.756531e-001
1.878234e+003,-3.473541e+000
1.879198e+003,-3.768280e+000
1.880163e+003,-2.319885e+000
1.881127e+003,-7.901917e-001
1.882091e+003,2.372437e-001
1.883055e+003,4.263306e-002
1.884020e+003,-1.490295e+000
1.884984e+003,-2.741547e+000
1.885948e+003,-2.215759e+000
1.886912e+003,-6.528931e-001
1.887876e+003,5.561829e-001
1.888841e+003,1.433014e+000
1.889805e+003,2.008667e+000
1.890769e+003,2.309082e+000
1.891733e+003,2.055176e+000
1.892698e+003,5.675049e-001
1.893662e+003,-1.153259e-001
1.894626e+003,1.526520e+000
1.895590e+003,3.188049e+000
1.896554e+003,3.349152e+000
1.897519e+003,2.765411e+000
1.898483e+003,1.887726e+000
1.899447e+003,8.298645e-001
1.900411e+003,2.290344e-001
1.901376e+003,2.528992e-001
1.902340e+003,5.499878e-001
1.903304e+003,1.383759e+000
1.904268e+003,1.779388e+000
1.905233e+003,7.697449e-001
1.906197e+003,-5.023193e-001
1.907161e+003,-1.125946e+000
1.908125e+003,-9.482117e-001
1.909090e+003,5.156555e-001
1.910054e+003,2.714722e+000
1.911018e+003,3.996063e+000
1.911982e+003,3.919037e+000
1.912947e+003,3.366119e+000
1.913911e+003,2.944397e+000
1.914875e+003,2.686188e+000
1.915839e+003,2.578735e+000
1.916803e+003,2.567810e+000
1.917768e+003,3.072052e+000
1.918732e+003,4.398102e+000
1.919696e+003,4.779083e+000
1.920660e+003,3.727417e+000
1.921625e+003,3.346008e+000
1.922589e+003,4.542633e+000
1.923553e+003,5.540161e+000
1.924517e+003,5.493256e+000
1.925481e+003,4.795837e+000
1.926446e+003,2.796722e+000
1.927410e+003,7.862244e-001
1.928374e+003,2.119141e+000
1.929338e+003,6.468140e+000
1.930303e+003,7.979614e+000
1.931267e+003,4.394806e+000
1.932231e+003,1.214844e+000
1.933195e+003,9.602356e-001
1.934160e+003,1.558075e+000
1.935124e+003,1.530884e+000
1.936088e+003,1.396454e+000
1.937052e+003,2.398590e+000
1.938017e+003,3.885773e+000
1.938981e+003,3.998840e+000
1.939945e+003,2.677032e+000
1.940909e+003,1.375763e+000
1.941874e+003,7.657471e-001
1.942838e+003,5.958557e-001
1.943802e+003,7.756348e-001
1.944766e+003,1.121918e+000
1.945730e+003,8.873901e-001
1.946695e+003,1.173096e-001
1.947659e+003,-6.369019e-002
1.948623e+003,3.061829e-001
1.949587e+003,1.551331e+000
1.950552e+003,4.304352e+000
1.951516e+003,5.671448e+000
1.952480e+003,3.989899e+000
1.953444e+003,2.192413e+000
1.954408e+003,2.271118e+000
1.955373e+003,3.231812e+000
1.956337e+003,4.442810e+000
1.957301e+003,5.619385e+000
1.958265e+003,4.694366e+000
1.959230e+003,1.155914e+000
1.960194e+003,-2.185059e-001
1.961158e+003,3.023438e+000
1.962122e+003,5.253723e+000
1.963087e+003,4.132843e+000
1.964051e+003,2.808594e+000
1.965015e+003,3.338593e+000
1.965979e+003,4.572723e+000
1.966944e+003,5.044220e+000
1.967908e+003,5.076538e+000
1.968872e+003,6.224487e+000
1.969836e+003,8.096008e+000
1.970801e+003,7.845154e+000
1.971765e+003,4.457550e+000
1.972729e+003,1.227081e+000
1.973693e+003,9.776917e-001
1.974657e+003,2.200684e+000
1.975622e+003,2.742401e+000
1.976586e+003,2.844025e+000
1.977550e+003,3.386017e+000
1.978514e+003,4.328979e+000
1.979479e+003,5.062256e+000
1.980443e+003,5.468323e+000
1.981407e+003,5.741302e+000
1.982371e+003,5.998169e+000
1.983335e+003,6.455505e+000
1.984300e+003,7.277435e+000
1.985264e+003,7.844849e+000
1.986228e+003,7.193481e+000
1.987192e+003,5.649170e+000
1.988157e+003,4.955566e+000
1.989121e+003,5.365723e+000
1.990085e+003,5.620880e+000
1.991049e+003,5.682404e+000
1.992014e+003,5.832031e+000
1.992978e+003,6.028381e+000
1.993942e+003,6.260559e+000
1.994906e+003,6.076080e+000
1.995871e+003,6.388489e+000
1.996835e+003,9.243958e+000
1.997799e+003,1.229434e+001
1.998763e+003,1.102231e+001
1.999728e+003,6.461639e+000
