5.003444e+002,1.586578e+002
5.013087e+002,1.590170e+002
5.022729e+002,1.572545e+002
5.032371e+002,1.544880e+002
5.042014e+002,1.526621e+002
5.051656e+002,1.517380e+002
5.061298e+002,1.508385e+002
5.070941e+002,1.490604e+002
5.080583e+002,1.460203e+002
5.090225e+002,1.422440e+002
5.099868e+002,1.369518e+002
5.109510e+002,1.319203e+002
5.119152e+002,1.277752e+002
5.128795e+002,1.245507e+002
5.138437e+002,1.231114e+002
5.148079e+002,1.264344e+002
5.157722e+002,1.294133e+002
5.167364e+002,1.292103e+002
5.177006e+002,1.257032e+002
5.186649e+002,1.214059e+002
5.196291e+002,1.201325e+002
5.205933e+002,1.204163e+002
5.215576e+002,1.195624e+002
5.225218e+002,1.170013e+002
5.234860e+002,1.136624e+002
5.244503e+002,1.118320e+002
5.254145e+002,1.129144e+002
5.263787e+002,1.128932e+002
5.273430e+002,1.109824e+002
5.283072e+002,1.085077e+002
5.292714e+002,1.072235e+002
5.302357e+002,1.073428e+002
5.311999e+002,1.063745e+002
5.321641e+002,1.049107e+002
5.331284e+002,1.031263e+002
5.340926e+002,1.006143e+002
5.350568e+002,9.686823e+001
5.360211e+002,9.280530e+001
5.369853e+002,8.963916e+001
5.379495e+002,8.745697e+001
5.389138e+002,8.641235e+001
5.398780e+002,8.636090e+001
5.408422e+002,8.684332e+001
5.418065e+002,8.703650e+001
5.427707e+002,8.691077e+001
5.437349e+002,8.592468e+001
5.446992e+002,8.356598e+001
5.456634e+002,8.029895e+001
5.466276e+002,7.798401e+001
5.475919e+002,7.900287e+001
5.485561e+002,7.833484e+001
5.495203e+002,7.421411e+001
5.504846e+002,6.840710e+001
5.514488e+002,6.371527e+001
5.524130e+002,6.183203e+001
5.533773e+002,6.039240e+001
5.543415e+002,5.740057e+001
5.553057e+002,5.440710e+001
5.562700e+002,5.335736e+001
5.572342e+002,5.533557e+001
5.581984e+002,5.830225e+001
5.591627e+002,5.728729e+001
5.601269e+002,5.405231e+001
5.610911e+002,5.138739e+001
5.620554e+002,5.058496e+001
5.630196e+002,5.121515e+001
5.639838e+002,5.125385e+001
5.649481e+002,5.075092e+001
5.659123e+002,4.967395e+001
5.668765e+002,4.825427e+001
5.678408e+002,4.695367e+001
5.688050e+002,4.632904e+001
5.697692e+002,4.665039e+001
5.707335e+002,4.573456e+001
5.716977e+002,4.219836e+001
5.726619e+002,3.777551e+001
5.736262e+002,3.482983e+001
5.745904e+002,3.518677e+001
5.755546e+002,3.719794e+001
5.765189e+002,3.781140e+001
5.774831e+002,3.714807e+001
5.784473e+002,3.606390e+001
5.794116e+002,3.535638e+001
5.803758e+002,3.524017e+001
5.813400e+002,3.393488e+001
5.823043e+002,3.031842e+001
5.832685e+002,2.676813e+001
5.842327e+002,2.456055e+001
5.851970e+002,2.386267e+001
5.861612e+002,2.360864e+001
5.871254e+002,2.301031e+001
5.880897e+002,2.294208e+001
5.890539e+002,2.420575e+001
5.900181e+002,2.570660e+001
5.909824e+002,2.558722e+001
5.919466e+002,2.216364e+001
5.929108e+002,1.850128e+001
5.938751e+002,1.760193e+001
5.948393e+002,1.862061e+001
5.958035e+002,2.066797e+001
5.967678e+002,2.313049e+001
5.977320e+002,2.597394e+001
5.986962e+002,2.719196e+001
5.996605e+002,2.634222e+001
6.006247e+002,2.486884e+001
6.015889e+002,2.367047e+001
6.025532e+002,2.270776e+001
6.035174e+002,2.048859e+001
6.044816e+002,1.283966e+001
6.054459e+002,8.868103e+000
6.064101e+002,1.250647e+001
6.073743e+002,2.027557e+001
6.083386e+002,2.608838e+001
6.093028e+002,2.689545e+001
6.102670e+002,2.489520e+001
6.112313e+002,2.058502e+001
6.121955e+002,1.564984e+001
6.131597e+002,1.214142e+001
6.141240e+002,1.145813e+001
6.150882e+002,1.309827e+001
6.160524e+002,1.634338e+001
6.170167e+002,2.111548e+001
6.179809e+002,2.430798e+001
6.189451e+002,2.386060e+001
6.199094e+002,2.004852e+001
6.208736e+002,1.687177e+001
6.218378e+002,1.463507e+001
6.228021e+002,1.394043e+001
6.237663e+002,1.665302e+001
6.247305e+002,2.065839e+001
6.256948e+002,2.204541e+001
6.266590e+002,1.760040e+001
6.276232e+002,1.306018e+001
6.285875e+002,1.332190e+001
6.295517e+002,1.542627e+001
6.305159e+002,1.568811e+001
6.314802e+002,1.209973e+001
6.324444e+002,6.676025e+000
6.334086e+002,6.796387e+000
6.343729e+002,1.084564e+001
6.353371e+002,1.326031e+001
6.363013e+002,1.170300e+001
6.372656e+002,7.264771e+000
6.382298e+002,4.235535e+000
6.391940e+002,2.726074e+000
6.401583e+002,2.574036e+000
6.411225e+002,6.924622e+000
6.420867e+002,1.206885e+001
6.430510e+002,1.229749e+001
6.440152e+002,3.720032e+000
6.449794e+002,-3.285950e+000
6.459437e+002,-1.832092e+000
6.469079e+002,2.017944e+000
6.478721e+002,4.008179e+000
6.488364e+002,2.651794e+000
6.498006e+002,-2.448730e-001
6.507648e+002,-2.020813e+000
6.517291e+002,-3.202209e+000
6.526933e+002,-4.712341e+000
6.536575e+002,-6.786804e+000
6.546218e+002,-9.076111e+000
6.555860e+002,-1.097668e+001
6.565502e+002,-1.303699e+001
6.575145e+002,-1.322937e+001
6.584787e+002,-1.046783e+001
6.594429e+002,-6.912964e+000
6.604072e+002,-3.882935e+000
6.613714e+002,-1.447876e+000
6.623356e+002,-2.896729e-001
6.632999e+002,-1.820129e+000
6.642641e+002,-4.348450e+000
6.652283e+002,-7.679077e+000
6.661926e+002,-1.087402e+001
6.671568e+002,-1.220947e+001
6.681210e+002,-9.132324e+000
6.690853e+002,-3.617371e+000
6.700495e+002,-4.882202e-001
6.710137e+002,2.479248e-001
6.719780e+002,-1.255493e-001
6.729422e+002,-4.186401e-001
6.739064e+002,-9.335327e-001
6.748707e+002,-4.545898e-001
6.758349e+002,1.917419e+000
6.767991e+002,3.753845e+000
6.777634e+002,4.298157e+000
6.787276e+002,3.967712e+000
6.796918e+002,3.786804e+000
6.806561e+002,2.509827e+000
6.816203e+002,2.478943e+000
6.825845e+002,6.401001e+000
6.835488e+002,1.185736e+001
6.845130e+002,1.486853e+001
6.854772e+002,1.238898e+001
6.864415e+002,7.120911e+000
6.874057e+002,3.944336e+000
6.883699e+002,2.053284e+000
6.893342e+002,1.073853e+000
6.902984e+002,1.034851e+000
6.912626e+002,1.895813e+000
6.922269e+002,2.360413e+000
6.931911e+002,3.237854e+000
6.941553e+002,3.939514e+000
6.951196e+002,3.561890e+000
6.960838e+002,2.432373e+000
6.970480e+002,1.367004e+000
6.980123e+002,6.191406e-001
6.989765e+002,4.528198e-001
6.999407e+002,1.080383e+000
7.009050e+002,1.914185e+000
7.018692e+002,2.464172e+000
7.028334e+002,2.515381e+000
7.037977e+002,2.253052e+000
7.047619e+002,2.432068e+000
7.057261e+002,2.937744e+000
7.066904e+002,2.553345e+000
7.076546e+002,1.057251e+000
7.086188e+002,-6.818848e-001
7.095831e+002,-1.286377e+000
7.105473e+002,-6.225586e-001
7.115115e+002,1.087036e-001
7.124758e+002,9.262085e-001
7.134400e+002,1.484436e+000
7.144042e+002,1.657104e+000
7.153685e+002,1.631226e+000
7.163327e+002,1.918457e+000
7.172969e+002,3.054504e+000
7.182612e+002,4.409973e+000
7.192254e+002,5.566406e+000
7.201896e+002,6.497864e+000
7.211539e+002,7.565918e+000
7.221181e+002,9.271301e+000
7.230823e+002,1.078064e+001
7.240466e+002,9.282227e+000
7.250108e+002,5.964417e+000
7.259750e+002,4.484924e+000
7.269393e+002,7.061462e+000
7.279035e+002,1.229871e+001
7.288677e+002,1.260193e+001
7.298320e+002,3.256165e+000
7.307962e+002,-3.410950e+000
7.317604e+002,-6.121094e+000
7.327247e+002,-5.814575e+000
7.336889e+002,-3.727783e+000
7.346531e+002,-2.030029e-001
7.356174e+002,2.319702e+000
7.365816e+002,3.883545e+000
7.375458e+002,4.764282e+000
7.385101e+002,4.399902e+000
7.394743e+002,3.059570e+000
7.404385e+002,2.199097e+000
7.414028e+002,4.257507e+000
7.423670e+002,7.586121e+000
7.433312e+002,9.020569e+000
7.442955e+002,9.051147e+000
7.452597e+002,8.156311e+000
7.462239e+002,5.904968e+000
7.471882e+002,9.279175e-001
7.481524e+002,-5.169678e-002
7.491166e+002,4.905945e+000
7.500809e+002,9.511658e+000
7.510451e+002,1.177972e+001
7.520093e+002,1.180249e+001
7.529736e+002,1.055438e+001
7.539378e+002,8.023376e+000
7.549020e+002,6.264587e+000
7.558663e+002,6.409607e+000
7.568306e+002,7.884827e+000
7.577948e+002,1.011139e+001
7.587590e+002,1.248193e+001
7.597233e+002,1.420703e+001
7.606875e+002,1.300684e+001
7.616517e+002,9.687866e+000
7.626160e+002,9.045105e+000
7.635802e+002,1.374548e+001
7.645444e+002,2.050751e+001
7.655087e+002,2.177808e+001
7.664729e+002,1.318042e+001
7.674371e+002,8.335938e+000
7.684014e+002,9.767639e+000
7.693656e+002,1.280164e+001
7.703298e+002,1.490680e+001
7.712941e+002,1.569482e+001
7.722583e+002,1.600525e+001
7.732225e+002,1.580188e+001
7.741868e+002,1.593256e+001
7.751510e+002,1.736835e+001
7.761152e+002,1.975159e+001
7.770795e+002,2.213635e+001
7.780437e+002,2.362622e+001
7.790079e+002,2.415973e+001
7.799722e+002,2.421948e+001
7.809364e+002,2.380481e+001
7.819006e+002,2.321240e+001
7.828649e+002,2.283667e+001
7.838291e+002,2.285675e+001
7.847933e+002,2.302356e+001
7.857576e+002,2.235162e+001
7.867218e+002,2.216626e+001
7.876860e+002,2.456964e+001
7.886503e+002,2.707068e+001
7.896145e+002,2.694934e+001
7.905787e+002,2.372217e+001
7.915430e+002,2.061554e+001
7.925072e+002,2.132306e+001
7.934714e+002,2.314941e+001
7.944357e+002,2.371539e+001
7.953999e+002,2.323450e+001
7.963641e+002,2.296960e+001
7.973284e+002,2.418762e+001
7.982926e+002,2.701752e+001
7.992568e+002,2.898846e+001
8.002211e+002,2.915466e+001
8.011853e+002,2.827191e+001
8.021495e+002,2.721960e+001
8.031138e+002,2.664496e+001
8.040780e+002,2.670197e+001
8.050422e+002,2.695081e+001
8.060065e+002,2.718066e+001
8.069707e+002,2.680463e+001
8.079349e+002,2.611310e+001
8.088992e+002,2.564777e+001
8.098634e+002,2.576654e+001
8.108276e+002,2.636469e+001
8.117919e+002,2.708423e+001
8.127561e+002,2.702332e+001
8.137203e+002,2.560828e+001
8.146846e+002,2.332208e+001
8.156488e+002,2.167755e+001
8.166130e+002,2.232617e+001
8.175773e+002,2.568304e+001
8.185415e+002,2.802625e+001
8.195057e+002,2.787402e+001
8.204700e+002,2.783905e+001
8.214342e+002,2.925555e+001
8.223984e+002,3.147290e+001
8.233627e+002,3.255011e+001
8.243269e+002,3.124695e+001
8.252911e+002,3.032220e+001
8.262554e+002,3.181244e+001
8.272196e+002,3.404541e+001
8.281838e+002,3.504199e+001
8.291481e+002,3.420453e+001
8.301123e+002,3.284192e+001
8.310765e+002,3.349854e+001
8.320408e+002,3.575262e+001
8.330050e+002,3.608899e+001
8.339692e+002,3.409265e+001
8.349335e+002,3.131207e+001
8.358977e+002,2.927692e+001
8.368619e+002,2.824139e+001
8.378262e+002,2.807416e+001
8.387904e+002,2.882404e+001
8.397546e+002,2.960187e+001
8.407189e+002,3.030200e+001
8.416831e+002,3.095197e+001
8.426473e+002,3.149518e+001
8.436116e+002,3.181488e+001
8.445758e+002,3.279211e+001
8.455400e+002,3.559753e+001
8.465043e+002,3.842816e+001
8.474685e+002,3.970984e+001
8.484327e+002,3.944550e+001
8.493970e+002,3.879248e+001
8.503612e+002,3.907477e+001
8.513254e+002,4.021344e+001
8.522897e+002,4.160944e+001
8.532539e+002,4.282941e+001
8.542181e+002,4.418427e+001
8.551824e+002,4.676508e+001
8.561466e+002,5.079639e+001
8.571108e+002,5.413037e+001
8.580751e+002,5.317883e+001
8.590393e+002,5.340411e+001
8.600035e+002,5.907715e+001
8.609678e+002,6.632684e+001
8.619320e+002,6.984570e+001
8.628962e+002,6.773267e+001
8.638605e+002,6.465637e+001
8.648247e+002,6.889825e+001
8.657889e+002,7.705743e+001
8.667532e+002,8.216772e+001
8.677174e+002,8.330603e+001
8.686816e+002,8.225519e+001
8.696459e+002,8.097797e+001
8.706101e+002,7.969165e+001
8.715743e+002,7.858020e+001
8.725386e+002,7.659753e+001
8.735028e+002,7.614313e+001
8.744670e+002,7.795172e+001
8.754313e+002,8.099298e+001
8.763955e+002,8.368585e+001
8.773597e+002,8.554169e+001
8.783240e+002,8.798523e+001
8.792882e+002,9.263953e+001
8.802524e+002,9.748578e+001
8.812167e+002,1.008762e+002
8.821809e+002,1.024836e+002
8.831451e+002,1.028637e+002
8.841094e+002,1.026607e+002
8.850736e+002,1.023961e+002
8.860378e+002,1.049880e+002
8.870021e+002,1.112516e+002
8.879663e+002,1.162075e+002
8.889305e+002,1.154786e+002
8.898948e+002,1.104135e+002
8.908590e+002,1.089926e+002
8.918232e+002,1.149402e+002
8.927875e+002,1.202213e+002
8.937517e+002,1.225577e+002
8.947159e+002,1.240679e+002
8.956802e+002,1.267711e+002
8.966444e+002,1.305372e+002
8.976086e+002,1.325809e+002
8.985729e+002,1.289925e+002
8.995371e+002,1.241086e+002
9.005013e+002,1.251659e+002
9.014656e+002,1.315828e+002
9.024298e+002,1.389532e+002
9.033940e+002,1.438495e+002
9.043583e+002,1.459331e+002
9.053225e+002,1.456588e+002
9.062867e+002,1.395700e+002
9.072510e+002,1.348519e+002
9.082152e+002,1.327034e+002
9.091794e+002,1.324155e+002
9.101437e+002,1.334495e+002
9.111079e+002,1.356895e+002
9.120721e+002,1.380827e+002
9.130364e+002,1.400156e+002
9.140006e+002,1.410072e+002
9.149648e+002,1.408204e+002
9.159291e+002,1.401265e+002
9.168933e+002,1.397277e+002
9.178575e+002,1.399612e+002
9.188218e+002,1.403685e+002
9.197860e+002,1.403060e+002
9.207502e+002,1.396040e+002
9.217145e+002,1.377433e+002
9.226787e+002,1.344860e+002
9.236429e+002,1.312938e+002
9.246072e+002,1.298407e+002
9.255714e+002,1.300971e+002
9.265356e+002,1.302819e+002
9.274999e+002,1.310020e+002
9.284641e+002,1.302151e+002
9.294283e+002,1.261306e+002
9.303926e+002,1.206226e+002
9.313568e+002,1.170240e+002
9.323210e+002,1.171180e+002
9.332853e+002,1.182817e+002
9.342495e+002,1.152652e+002
9.352137e+002,1.105730e+002
9.361780e+002,1.093477e+002
9.371422e+002,1.129528e+002
9.381064e+002,1.175033e+002
9.390707e+002,1.170512e+002
9.400349e+002,1.099813e+002
9.409991e+002,1.054492e+002
9.419634e+002,1.041208e+002
9.429276e+002,1.038095e+002
9.438918e+002,1.051847e+002
9.448561e+002,1.070216e+002
9.458203e+002,1.069770e+002
9.467845e+002,1.040712e+002
9.477488e+002,1.017770e+002
9.487130e+002,1.033066e+002
9.496772e+002,1.058798e+002
9.506415e+002,1.079236e+002
9.516057e+002,1.089102e+002
9.525699e+002,1.084183e+002
9.535342e+002,1.059344e+002
9.544984e+002,1.016073e+002
9.554626e+002,9.832172e+001
9.564269e+002,9.670874e+001
9.573911e+002,9.593304e+001
9.583553e+002,9.570032e+001
9.593196e+002,9.593695e+001
9.602838e+002,9.664453e+001
9.612480e+002,9.775775e+001
9.622123e+002,9.894183e+001
9.631765e+002,1.008418e+002
9.641407e+002,1.024005e+002
9.651050e+002,1.035916e+002
9.660692e+002,1.036342e+002
9.670334e+002,1.009415e+002
9.679977e+002,9.468793e+001
9.689619e+002,8.782019e+001
9.699261e+002,8.623163e+001
9.708904e+002,8.818549e+001
9.718546e+002,9.071362e+001
9.728188e+002,9.316779e+001
9.737831e+002,9.519281e+001
9.747473e+002,9.617902e+001
9.757115e+002,9.579834e+001
9.766758e+002,9.709650e+001
9.776400e+002,1.029393e+002
9.786042e+002,1.077280e+002
9.795685e+002,1.105696e+002
9.805327e+002,1.107618e+002
9.814969e+002,1.069672e+002
9.824612e+002,9.899561e+001
9.834254e+002,9.138019e+001
9.843896e+002,8.872626e+001
9.853539e+002,8.795862e+001
9.863181e+002,8.583624e+001
9.872823e+002,8.215051e+001
9.882466e+002,7.872119e+001
9.892108e+002,7.757849e+001
9.901750e+002,7.892133e+001
9.911393e+002,7.966058e+001
9.921035e+002,7.748767e+001
9.930677e+002,7.591687e+001
9.940320e+002,7.553290e+001
9.949962e+002,7.634833e+001
9.959604e+002,7.840546e+001
9.969247e+002,8.176819e+001
9.978889e+002,8.644873e+001
9.988531e+002,9.396436e+001
9.998174e+002,9.941351e+001
1.000782e+003,9.914954e+001
1.001746e+003,9.609528e+001
1.002710e+003,9.422375e+001
1.003674e+003,9.523505e+001
1.004639e+003,9.787750e+001
1.005603e+003,1.001829e+002
1.006567e+003,1.019361e+002
1.007531e+003,1.013833e+002
1.008495e+003,9.727289e+001
1.009460e+003,9.361139e+001
1.010424e+003,9.388666e+001
1.011388e+003,9.691168e+001
1.012352e+003,9.720081e+001
1.013317e+003,9.235992e+001
1.014281e+003,8.767920e+001
1.015245e+003,8.506927e+001
1.016209e+003,8.257739e+001
1.017174e+003,7.872925e+001
1.018138e+003,7.368872e+001
1.019102e+003,6.874554e+001
1.020066e+003,6.504602e+001
1.021031e+003,6.250787e+001
1.021995e+003,6.058466e+001
1.022959e+003,5.864447e+001
1.023923e+003,5.493903e+001
1.024887e+003,4.801111e+001
1.025852e+003,4.040320e+001
1.026816e+003,3.665497e+001
1.027780e+003,3.807147e+001
1.028744e+003,3.884387e+001
1.029709e+003,3.881445e+001
1.030673e+003,3.759143e+001
1.031637e+003,3.359027e+001
1.032601e+003,2.863446e+001
1.033566e+003,2.534076e+001
1.034530e+003,2.473602e+001
1.035494e+003,2.563959e+001
1.036458e+003,2.681018e+001
1.037422e+003,2.834833e+001
1.038387e+003,3.112616e+001
1.039351e+003,3.476550e+001
1.040315e+003,3.696820e+001
1.041279e+003,3.584625e+001
1.042244e+003,3.262622e+001
1.043208e+003,3.276965e+001
1.044172e+003,4.012921e+001
1.045136e+003,4.318237e+001
1.046101e+003,3.917206e+001
1.047065e+003,3.406122e+001
1.048029e+003,3.083923e+001
1.048993e+003,2.967535e+001
1.049958e+003,3.034271e+001
1.050922e+003,3.377209e+001
1.051886e+003,3.709229e+001
1.052850e+003,3.641058e+001
1.053814e+003,3.416174e+001
1.054779e+003,3.351141e+001
1.055743e+003,3.503168e+001
1.056707e+003,3.711530e+001
1.057671e+003,3.778601e+001
1.058636e+003,3.694342e+001
1.059600e+003,3.791772e+001
1.060564e+003,4.496948e+001
1.061528e+003,4.871045e+001
1.062493e+003,4.432794e+001
1.063457e+003,3.753149e+001
1.064421e+003,3.539825e+001
1.065385e+003,3.880591e+001
1.066349e+003,4.160852e+001
1.067314e+003,3.961823e+001
1.068278e+003,3.747614e+001
1.069242e+003,3.931494e+001
1.070206e+003,4.318329e+001
1.071171e+003,4.540985e+001
1.072135e+003,4.442767e+001
1.073099e+003,4.213953e+001
1.074063e+003,4.215881e+001
1.075028e+003,4.497888e+001
1.075992e+003,4.600073e+001
1.076956e+003,4.423505e+001
1.077920e+003,4.201526e+001
1.078885e+003,4.017371e+001
1.079849e+003,3.901996e+001
1.080813e+003,3.889447e+001
1.081777e+003,3.999585e+001
1.082741e+003,4.166492e+001
1.083706e+003,4.426868e+001
1.084670e+003,4.583722e+001
1.085634e+003,4.474402e+001
1.086598e+003,4.181964e+001
1.087563e+003,3.888818e+001
1.088527e+003,3.715784e+001
1.089491e+003,3.617108e+001
1.090455e+003,3.417401e+001
1.091420e+003,3.067175e+001
1.092384e+003,3.021759e+001
1.093348e+003,3.422626e+001
1.094312e+003,3.799304e+001
1.095276e+003,3.948529e+001
1.096241e+003,3.913983e+001
1.097205e+003,3.692438e+001
1.098169e+003,3.115308e+001
1.099133e+003,2.742719e+001
1.100098e+003,2.980139e+001
1.101062e+003,3.325848e+001
1.102026e+003,3.466370e+001
1.102990e+003,3.453162e+001
1.103955e+003,3.509613e+001
1.104919e+003,3.761365e+001
1.105883e+003,4.061005e+001
1.106847e+003,4.089197e+001
1.107812e+003,3.835876e+001
1.108776e+003,3.748297e+001
1.109740e+003,3.916272e+001
1.110704e+003,4.103967e+001
1.111668e+003,4.157300e+001
1.112633e+003,4.137811e+001
1.113597e+003,4.211652e+001
1.114561e+003,4.429700e+001
1.115525e+003,4.568604e+001
1.116490e+003,4.537604e+001
1.117454e+003,4.430975e+001
1.118418e+003,4.289771e+001
1.119382e+003,4.174530e+001
1.120347e+003,4.127496e+001
1.121311e+003,4.141473e+001
1.122275e+003,4.187787e+001
1.123239e+003,4.356970e+001
1.124203e+003,4.680347e+001
1.125168e+003,4.872406e+001
1.126132e+003,4.876477e+001
1.127096e+003,4.877466e+001
1.128060e+003,4.993677e+001
1.129025e+003,5.191571e+001
1.129989e+003,5.375134e+001
1.130953e+003,5.488306e+001
1.131917e+003,5.663525e+001
1.132882e+003,6.005609e+001
1.133846e+003,6.377521e+001
1.134810e+003,6.700928e+001
1.135774e+003,6.989142e+001
1.136739e+003,7.273749e+001
1.137703e+003,7.571320e+001
1.138667e+003,7.917310e+001
1.139631e+003,8.396661e+001
1.140595e+003,8.994934e+001
1.141560e+003,9.585168e+001
1.142524e+003,1.012380e+002
1.143488e+003,1.091489e+002
1.144452e+003,1.225978e+002
1.145417e+003,1.401011e+002
1.146381e+003,1.559608e+002
1.147345e+003,1.686059e+002
1.148309e+003,1.830975e+002
1.149274e+003,2.018828e+002
1.150238e+003,2.218561e+002
1.151202e+003,2.428431e+002
1.152166e+003,2.639146e+002
1.153130e+003,2.842682e+002
1.154095e+003,3.029230e+002
1.155059e+003,3.177046e+002
1.156023e+003,3.266941e+002
1.156987e+003,3.291905e+002
1.157952e+003,3.232198e+002
1.158916e+003,3.087170e+002
1.159880e+003,2.912849e+002
1.160844e+003,2.715195e+002
1.161809e+003,2.500287e+002
1.162773e+003,2.295656e+002
1.163737e+003,2.103450e+002
1.164701e+003,1.913885e+002
1.165666e+003,1.716077e+002
1.166630e+003,1.535852e+002
1.167594e+003,1.376935e+002
1.168558e+003,1.243116e+002
1.169522e+003,1.142604e+002
1.170487e+003,1.075274e+002
1.171451e+003,1.029968e+002
1.172415e+003,9.947040e+001
1.173379e+003,9.674817e+001
1.174344e+003,9.445074e+001
1.175308e+003,9.274298e+001
1.176272e+003,9.096173e+001
1.177236e+003,8.879370e+001
1.178201e+003,8.678912e+001
1.179165e+003,8.550458e+001
1.180129e+003,8.466254e+001
1.181093e+003,8.336719e+001
1.182057e+003,8.156567e+001
1.183022e+003,7.949548e+001
1.183986e+003,7.553516e+001
1.184950e+003,7.260895e+001
1.185914e+003,7.495721e+001
1.186879e+003,8.175806e+001
1.187843e+003,8.768567e+001
1.188807e+003,8.826062e+001
1.189771e+003,8.504602e+001
1.190736e+003,8.306183e+001
1.191700e+003,8.241315e+001
1.192664e+003,8.161371e+001
1.193628e+003,8.073285e+001
1.194593e+003,7.993488e+001
1.195557e+003,7.983472e+001
1.196521e+003,7.980554e+001
1.197485e+003,7.749634e+001
1.198449e+003,7.181213e+001
1.199414e+003,6.646759e+001
1.200378e+003,6.336194e+001
1.201342e+003,6.100574e+001
1.202306e+003,5.848444e+001
1.203271e+003,5.574597e+001
1.204235e+003,5.290875e+001
1.205199e+003,5.020258e+001
1.206163e+003,4.825922e+001
1.207128e+003,4.817163e+001
1.208092e+003,5.011920e+001
1.209056e+003,5.075555e+001
1.210020e+003,5.051929e+001
1.210984e+003,4.856744e+001
1.211949e+003,4.414716e+001
1.212913e+003,3.801654e+001
1.213877e+003,3.049786e+001
1.214841e+003,2.188080e+001
1.215806e+003,1.537158e+001
1.216770e+003,1.308612e+001
1.217734e+003,1.168903e+001
1.218698e+003,8.023682e+000
1.219663e+003,3.865662e+000
1.220627e+003,2.082825e+000
1.221591e+003,2.682678e+000
1.222555e+003,2.674011e+000
1.223520e+003,-7.205811e-001
1.224484e+003,-6.332458e+000
1.225448e+003,-9.286011e+000
1.226412e+003,-8.164063e+000
1.227376e+003,-7.511597e+000
1.228341e+003,-8.254578e+000
1.229305e+003,-8.676636e+000
1.230269e+003,-7.277954e+000
1.231233e+003,-5.099182e+000
1.232198e+003,-4.343933e+000
1.233162e+003,-5.482788e+000
1.234126e+003,-6.449829e+000
1.235090e+003,-5.822693e+000
1.236055e+003,-4.752991e+000
1.237019e+003,-4.370483e+000
1.237983e+003,-4.644653e+000
1.238947e+003,-5.056519e+000
1.239911e+003,-5.212463e+000
1.240876e+003,-5.308228e+000
1.241840e+003,-5.964355e+000
1.242804e+003,-7.260376e+000
1.243768e+003,-7.293518e+000
1.244733e+003,-4.902283e+000
1.245697e+003,-2.665466e+000
1.246661e+003,-7.603760e-001
1.247625e+003,2.493896e-001
1.248590e+003,-5.158081e-001
1.249554e+003,-2.070374e+000
1.250518e+003,-1.969116e+000
1.251482e+003,8.228149e-001
1.252447e+003,3.874695e+000
1.253411e+003,4.400208e+000
1.254375e+003,3.587830e+000
1.255339e+003,3.595947e+000
1.256303e+003,4.672302e+000
1.257268e+003,6.249695e+000
1.258232e+003,7.836548e+000
1.259196e+003,9.099487e+000
1.260160e+003,9.688782e+000
1.261125e+003,9.622253e+000
1.262089e+003,1.085236e+001
1.263053e+003,1.520721e+001
1.264017e+003,1.807843e+001
1.264982e+003,1.765723e+001
1.265946e+003,1.610883e+001
1.266910e+003,1.525806e+001
1.267874e+003,1.537152e+001
1.268839e+003,1.602405e+001
1.269803e+003,1.697919e+001
1.270767e+003,1.774377e+001
1.271731e+003,1.725061e+001
1.272695e+003,1.569409e+001
1.273660e+003,1.469873e+001
1.274624e+003,1.410590e+001
1.275588e+003,1.305975e+001
1.276552e+003,1.089166e+001
1.277517e+003,8.675781e+000
1.278481e+003,8.313293e+000
1.279445e+003,9.952454e+000
1.280409e+003,1.101880e+001
1.281374e+003,1.034625e+001
1.282338e+003,9.479675e+000
1.283302e+003,9.085205e+000
1.284266e+003,8.943176e+000
1.285230e+003,8.928589e+000
1.286195e+003,8.855225e+000
1.287159e+003,8.383423e+000
1.288123e+003,7.376221e+000
1.289087e+003,6.361511e+000
1.290052e+003,6.299011e+000
1.291016e+003,7.252380e+000
1.291980e+003,7.994263e+000
1.292944e+003,8.677856e+000
1.293909e+003,8.370422e+000
1.294873e+003,6.139465e+000
1.295837e+003,3.583618e+000
1.296801e+003,2.727783e+000
1.297766e+003,3.826416e+000
1.298730e+003,6.164246e+000
1.299694e+003,1.038470e+001
1.300658e+003,1.321539e+001
1.301622e+003,9.283691e+000
1.302587e+003,2.682068e+000
1.303551e+003,2.053223e-001
1.304515e+003,2.896545e+000
1.305479e+003,6.379395e+000
1.306444e+003,6.854187e+000
1.307408e+003,5.361145e+000
1.308372e+003,6.340637e+000
1.309336e+003,1.156378e+001
1.310301e+003,1.362256e+001
1.311265e+003,8.953186e+000
1.312229e+003,5.522095e+000
1.313193e+003,6.520752e+000
1.314157e+003,9.159485e+000
1.315122e+003,1.071887e+001
1.316086e+003,1.055103e+001
1.317050e+003,8.911316e+000
1.318014e+003,5.947632e+000
1.318979e+003,3.282654e+000
1.319943e+003,3.860229e+000
1.320907e+003,7.526794e+000
1.321871e+003,1.100812e+001
1.322836e+003,1.392920e+001
1.323800e+003,1.592737e+001
1.324764e+003,1.662793e+001
1.325728e+003,1.651984e+001
1.326693e+003,1.608417e+001
1.327657e+003,1.513733e+001
1.328621e+003,1.444885e+001
1.329585e+003,1.505396e+001
1.330549e+003,1.654907e+001
1.331514e+003,1.790839e+001
1.332478e+003,1.905170e+001
1.333442e+003,2.071753e+001
1.334406e+003,2.258923e+001
1.335371e+003,2.318524e+001
1.336335e+003,2.163367e+001
1.337299e+003,1.879871e+001
1.338263e+003,1.602094e+001
1.339228e+003,1.302844e+001
1.340192e+003,1.288623e+001
1.341156e+003,1.861548e+001
1.342120e+003,2.252454e+001
1.343084e+003,2.246234e+001
1.344049e+003,2.053546e+001
1.345013e+003,1.784387e+001
1.345977e+003,1.532965e+001
1.346941e+003,1.457373e+001
1.347906e+003,1.615405e+001
1.348870e+003,1.884296e+001
1.349834e+003,2.233990e+001
1.350798e+003,2.521936e+001
1.351763e+003,2.507294e+001
1.352727e+003,2.241296e+001
1.353691e+003,1.950568e+001
1.354655e+003,1.685840e+001
1.355620e+003,1.544934e+001
1.356584e+003,1.728900e+001
1.357548e+003,2.196899e+001
1.358512e+003,2.471600e+001
1.359476e+003,2.463007e+001
1.360441e+003,2.331708e+001
1.361405e+003,1.983356e+001
1.362369e+003,1.708203e+001
1.363333e+003,1.696088e+001
1.364298e+003,1.827478e+001
1.365262e+003,1.937317e+001
1.366226e+003,1.977045e+001
1.367190e+003,1.988647e+001
1.368155e+003,2.008075e+001
1.369119e+003,2.046320e+001
1.370083e+003,2.151642e+001
1.371047e+003,2.377423e+001
1.372011e+003,2.513202e+001
1.372976e+003,2.464093e+001
1.373940e+003,2.379456e+001
1.374904e+003,2.256665e+001
1.375868e+003,2.195044e+001
1.376833e+003,2.364624e+001
1.377797e+003,2.727246e+001
1.378761e+003,3.010809e+001
1.379725e+003,3.120538e+001
1.380690e+003,3.087158e+001
1.381654e+003,2.766345e+001
1.382618e+003,2.425043e+001
1.383582e+003,2.508734e+001
1.384547e+003,2.979480e+001
1.385511e+003,3.375433e+001
1.386475e+003,3.432770e+001
1.387439e+003,3.360852e+001
1.388403e+003,3.528900e+001
1.389368e+003,3.931818e+001
1.390332e+003,4.112402e+001
1.391296e+003,3.993164e+001
1.392260e+003,3.824677e+001
1.393225e+003,3.526709e+001
1.394189e+003,3.327118e+001
1.395153e+003,3.486499e+001
1.396117e+003,3.777209e+001
1.397082e+003,3.825433e+001
1.398046e+003,3.565771e+001
1.399010e+003,3.237164e+001
1.399974e+003,3.032007e+001
1.400938e+003,2.932733e+001
1.401903e+003,3.014185e+001
1.402867e+003,3.434991e+001
1.403831e+003,3.772119e+001
1.404795e+003,3.909283e+001
1.405760e+003,4.036578e+001
1.406724e+003,4.253424e+001
1.407688e+003,4.352094e+001
1.408652e+003,4.018390e+001
1.409617e+003,3.393268e+001
1.410581e+003,3.104333e+001
1.411545e+003,3.432971e+001
1.412509e+003,3.961755e+001
1.413474e+003,4.385797e+001
1.414438e+003,4.625372e+001
1.415402e+003,4.553046e+001
1.416366e+003,4.254059e+001
1.417330e+003,4.048169e+001
1.418295e+003,4.061316e+001
1.419259e+003,4.203705e+001
1.420223e+003,4.426605e+001
1.421187e+003,4.670715e+001
1.422152e+003,4.646393e+001
1.423116e+003,4.239801e+001
1.424080e+003,4.058899e+001
1.425044e+003,4.457336e+001
1.426009e+003,4.843829e+001
1.426973e+003,5.010101e+001
1.427937e+003,5.004614e+001
1.428901e+003,4.819012e+001
1.429865e+003,4.555103e+001
1.430830e+003,4.468549e+001
1.431794e+003,4.707092e+001
1.432758e+003,5.078033e+001
1.433722e+003,5.229938e+001
1.434687e+003,5.178009e+001
1.435651e+003,5.414856e+001
1.436615e+003,6.177679e+001
1.437579e+003,6.629974e+001
1.438544e+003,6.486816e+001
1.439508e+003,6.260297e+001
1.440472e+003,6.359344e+001
1.441436e+003,6.649170e+001
1.442401e+003,6.804578e+001
1.443365e+003,6.733289e+001
1.444329e+003,6.518573e+001
1.445293e+003,6.178442e+001
1.446257e+003,5.900208e+001
1.447222e+003,6.169867e+001
1.448186e+003,6.834595e+001
1.449150e+003,7.009668e+001
1.450114e+003,6.479498e+001
1.451079e+003,5.986462e+001
1.452043e+003,5.975629e+001
1.453007e+003,6.212238e+001
1.453971e+003,6.410187e+001
1.454936e+003,6.536615e+001
1.455900e+003,6.487476e+001
1.456864e+003,6.204822e+001
1.457828e+003,5.940649e+001
1.458792e+003,5.787006e+001
1.459757e+003,5.716705e+001
1.460721e+003,5.741504e+001
1.461685e+003,5.825433e+001
1.462649e+003,5.952673e+001
1.463614e+003,6.113232e+001
1.464578e+003,6.158160e+001
1.465542e+003,5.906165e+001
1.466506e+003,5.489240e+001
1.467471e+003,5.347900e+001
1.468435e+003,5.569049e+001
1.469399e+003,5.834753e+001
1.470363e+003,6.139331e+001
1.471328e+003,6.384869e+001
1.472292e+003,6.541461e+001
1.473256e+003,6.572949e+001
1.474220e+003,6.444196e+001
1.475184e+003,6.256805e+001
1.476149e+003,6.114270e+001
1.477113e+003,6.048828e+001
1.478077e+003,6.089697e+001
1.479041e+003,6.297839e+001
1.480006e+003,6.651477e+001
1.480970e+003,7.009363e+001
1.481934e+003,7.371790e+001
1.482898e+003,7.553906e+001
1.483863e+003,7.351038e+001
1.484827e+003,7.258484e+001
1.485791e+003,7.540643e+001
1.486755e+003,7.930420e+001
1.487719e+003,8.152997e+001
1.488684e+003,8.233453e+001
1.489648e+003,8.325940e+001
1.490612e+003,8.502319e+001
1.491576e+003,8.817010e+001
1.492541e+003,9.340887e+001
1.493505e+003,9.940588e+001
1.494469e+003,1.031932e+002
1.495433e+003,1.047463e+002
1.496398e+003,1.060221e+002
1.497362e+003,1.075937e+002
1.498326e+003,1.097531e+002
1.499290e+003,1.118137e+002
1.500255e+003,1.150074e+002
1.501219e+003,1.213716e+002
1.502183e+003,1.303640e+002
1.503147e+003,1.392726e+002
1.504111e+003,1.474355e+002
1.505076e+003,1.557818e+002
1.506040e+003,1.642273e+002
1.507004e+003,1.740181e+002
1.507968e+003,1.855720e+002
1.508933e+003,1.994045e+002
1.509897e+003,2.175724e+002
1.510861e+003,2.406640e+002
1.511825e+003,2.642181e+002
1.512790e+003,2.843983e+002
1.513754e+003,3.032538e+002
1.514718e+003,3.255858e+002
1.515682e+003,3.510293e+002
1.516646e+003,3.758940e+002
1.517611e+003,4.019634e+002
1.518575e+003,4.235920e+002
1.519539e+003,4.383066e+002
1.520503e+003,4.496078e+002
1.521468e+003,4.589501e+002
1.522432e+003,4.657327e+002
1.523396e+003,4.696637e+002
1.524360e+003,4.700997e+002
1.525325e+003,4.653188e+002
1.526289e+003,4.542927e+002
1.527253e+003,4.393124e+002
1.528217e+003,4.243196e+002
1.529182e+003,4.096475e+002
1.530146e+003,3.919516e+002
1.531110e+003,3.704181e+002
1.532074e+003,3.465088e+002
1.533039e+003,3.184960e+002
1.534003e+003,2.890197e+002
1.534967e+003,2.583408e+002
1.535931e+003,2.288997e+002
1.536896e+003,2.021259e+002
1.537860e+003,1.790405e+002
1.538824e+003,1.611634e+002
1.539788e+003,1.489222e+002
1.540752e+003,1.400746e+002
1.541717e+003,1.320214e+002
1.542681e+003,1.250247e+002
1.543645e+003,1.194236e+002
1.544609e+003,1.156738e+002
1.545573e+003,1.134301e+002
1.546538e+003,1.134915e+002
1.547502e+003,1.128865e+002
1.548466e+003,1.092734e+002
1.549430e+003,1.064496e+002
1.550395e+003,1.091064e+002
1.551359e+003,1.154614e+002
1.552323e+003,1.205096e+002
1.553287e+003,1.223918e+002
1.554252e+003,1.211785e+002
1.555216e+003,1.165594e+002
1.556180e+003,1.096509e+002
1.557144e+003,1.024750e+002
1.558109e+003,9.521497e+001
1.559073e+003,9.103137e+001
1.560037e+003,9.078473e+001
1.561001e+003,9.075470e+001
1.561966e+003,8.986615e+001
1.562930e+003,8.954547e+001
1.563894e+003,9.126300e+001
1.564858e+003,9.409583e+001
1.565823e+003,9.599152e+001
1.566787e+003,9.651978e+001
1.567751e+003,9.666626e+001
1.568715e+003,9.714856e+001
1.569679e+003,9.742609e+001
1.570644e+003,9.627783e+001
1.571608e+003,9.411633e+001
1.572572e+003,9.249139e+001
1.573536e+003,9.165607e+001
1.574500e+003,9.301617e+001
1.575465e+003,9.856696e+001
1.576429e+003,1.037271e+002
1.577393e+003,1.035851e+002
1.578357e+003,1.007241e+002
1.579322e+003,1.005309e+002
1.580286e+003,1.033508e+002
1.581250e+003,1.068629e+002
1.582214e+003,1.108521e+002
1.583179e+003,1.135213e+002
1.584143e+003,1.128508e+002
1.585107e+003,1.103059e+002
1.586071e+003,1.078712e+002
1.587036e+003,1.061158e+002
1.588000e+003,1.055477e+002
1.588964e+003,1.060041e+002
1.589928e+003,1.074901e+002
1.590893e+003,1.112355e+002
1.591857e+003,1.149670e+002
1.592821e+003,1.139918e+002
1.593785e+003,1.096060e+002
1.594750e+003,1.097276e+002
1.595714e+003,1.160534e+002
1.596678e+003,1.208151e+002
1.597642e+003,1.199951e+002
1.598606e+003,1.181186e+002
1.599571e+003,1.183942e+002
1.600535e+003,1.202901e+002
1.601499e+003,1.240181e+002
1.602463e+003,1.287472e+002
1.603427e+003,1.312050e+002
1.604392e+003,1.299050e+002
1.605356e+003,1.276437e+002
1.606320e+003,1.272706e+002
1.607284e+003,1.281581e+002
1.608249e+003,1.283749e+002
1.609213e+003,1.278892e+002
1.610177e+003,1.277653e+002
1.611141e+003,1.281711e+002
1.612106e+003,1.289954e+002
1.613070e+003,1.309020e+002
1.614034e+003,1.324618e+002
1.614998e+003,1.321598e+002
1.615963e+003,1.310124e+002
1.616927e+003,1.309465e+002
1.617891e+003,1.319807e+002
1.618855e+003,1.319406e+002
1.619820e+003,1.290637e+002
1.620784e+003,1.258217e+002
1.621748e+003,1.270513e+002
1.622712e+003,1.323078e+002
1.623677e+003,1.355965e+002
1.624641e+003,1.366635e+002
1.625605e+003,1.372892e+002
1.626569e+003,1.370716e+002
1.627533e+003,1.358443e+002
1.628498e+003,1.326483e+002
1.629462e+003,1.300563e+002
1.630426e+003,1.304207e+002
1.631390e+003,1.329180e+002
1.632354e+003,1.361413e+002
1.633319e+003,1.394036e+002
1.634283e+003,1.410276e+002
1.635247e+003,1.393967e+002
1.636211e+003,1.363729e+002
1.637176e+003,1.355008e+002
1.638140e+003,1.368127e+002
1.639104e+003,1.386497e+002
1.640068e+003,1.415493e+002
1.641033e+003,1.418842e+002
1.641997e+003,1.360372e+002
1.642961e+003,1.317262e+002
1.643925e+003,1.340225e+002
1.644890e+003,1.384282e+002
1.645854e+003,1.409420e+002
1.646818e+003,1.414975e+002
1.647782e+003,1.409158e+002
1.648747e+003,1.395918e+002
1.649711e+003,1.390023e+002
1.650675e+003,1.409362e+002
1.651639e+003,1.438334e+002
1.652604e+003,1.435734e+002
1.653568e+003,1.401166e+002
1.654532e+003,1.381720e+002
1.655496e+003,1.387208e+002
1.656460e+003,1.380407e+002
1.657425e+003,1.330588e+002
1.658389e+003,1.297089e+002
1.659353e+003,1.333682e+002
1.660317e+003,1.384544e+002
1.661281e+003,1.389399e+002
1.662246e+003,1.353056e+002
1.663210e+003,1.304250e+002
1.664174e+003,1.255156e+002
1.665138e+003,1.222631e+002
1.666103e+003,1.221924e+002
1.667067e+003,1.239881e+002
1.668031e+003,1.259008e+002
1.668995e+003,1.278497e+002
1.669960e+003,1.268131e+002
1.670924e+003,1.214605e+002
1.671888e+003,1.183649e+002
1.672852e+003,1.204086e+002
1.673817e+003,1.235795e+002
1.674781e+003,1.266183e+002
1.675745e+003,1.283938e+002
1.676709e+003,1.266926e+002
1.677674e+003,1.226093e+002
1.678638e+003,1.196888e+002
1.679602e+003,1.190523e+002
1.680566e+003,1.190411e+002
1.681531e+003,1.188858e+002
1.682495e+003,1.183766e+002
1.683459e+003,1.161711e+002
1.684423e+003,1.125739e+002
1.685387e+003,1.112119e+002
1.686352e+003,1.128938e+002
1.687316e+003,1.136290e+002
1.688280e+003,1.113891e+002
1.689244e+003,1.093154e+002
1.690208e+003,1.100831e+002
1.691173e+003,1.118366e+002
1.692137e+003,1.128837e+002
1.693101e+003,1.135349e+002
1.694065e+003,1.142546e+002
1.695030e+003,1.148442e+002
1.695994e+003,1.154122e+002
1.696958e+003,1.170549e+002
1.697922e+003,1.178162e+002
1.698887e+003,1.143328e+002
1.699851e+003,1.081952e+002
1.700815e+003,1.035134e+002
1.701779e+003,1.005548e+002
1.702744e+003,1.002199e+002
1.703708e+003,1.036940e+002
1.704672e+003,1.078455e+002
1.705636e+003,1.105795e+002
1.706601e+003,1.115695e+002
1.707565e+003,1.100553e+002
1.708529e+003,1.071994e+002
1.709493e+003,1.062328e+002
1.710458e+003,1.077371e+002
1.711422e+003,1.085671e+002
1.712386e+003,1.079720e+002
1.713350e+003,1.061544e+002
1.714314e+003,1.014057e+002
1.715279e+003,9.596356e+001
1.716243e+003,9.436182e+001
1.717207e+003,9.616833e+001
1.718171e+003,9.717346e+001
1.719135e+003,9.627979e+001
1.720100e+003,9.671533e+001
1.721064e+003,1.009866e+002
1.722028e+003,1.060593e+002
1.722992e+003,1.079505e+002
1.723957e+003,1.073672e+002
1.724921e+003,1.064290e+002
1.725885e+003,1.045804e+002
1.726849e+003,1.022936e+002
1.727814e+003,9.959497e+001
1.728778e+003,9.776044e+001
1.729742e+003,9.718060e+001
1.730706e+003,9.760205e+001
1.731671e+003,9.961938e+001
1.732635e+003,1.015085e+002
1.733599e+003,9.959863e+001
1.734563e+003,9.451837e+001
1.735528e+003,9.211945e+001
1.736492e+003,9.531537e+001
1.737456e+003,9.975519e+001
1.738420e+003,1.003196e+002
1.739385e+003,9.772443e+001
1.740349e+003,9.546069e+001
1.741313e+003,9.360675e+001
1.742277e+003,9.297900e+001
1.743241e+003,9.526910e+001
1.744206e+003,9.659741e+001
1.745170e+003,9.507611e+001
1.746134e+003,9.375604e+001
1.747098e+003,9.507330e+001
1.748063e+003,9.688800e+001
1.749027e+003,9.612695e+001
1.749991e+003,9.368756e+001
1.750955e+003,9.289886e+001
1.751919e+003,9.460156e+001
1.752884e+003,9.630225e+001
1.753848e+003,9.593115e+001
1.754812e+003,9.432568e+001
1.755776e+003,9.333282e+001
1.756741e+003,9.322388e+001
1.757705e+003,9.360773e+001
1.758669e+003,9.425433e+001
1.759633e+003,9.531293e+001
1.760598e+003,9.739398e+001
1.761562e+003,9.850122e+001
1.762526e+003,9.820300e+001
1.763490e+003,9.722461e+001
1.764455e+003,9.525134e+001
1.765419e+003,9.344763e+001
1.766383e+003,9.358716e+001
1.767347e+003,9.538739e+001
1.768312e+003,9.707471e+001
1.769276e+003,9.773993e+001
1.770240e+003,9.738635e+001
1.771204e+003,9.607782e+001
1.772168e+003,9.466168e+001
1.773133e+003,9.429315e+001
1.774097e+003,9.493445e+001
1.775061e+003,9.657318e+001
1.776025e+003,9.908636e+001
1.776990e+003,1.012044e+002
1.777954e+003,1.034364e+002
1.778918e+003,1.041647e+002
1.779882e+003,1.001998e+002
1.780846e+003,9.507111e+001
1.781811e+003,9.403986e+001
1.782775e+003,9.622839e+001
1.783739e+003,9.869891e+001
1.784703e+003,1.012403e+002
1.785668e+003,1.031034e+002
1.786632e+003,1.035985e+002
1.787596e+003,1.030327e+002
1.788560e+003,1.015776e+002
1.789525e+003,1.000869e+002
1.790489e+003,9.905743e+001
1.791453e+003,9.853027e+001
1.792417e+003,9.918347e+001
1.793382e+003,1.009979e+002
1.794346e+003,1.022751e+002
1.795310e+003,1.020427e+002
1.796274e+003,1.012498e+002
1.797239e+003,1.011449e+002
1.798203e+003,1.018908e+002
1.799167e+003,1.027372e+002
1.800131e+003,1.029240e+002
1.801095e+003,1.037789e+002
1.802060e+003,1.080120e+002
1.803024e+003,1.097877e+002
1.803988e+003,1.056570e+002
1.804952e+003,1.020623e+002
1.805917e+003,1.025927e+002
1.806881e+003,1.046373e+002
1.807845e+003,1.063478e+002
1.808809e+003,1.071710e+002
1.809773e+003,1.061450e+002
1.810738e+003,1.036102e+002
1.811702e+003,1.019291e+002
1.812666e+003,1.025352e+002
1.813630e+003,1.042701e+002
1.814595e+003,1.056866e+002
1.815559e+003,1.067054e+002
1.816523e+003,1.073508e+002
1.817487e+003,1.076876e+002
1.818452e+003,1.078251e+002
1.819416e+003,1.081497e+002
1.820380e+003,1.079993e+002
1.821344e+003,1.059897e+002
1.822309e+003,1.045330e+002
1.823273e+003,1.064456e+002
1.824237e+003,1.089351e+002
1.825201e+003,1.080719e+002
1.826166e+003,1.052864e+002
1.827130e+003,1.053375e+002
1.828094e+003,1.088292e+002
1.829058e+003,1.110770e+002
1.830022e+003,1.092180e+002
1.830987e+003,1.074090e+002
1.831951e+003,1.103604e+002
1.832915e+003,1.145391e+002
1.833879e+003,1.144305e+002
1.834844e+003,1.110605e+002
1.835808e+003,1.075629e+002
1.836772e+003,1.048244e+002
1.837736e+003,1.047290e+002
1.838700e+003,1.080627e+002
1.839665e+003,1.114119e+002
1.840629e+003,1.117985e+002
1.841593e+003,1.102819e+002
1.842557e+003,1.085410e+002
1.843522e+003,1.065919e+002
1.844486e+003,1.069848e+002
1.845450e+003,1.123777e+002
1.846414e+003,1.157732e+002
1.847379e+003,1.159460e+002
1.848343e+003,1.147374e+002
1.849307e+003,1.114116e+002
1.850271e+003,1.085734e+002
1.851236e+003,1.080961e+002
1.852200e+003,1.095190e+002
1.853164e+003,1.127077e+002
1.854128e+003,1.162460e+002
1.855093e+003,1.172017e+002
1.856057e+003,1.150052e+002
1.857021e+003,1.125638e+002
1.857985e+003,1.120352e+002
1.858949e+003,1.128375e+002
1.859914e+003,1.146795e+002
1.860878e+003,1.172363e+002
1.861842e+003,1.178311e+002
1.862806e+003,1.162800e+002
1.863771e+003,1.155849e+002
1.864735e+003,1.162529e+002
1.865699e+003,1.170636e+002
1.866663e+003,1.177839e+002
1.867627e+003,1.184583e+002
1.868592e+003,1.181418e+002
1.869556e+003,1.178522e+002
1.870520e+003,1.212498e+002
1.871484e+003,1.273206e+002
1.872449e+003,1.290158e+002
1.873413e+003,1.252043e+002
1.874377e+003,1.225045e+002
1.875341e+003,1.223947e+002
1.876306e+003,1.227441e+002
1.877270e+003,1.223220e+002
1.878234e+003,1.217173e+002
1.879198e+003,1.216181e+002
1.880163e+003,1.220176e+002
1.881127e+003,1.229842e+002
1.882091e+003,1.243491e+002
1.883055e+003,1.257981e+002
1.884020e+003,1.270057e+002
1.884984e+003,1.266093e+002
1.885948e+003,1.232728e+002
1.886912e+003,1.191888e+002
1.887876e+003,1.190302e+002
1.888841e+003,1.224397e+002
1.889805e+003,1.245015e+002
1.890769e+003,1.248889e+002
1.891733e+003,1.257614e+002
1.892698e+003,1.274583e+002
1.893662e+003,1.286985e+002
1.894626e+003,1.292860e+002
1.895590e+003,1.292049e+002
1.896554e+003,1.280436e+002
1.897519e+003,1.268307e+002
1.898483e+003,1.261446e+002
1.899447e+003,1.260049e+002
1.900411e+003,1.277048e+002
1.901376e+003,1.317559e+002
1.902340e+003,1.342413e+002
1.903304e+003,1.328812e+002
1.904268e+003,1.307676e+002
1.905233e+003,1.294863e+002
1.906197e+003,1.288806e+002
1.907161e+003,1.292684e+002
1.908125e+003,1.300944e+002
1.909090e+003,1.297850e+002
1.910054e+003,1.285141e+002
1.911018e+003,1.283514e+002
1.911982e+003,1.299936e+002
1.912947e+003,1.318147e+002
1.913911e+003,1.325331e+002
1.914875e+003,1.328307e+002
1.915839e+003,1.337244e+002
1.916803e+003,1.347105e+002
1.917768e+003,1.343079e+002
1.918732e+003,1.324276e+002
1.919696e+003,1.310823e+002
1.920660e+003,1.301314e+002
1.921625e+003,1.308958e+002
1.922589e+003,1.349858e+002
1.923553e+003,1.382388e+002
1.924517e+003,1.379876e+002
1.925481e+003,1.364399e+002
1.926446e+003,1.350959e+002
1.927410e+003,1.340554e+002
1.928374e+003,1.328842e+002
1.929338e+003,1.315840e+002
1.930303e+003,1.325316e+002
1.931267e+003,1.378988e+002
1.932231e+003,1.420339e+002
1.933195e+003,1.409659e+002
1.934160e+003,1.388153e+002
1.935124e+003,1.378996e+002
1.936088e+003,1.379623e+002
1.937052e+003,1.396550e+002
1.938017e+003,1.420967e+002
1.938981e+003,1.429090e+002
1.939945e+003,1.420515e+002
1.940909e+003,1.418377e+002
1.941874e+003,1.431458e+002
1.942838e+003,1.441935e+002
1.943802e+003,1.435853e+002
1.944766e+003,1.420300e+002
1.945730e+003,1.399185e+002
1.946695e+003,1.373643e+002
1.947659e+003,1.374969e+002
1.948623e+003,1.405445e+002
1.949587e+003,1.428671e+002
1.950552e+003,1.443974e+002
1.951516e+003,1.443730e+002
1.952480e+003,1.412055e+002
1.953444e+003,1.392980e+002
1.954408e+003,1.426972e+002
1.955373e+003,1.476863e+002
1.956337e+003,1.493116e+002
1.957301e+003,1.487711e+002
1.958265e+003,1.493124e+002
1.959230e+003,1.512700e+002
1.960194e+003,1.523708e+002
1.961158e+003,1.516760e+002
1.962122e+003,1.499933e+002
1.963087e+003,1.466284e+002
1.964051e+003,1.435980e+002
1.965015e+003,1.417392e+002
1.965979e+003,1.416288e+002
1.966944e+003,1.445618e+002
1.967908e+003,1.486497e+002
1.968872e+003,1.505692e+002
1.969836e+003,1.504388e+002
1.970801e+003,1.515150e+002
1.971765e+003,1.550684e+002
1.972729e+003,1.578478e+002
1.973693e+003,1.567991e+002
1.974657e+003,1.543130e+002
1.975622e+003,1.537289e+002
1.976586e+003,1.543929e+002
1.977550e+003,1.550515e+002
1.978514e+003,1.557341e+002
1.979479e+003,1.561309e+002
1.980443e+003,1.561650e+002
1.981407e+003,1.564756e+002
1.982371e+003,1.574249e+002
1.983335e+003,1.589373e+002
1.984300e+003,1.609499e+002
1.985264e+003,1.622960e+002
1.986228e+003,1.610864e+002
1.987192e+003,1.581613e+002
1.988157e+003,1.581234e+002
1.989121e+003,1.620278e+002
1.990085e+003,1.639640e+002
1.991049e+003,1.628447e+002
1.992014e+003,1.623285e+002
1.992978e+003,1.627088e+002
1.993942e+003,1.635798e+002
1.994906e+003,1.658166e+002
1.995871e+003,1.674868e+002
1.996835e+003,1.659732e+002
1.997799e+003,1.639122e+002
1.998763e+003,1.654520e+002
1.999728e+003,1.698600e+002
