5.003444e+002,2.736841e+001
5.013087e+002,2.345038e+001
5.022729e+002,2.116425e+001
5.032371e+002,2.074261e+001
5.042014e+002,2.056006e+001
5.051656e+002,2.066595e+001
5.061298e+002,2.054865e+001
5.070941e+002,1.951227e+001
5.080583e+002,1.688062e+001
5.090225e+002,1.558710e+001
5.099868e+002,1.719690e+001
5.109510e+002,1.808142e+001
5.119152e+002,1.552405e+001
5.128795e+002,9.155273e+000
5.138437e+002,4.994263e+000
5.148079e+002,6.515137e+000
5.157722e+002,9.561523e+000
5.167364e+002,1.322797e+001
5.177006e+002,1.667102e+001
5.186649e+002,1.887445e+001
5.196291e+002,1.841565e+001
5.205933e+002,1.712433e+001
5.215576e+002,1.586145e+001
5.225218e+002,1.452203e+001
5.234860e+002,1.328284e+001
5.244503e+002,1.310004e+001
5.254145e+002,1.518451e+001
5.263787e+002,1.614459e+001
5.273430e+002,1.559265e+001
5.283072e+002,1.420654e+001
5.292714e+002,1.250952e+001
5.302357e+002,9.145569e+000
5.311999e+002,6.830994e+000
5.321641e+002,6.728210e+000
5.331284e+002,8.095642e+000
5.340926e+002,1.055884e+001
5.350568e+002,1.382312e+001
5.360211e+002,1.604565e+001
5.369853e+002,1.585431e+001
5.379495e+002,1.490283e+001
5.389138e+002,1.416840e+001
5.398780e+002,1.398090e+001
5.408422e+002,1.398340e+001
5.418065e+002,1.343488e+001
5.427707e+002,1.239429e+001
5.437349e+002,1.119653e+001
5.446992e+002,9.766235e+000
5.456634e+002,8.160400e+000
5.466276e+002,6.784790e+000
5.475919e+002,6.296814e+000
5.485561e+002,5.665466e+000
5.495203e+002,4.074036e+000
5.504846e+002,2.129211e+000
5.514488e+002,8.769531e-001
5.524130e+002,9.808350e-001
5.533773e+002,2.164551e+000
5.543415e+002,5.115112e+000
5.553057e+002,8.339050e+000
5.562700e+002,1.002081e+001
5.572342e+002,8.992554e+000
5.581984e+002,6.416138e+000
5.591627e+002,6.054932e+000
5.601269e+002,7.146729e+000
5.610911e+002,6.994995e+000
5.620554e+002,3.905396e+000
5.630196e+002,-1.786743e+000
5.639838e+002,-5.044250e+000
5.649481e+002,-3.810059e+000
5.659123e+002,-3.101563e+000
5.668765e+002,-3.923096e+000
5.678408e+002,-5.132629e+000
5.688050e+002,-4.145020e+000
5.697692e+002,1.268555e+000
5.707335e+002,4.969299e+000
5.716977e+002,4.808716e+000
5.726619e+002,2.477661e+000
5.736262e+002,1.588745e-001
5.745904e+002,-6.881104e-001
5.755546e+002,-4.340820e-001
5.765189e+002,1.605225e-002
5.774831e+002,9.887695e-002
5.784473e+002,-7.528687e-001
5.794116e+002,-2.681091e+000
5.803758e+002,-5.080139e+000
5.813400e+002,-4.541809e+000
5.823043e+002,-5.208740e-001
5.832685e+002,1.944885e+000
5.842327e+002,4.471436e-001
5.851970e+002,-3.818726e+000
5.861612e+002,-5.310608e+000
5.871254e+002,-2.618408e-002
5.880897e+002,3.713928e+000
5.890539e+002,2.877686e+000
5.900181e+002,-5.987549e-001
5.909824e+002,-2.969116e+000
5.919466e+002,-1.208923e+000
5.929108e+002,1.364929e+000
5.938751e+002,5.949097e-001
5.948393e+002,-1.887512e+000
5.958035e+002,-3.576782e+000
5.967678e+002,-2.556946e+000
5.977320e+002,1.027283e+000
5.986962e+002,5.049500e+000
5.996605e+002,9.111389e+000
6.006247e+002,1.174200e+001
6.015889e+002,1.199451e+001
6.025532e+002,1.007477e+001
6.035174e+002,8.178223e+000
6.044816e+002,6.252869e+000
6.054459e+002,4.631165e+000
6.064101e+002,3.601746e+000
6.073743e+002,2.813049e+000
6.083386e+002,1.666321e+000
6.093028e+002,-2.213745e-001
6.102670e+002,-2.012024e+000
6.112313e+002,-3.871094e+000
6.121955e+002,-5.205933e+000
6.131597e+002,-4.832947e+000
6.141240e+002,-2.029358e+000
6.150882e+002,2.091309e+000
6.160524e+002,2.804810e+000
6.170167e+002,9.963989e-001
6.179809e+002,-9.905396e-001
6.189451e+002,-2.590393e+000
6.199094e+002,-4.030884e+000
6.208736e+002,-5.017334e+000
6.218378e+002,-4.751953e+000
6.228021e+002,-3.651917e+000
6.237663e+002,2.783203e-002
6.247305e+002,4.266113e+000
6.256948e+002,4.998474e+000
6.266590e+002,-1.882690e+000
6.276232e+002,-7.902161e+000
6.285875e+002,-6.592773e+000
6.295517e+002,-1.860352e+000
6.305159e+002,2.596375e+000
6.314802e+002,4.455750e+000
6.324444e+002,3.838745e+000
6.334086e+002,5.841064e-002
6.343729e+002,-5.213196e+000
6.353371e+002,-7.913147e+000
6.363013e+002,-6.268127e+000
6.372656e+002,-1.996338e+000
6.382298e+002,-8.389893e-001
6.391940e+002,-7.419312e+000
6.401583e+002,-1.153979e+001
6.411225e+002,-1.097278e+001
6.420867e+002,-7.854431e+000
6.430510e+002,-4.886597e+000
6.440152e+002,-3.042969e+000
6.449794e+002,-2.409180e+000
6.459437e+002,-2.706543e+000
6.469079e+002,-4.020813e+000
6.478721e+002,-7.323181e+000
6.488364e+002,-1.228510e+001
6.498006e+002,-1.627423e+001
6.507648e+002,-1.347681e+001
6.517291e+002,-6.599426e+000
6.526933e+002,-1.520508e+000
6.536575e+002,6.543579e-001
6.546218e+002,3.833008e-001
6.555860e+002,-1.606750e+000
6.565502e+002,-7.315735e+000
6.575145e+002,-1.037354e+001
6.584787e+002,-1.034790e+001
6.594429e+002,-8.378357e+000
6.604072e+002,-4.314087e+000
6.613714e+002,2.327209e+000
6.623356e+002,6.794373e+000
6.632999e+002,4.187012e+000
6.642641e+002,4.231567e-001
6.652283e+002,-9.979858e-001
6.661926e+002,2.774658e-001
6.671568e+002,2.219788e+000
6.681210e+002,2.132385e+000
6.690853e+002,4.368286e-001
6.700495e+002,-7.581787e-001
6.710137e+002,-1.408203e+000
6.719780e+002,-2.043762e+000
6.729422e+002,-3.446716e+000
6.739064e+002,-6.261108e+000
6.748707e+002,-6.960144e+000
6.758349e+002,-3.952881e+000
6.767991e+002,-1.542053e+000
6.777634e+002,-1.285645e+000
6.787276e+002,-2.615417e+000
6.796918e+002,-3.593262e+000
6.806561e+002,-4.943726e+000
6.816203e+002,-5.157043e+000
6.825845e+002,-2.194397e+000
6.835488e+002,2.044678e+000
6.845130e+002,4.474121e+000
6.854772e+002,2.766052e+000
6.864415e+002,-8.593140e-001
6.874057e+002,-2.559021e+000
6.883699e+002,-3.253296e+000
6.893342e+002,-3.418213e+000
6.902984e+002,-3.043762e+000
6.912626e+002,-2.209961e+000
6.922269e+002,-2.651733e+000
6.931911e+002,-5.722961e+000
6.941553e+002,-6.561584e+000
6.951196e+002,-3.878967e+000
6.960838e+002,-2.581787e-002
6.970480e+002,1.575745e+000
6.980123e+002,-3.083496e-001
6.989765e+002,-2.402954e+000
6.999407e+002,-4.560181e+000
7.009050e+002,-5.713440e+000
7.018692e+002,-3.536072e+000
7.028334e+002,1.890259e+000
7.037977e+002,6.103699e+000
7.047619e+002,-1.483154e-001
7.057261e+002,-1.143213e+001
7.066904e+002,-1.724792e+001
7.076546e+002,-1.593927e+001
7.086188e+002,-1.082562e+001
7.095831e+002,-7.030090e+000
7.105473e+002,-5.283630e+000
7.115115e+002,-3.727722e+000
7.124758e+002,-2.477112e+000
7.134400e+002,-1.607849e+000
7.144042e+002,-7.835693e-001
7.153685e+002,1.794434e-001
7.163327e+002,6.144409e-001
7.172969e+002,-6.861572e-001
7.182612e+002,-1.628967e+000
7.192254e+002,-1.073120e+000
7.201896e+002,2.221069e-001
7.211539e+002,7.116699e-001
7.221181e+002,-9.155884e-001
7.230823e+002,-3.738953e+000
7.240466e+002,-5.360352e+000
7.250108e+002,-5.521729e+000
7.259750e+002,-4.521057e+000
7.269393e+002,-2.831177e+000
7.279035e+002,-1.215332e+000
7.288677e+002,-1.210999e+000
7.298320e+002,-2.924683e+000
7.307962e+002,-3.892456e+000
7.317604e+002,-3.477051e+000
7.327247e+002,-2.279541e+000
7.336889e+002,-1.572266e+000
7.346531e+002,-2.573242e+000
7.356174e+002,-4.632202e+000
7.365816e+002,-7.483398e+000
7.375458e+002,-9.085754e+000
7.385101e+002,-7.107056e+000
7.394743e+002,-1.534241e+000
7.404385e+002,4.921692e+000
7.414028e+002,7.840515e+000
7.423670e+002,6.734436e+000
7.433312e+002,5.564270e+000
7.442955e+002,5.402527e+000
7.452597e+002,6.261292e+000
7.462239e+002,8.013123e+000
7.471882e+002,1.099390e+001
7.481524e+002,1.200903e+001
7.491166e+002,7.292358e+000
7.500809e+002,3.581299e+000
7.510451e+002,4.617981e+000
7.520093e+002,9.073608e+000
7.529736e+002,1.186639e+001
7.539378e+002,1.078229e+001
7.549020e+002,8.564209e+000
7.558663e+002,5.937988e+000
7.568306e+002,3.673340e+000
7.577948e+002,2.596069e+000
7.587590e+002,3.000977e+000
7.597233e+002,4.242676e+000
7.606875e+002,6.246277e+000
7.616517e+002,9.220581e+000
7.626160e+002,1.033997e+001
7.635802e+002,8.291809e+000
7.645444e+002,4.843262e+000
7.655087e+002,3.792236e+000
7.664729e+002,7.035217e+000
7.674371e+002,8.037170e+000
7.684014e+002,4.140015e+000
7.693656e+002,2.086792e-001
7.703298e+002,-1.726074e-001
7.712941e+002,3.253357e+000
7.722583e+002,7.139099e+000
7.732225e+002,1.010992e+001
7.741868e+002,1.130957e+001
7.751510e+002,8.479919e+000
7.761152e+002,3.350525e+000
7.770795e+002,-1.391602e-002
7.780437e+002,1.944275e+000
7.790079e+002,8.092285e+000
7.799722e+002,9.389038e+000
7.809364e+002,5.515503e+000
7.819006e+002,2.142151e+000
7.828649e+002,2.441101e+000
7.838291e+002,5.478149e+000
7.847933e+002,7.021606e+000
7.857576e+002,4.692627e+000
7.867218e+002,2.954346e+000
7.876860e+002,3.590393e+000
7.886503e+002,5.398315e+000
7.896145e+002,7.661804e+000
7.905787e+002,1.004834e+001
7.915430e+002,1.206097e+001
7.925072e+002,1.274927e+001
7.934714e+002,1.186304e+001
7.944357e+002,8.994873e+000
7.953999e+002,5.014038e+000
7.963641e+002,1.977112e+000
7.973284e+002,2.004150e+000
7.982926e+002,5.292908e+000
7.992568e+002,8.535339e+000
8.002211e+002,1.165875e+001
8.011853e+002,1.248901e+001
8.021495e+002,9.963257e+000
8.031138e+002,5.975830e+000
8.040780e+002,4.774475e+000
8.050422e+002,7.498169e+000
8.060065e+002,1.093762e+001
8.069707e+002,1.496625e+001
8.079349e+002,1.786682e+001
8.088992e+002,1.779968e+001
8.098634e+002,1.458990e+001
8.108276e+002,1.059650e+001
8.117919e+002,8.426025e+000
8.127561e+002,6.781982e+000
8.137203e+002,4.955200e+000
8.146846e+002,3.484436e+000
8.156488e+002,2.942017e+000
8.166130e+002,3.597351e+000
8.175773e+002,5.329651e+000
8.185415e+002,8.136536e+000
8.195057e+002,1.258575e+001
8.204700e+002,1.612622e+001
8.214342e+002,1.811047e+001
8.223984e+002,1.854700e+001
8.233627e+002,1.714624e+001
8.243269e+002,1.229602e+001
8.252911e+002,9.273865e+000
8.262554e+002,1.225983e+001
8.272196e+002,1.730701e+001
8.281838e+002,2.025897e+001
8.291481e+002,1.963495e+001
8.301123e+002,1.723322e+001
8.310765e+002,1.604706e+001
8.320408e+002,1.592023e+001
8.330050e+002,1.580371e+001
8.339692e+002,1.561340e+001
8.349335e+002,1.602600e+001
8.358977e+002,1.862976e+001
8.368619e+002,2.445740e+001
8.378262e+002,2.735516e+001
8.387904e+002,2.371399e+001
8.397546e+002,2.012811e+001
8.407189e+002,1.780505e+001
8.416831e+002,1.683386e+001
8.426473e+002,1.731372e+001
8.436116e+002,1.970282e+001
8.445758e+002,2.221802e+001
8.455400e+002,2.142047e+001
8.465043e+002,1.916772e+001
8.474685e+002,1.871472e+001
8.484327e+002,2.117932e+001
8.493970e+002,2.499805e+001
8.503612e+002,2.684216e+001
8.513254e+002,2.613794e+001
8.522897e+002,2.444183e+001
8.532539e+002,2.006226e+001
8.542181e+002,1.619635e+001
8.551824e+002,1.550049e+001
8.561466e+002,1.825238e+001
8.571108e+002,2.203882e+001
8.580751e+002,2.594879e+001
8.590393e+002,2.840576e+001
8.600035e+002,2.927765e+001
8.609678e+002,2.937805e+001
8.619320e+002,2.941119e+001
8.628962e+002,2.959863e+001
8.638605e+002,2.960834e+001
8.648247e+002,2.877881e+001
8.657889e+002,2.744434e+001
8.667532e+002,2.654626e+001
8.677174e+002,2.621057e+001
8.686816e+002,2.641040e+001
8.696459e+002,2.736316e+001
8.706101e+002,2.953436e+001
8.715743e+002,3.125818e+001
8.725386e+002,3.176202e+001
8.735028e+002,3.295532e+001
8.744670e+002,3.547760e+001
8.754313e+002,3.814600e+001
8.763955e+002,3.905463e+001
8.773597e+002,3.736035e+001
8.783240e+002,3.585382e+001
8.792882e+002,3.653809e+001
8.802524e+002,3.780182e+001
8.812167e+002,3.870325e+001
8.821809e+002,3.884894e+001
8.831451e+002,3.803320e+001
8.841094e+002,3.597754e+001
8.850736e+002,3.322241e+001
8.860378e+002,3.239172e+001
8.870021e+002,3.356177e+001
8.879663e+002,3.479858e+001
8.889305e+002,3.451886e+001
8.898948e+002,3.297205e+001
8.908590e+002,3.238678e+001
8.918232e+002,3.370557e+001
8.927875e+002,3.581415e+001
8.937517e+002,3.927246e+001
8.947159e+002,4.278168e+001
8.956802e+002,4.458850e+001
8.966444e+002,4.425934e+001
8.976086e+002,4.347852e+001
8.985729e+002,4.493964e+001
8.995371e+002,4.726965e+001
9.005013e+002,4.666278e+001
9.014656e+002,4.404602e+001
9.024298e+002,4.335852e+001
9.033940e+002,4.760449e+001
9.043583e+002,5.527637e+001
9.053225e+002,5.786462e+001
9.062867e+002,4.756580e+001
9.072510e+002,4.143805e+001
9.082152e+002,4.419128e+001
9.091794e+002,4.968390e+001
9.101437e+002,5.086609e+001
9.111079e+002,4.650800e+001
9.120721e+002,4.403027e+001
9.130364e+002,5.065631e+001
9.140006e+002,5.697473e+001
9.149648e+002,5.729889e+001
9.159291e+002,5.368347e+001
9.168933e+002,5.055219e+001
9.178575e+002,5.075378e+001
9.188218e+002,5.308844e+001
9.197860e+002,5.473511e+001
9.207502e+002,5.550470e+001
9.217145e+002,5.472034e+001
9.226787e+002,5.202905e+001
9.236429e+002,4.927832e+001
9.246072e+002,4.866211e+001
9.255714e+002,5.026404e+001
9.265356e+002,5.123706e+001
9.274999e+002,5.045630e+001
9.284641e+002,4.918848e+001
9.294283e+002,4.792297e+001
9.303926e+002,4.691260e+001
9.313568e+002,4.612671e+001
9.323210e+002,4.546191e+001
9.332853e+002,4.532031e+001
9.342495e+002,4.819092e+001
9.352137e+002,5.151575e+001
9.361780e+002,5.071960e+001
9.371422e+002,4.534265e+001
9.381064e+002,3.930933e+001
9.390707e+002,3.734009e+001
9.400349e+002,3.935425e+001
9.409991e+002,4.187939e+001
9.419634e+002,4.580835e+001
9.429276e+002,4.875293e+001
9.438918e+002,4.998230e+001
9.448561e+002,5.010864e+001
9.458203e+002,4.996765e+001
9.467845e+002,4.977063e+001
9.477488e+002,5.040015e+001
9.487130e+002,5.372583e+001
9.496772e+002,5.702698e+001
9.506415e+002,5.772400e+001
9.516057e+002,5.600562e+001
9.525699e+002,5.379041e+001
9.535342e+002,5.286646e+001
9.544984e+002,5.289636e+001
9.554626e+002,5.312976e+001
9.564269e+002,5.450256e+001
9.573911e+002,5.584802e+001
9.583553e+002,5.614453e+001
9.593196e+002,5.616797e+001
9.602838e+002,5.749805e+001
9.612480e+002,6.050037e+001
9.622123e+002,6.261987e+001
9.631765e+002,6.415405e+001
9.641407e+002,6.411414e+001
9.651050e+002,6.018750e+001
9.660692e+002,5.408081e+001
9.670334e+002,4.966724e+001
9.679977e+002,4.970825e+001
9.689619e+002,5.260730e+001
9.699261e+002,5.427820e+001
9.708904e+002,5.461487e+001
9.718546e+002,5.421216e+001
9.728188e+002,5.272266e+001
9.737831e+002,5.136511e+001
9.747473e+002,5.246460e+001
9.757115e+002,5.706128e+001
9.766758e+002,5.951697e+001
9.776400e+002,5.844519e+001
9.786042e+002,5.788062e+001
9.795685e+002,5.933057e+001
9.805327e+002,6.077185e+001
9.814969e+002,5.910132e+001
9.824612e+002,5.362598e+001
9.834254e+002,4.926392e+001
9.843896e+002,5.148254e+001
9.853539e+002,5.613916e+001
9.863181e+002,5.936011e+001
9.872823e+002,6.049622e+001
9.882466e+002,6.029639e+001
9.892108e+002,5.989844e+001
9.901750e+002,6.027258e+001
9.911393e+002,6.252332e+001
9.921035e+002,6.576782e+001
9.930677e+002,6.911523e+001
9.940320e+002,7.324658e+001
9.949962e+002,7.811609e+001
9.959604e+002,8.366919e+001
9.969247e+002,8.999182e+001
9.978889e+002,9.698254e+001
9.988531e+002,1.045978e+002
9.998174e+002,1.109014e+002
1.000782e+003,1.159164e+002
1.001746e+003,1.196071e+002
1.002710e+003,1.212555e+002
1.003674e+003,1.206945e+002
1.004639e+003,1.190277e+002
1.005603e+003,1.181194e+002
1.006567e+003,1.178500e+002
1.007531e+003,1.194619e+002
1.008495e+003,1.244020e+002
1.009460e+003,1.285286e+002
1.010424e+003,1.290477e+002
1.011388e+003,1.269310e+002
1.012352e+003,1.256752e+002
1.013317e+003,1.264061e+002
1.014281e+003,1.256165e+002
1.015245e+003,1.220994e+002
1.016209e+003,1.166504e+002
1.017174e+003,1.089431e+002
1.018138e+003,9.999829e+001
1.019102e+003,9.234351e+001
1.020066e+003,8.840320e+001
1.021031e+003,8.686206e+001
1.021995e+003,8.227258e+001
1.022959e+003,7.478455e+001
1.023923e+003,6.835095e+001
1.024887e+003,6.467004e+001
1.025852e+003,6.162952e+001
1.026816e+003,5.543225e+001
1.027780e+003,4.515234e+001
1.028744e+003,3.849243e+001
1.029709e+003,3.781372e+001
1.030673e+003,3.839429e+001
1.031637e+003,3.940283e+001
1.032601e+003,4.026978e+001
1.033566e+003,4.097791e+001
1.034530e+003,4.165381e+001
1.035494e+003,4.146594e+001
1.036458e+003,3.816223e+001
1.037422e+003,3.370801e+001
1.038387e+003,3.145239e+001
1.039351e+003,3.135974e+001
1.040315e+003,3.288416e+001
1.041279e+003,3.621741e+001
1.042244e+003,4.080200e+001
1.043208e+003,4.238684e+001
1.044172e+003,3.678003e+001
1.045136e+003,3.420178e+001
1.046101e+003,3.771838e+001
1.047065e+003,4.186609e+001
1.048029e+003,4.273999e+001
1.048993e+003,4.076953e+001
1.049958e+003,3.937976e+001
1.050922e+003,4.086426e+001
1.051886e+003,4.259656e+001
1.052850e+003,4.071936e+001
1.053814e+003,3.773608e+001
1.054779e+003,3.702344e+001
1.055743e+003,3.913232e+001
1.056707e+003,4.235803e+001
1.057671e+003,4.477197e+001
1.058636e+003,4.624817e+001
1.059600e+003,4.642456e+001
1.060564e+003,4.560669e+001
1.061528e+003,4.468567e+001
1.062493e+003,4.280798e+001
1.063457e+003,4.033032e+001
1.064421e+003,3.781543e+001
1.065385e+003,3.560767e+001
1.066349e+003,3.453003e+001
1.067314e+003,3.604199e+001
1.068278e+003,3.765747e+001
1.069242e+003,3.701672e+001
1.070206e+003,3.577649e+001
1.071171e+003,3.692126e+001
1.072135e+003,4.110864e+001
1.073099e+003,4.529395e+001
1.074063e+003,4.467419e+001
1.075028e+003,3.888049e+001
1.075992e+003,3.570935e+001
1.076956e+003,3.653748e+001
1.077920e+003,3.620569e+001
1.078885e+003,3.217139e+001
1.079849e+003,2.680908e+001
1.080813e+003,2.392529e+001
1.081777e+003,2.419092e+001
1.082741e+003,2.652344e+001
1.083706e+003,3.178418e+001
1.084670e+003,3.658105e+001
1.085634e+003,3.923425e+001
1.086598e+003,3.990601e+001
1.087563e+003,3.918481e+001
1.088527e+003,3.778613e+001
1.089491e+003,3.666394e+001
1.090455e+003,3.682983e+001
1.091420e+003,3.796729e+001
1.092384e+003,3.927502e+001
1.093348e+003,4.099390e+001
1.094312e+003,4.158008e+001
1.095276e+003,4.027100e+001
1.096241e+003,3.787268e+001
1.097205e+003,3.549780e+001
1.098169e+003,3.231018e+001
1.099133e+003,3.055286e+001
1.100098e+003,3.259912e+001
1.101062e+003,3.533582e+001
1.102026e+003,3.687463e+001
1.102990e+003,3.751208e+001
1.103955e+003,3.821667e+001
1.104919e+003,3.949707e+001
1.105883e+003,4.135889e+001
1.106847e+003,4.449170e+001
1.107812e+003,4.876501e+001
1.108776e+003,5.134863e+001
1.109740e+003,5.187500e+001
1.110704e+003,5.126611e+001
1.111668e+003,4.980737e+001
1.112633e+003,4.836597e+001
1.113597e+003,4.932007e+001
1.114561e+003,5.353259e+001
1.115525e+003,5.742749e+001
1.116490e+003,5.988330e+001
1.117454e+003,6.155444e+001
1.118418e+003,6.298572e+001
1.119382e+003,6.469836e+001
1.120347e+003,6.687219e+001
1.121311e+003,6.913452e+001
1.122275e+003,7.074963e+001
1.123239e+003,7.192322e+001
1.124203e+003,7.338855e+001
1.125168e+003,7.436658e+001
1.126132e+003,7.442810e+001
1.127096e+003,7.549377e+001
1.128060e+003,7.918323e+001
1.129025e+003,8.471472e+001
1.129989e+003,8.947705e+001
1.130953e+003,9.327417e+001
1.131917e+003,9.559326e+001
1.132882e+003,9.575195e+001
1.133846e+003,9.573364e+001
1.134810e+003,9.572266e+001
1.135774e+003,9.677881e+001
1.136739e+003,1.007969e+002
1.137703e+003,1.087423e+002
1.138667e+003,1.187498e+002
1.139631e+003,1.275330e+002
1.140595e+003,1.354229e+002
1.141560e+003,1.466674e+002
1.142524e+003,1.628467e+002
1.143488e+003,1.792357e+002
1.144452e+003,1.906180e+002
1.145417e+003,1.993381e+002
1.146381e+003,2.143610e+002
1.147345e+003,2.373274e+002
1.148309e+003,2.624132e+002
1.149274e+003,2.903101e+002
1.150238e+003,3.182113e+002
1.151202e+003,3.454707e+002
1.152166e+003,3.720873e+002
1.153130e+003,3.994158e+002
1.154095e+003,4.270000e+002
1.155059e+003,4.487402e+002
1.156023e+003,4.561429e+002
1.156987e+003,4.504283e+002
1.157952e+003,4.440385e+002
1.158916e+003,4.386294e+002
1.159880e+003,4.304144e+002
1.160844e+003,4.159929e+002
1.161809e+003,3.956637e+002
1.162773e+003,3.712062e+002
1.163737e+003,3.416586e+002
1.164701e+003,3.128447e+002
1.165666e+003,2.852985e+002
1.166630e+003,2.606987e+002
1.167594e+003,2.389515e+002
1.168558e+003,2.207394e+002
1.169522e+003,2.070367e+002
1.170487e+003,1.980908e+002
1.171451e+003,1.938059e+002
1.172415e+003,1.944753e+002
1.173379e+003,1.988315e+002
1.174344e+003,2.014927e+002
1.175308e+003,2.029097e+002
1.176272e+003,2.022089e+002
1.177236e+003,1.992650e+002
1.178201e+003,1.943839e+002
1.179165e+003,1.864006e+002
1.180129e+003,1.747651e+002
1.181093e+003,1.655823e+002
1.182057e+003,1.616414e+002
1.183022e+003,1.588497e+002
1.183986e+003,1.557682e+002
1.184950e+003,1.529534e+002
1.185914e+003,1.508662e+002
1.186879e+003,1.498621e+002
1.187843e+003,1.504281e+002
1.188807e+003,1.528142e+002
1.189771e+003,1.560519e+002
1.190736e+003,1.579974e+002
1.191700e+003,1.584623e+002
1.192664e+003,1.586553e+002
1.193628e+003,1.588944e+002
1.194593e+003,1.593887e+002
1.195557e+003,1.608905e+002
1.196521e+003,1.625889e+002
1.197485e+003,1.620471e+002
1.198449e+003,1.591063e+002
1.199414e+003,1.535927e+002
1.200378e+003,1.423046e+002
1.201342e+003,1.313784e+002
1.202306e+003,1.247881e+002
1.203271e+003,1.213217e+002
1.204235e+003,1.183502e+002
1.205199e+003,1.145052e+002
1.206163e+003,1.095620e+002
1.207128e+003,1.026925e+002
1.208092e+003,9.376404e+001
1.209056e+003,8.881091e+001
1.210020e+003,9.133850e+001
1.210984e+003,9.040112e+001
1.211949e+003,7.944958e+001
1.212913e+003,6.521545e+001
1.213877e+003,5.672217e+001
1.214841e+003,5.466565e+001
1.215806e+003,5.362573e+001
1.216770e+003,5.186194e+001
1.217734e+003,4.982300e+001
1.218698e+003,4.714575e+001
1.219663e+003,4.430969e+001
1.220627e+003,4.241467e+001
1.221591e+003,4.136914e+001
1.222555e+003,3.961829e+001
1.223520e+003,3.576770e+001
1.224484e+003,3.072595e+001
1.225448e+003,2.766479e+001
1.226412e+003,2.736816e+001
1.227376e+003,2.722168e+001
1.228341e+003,2.688574e+001
1.229305e+003,2.665259e+001
1.230269e+003,2.713831e+001
1.231233e+003,2.764282e+001
1.232198e+003,2.655786e+001
1.233162e+003,2.361157e+001
1.234126e+003,2.177161e+001
1.235090e+003,2.384290e+001
1.236055e+003,2.660144e+001
1.237019e+003,2.609888e+001
1.237983e+003,2.334851e+001
1.238947e+003,2.193530e+001
1.239911e+003,2.362256e+001
1.240876e+003,2.649988e+001
1.241840e+003,2.730408e+001
1.242804e+003,2.588757e+001
1.243768e+003,2.575696e+001
1.244733e+003,2.871448e+001
1.245697e+003,3.062854e+001
1.246661e+003,2.969873e+001
1.247625e+003,2.787012e+001
1.248590e+003,2.621619e+001
1.249554e+003,2.573474e+001
1.250518e+003,2.817883e+001
1.251482e+003,3.430322e+001
1.252447e+003,4.024219e+001
1.253411e+003,4.172168e+001
1.254375e+003,4.034387e+001
1.255339e+003,3.831873e+001
1.256303e+003,3.617053e+001
1.257268e+003,3.611768e+001
1.258232e+003,3.930920e+001
1.259196e+003,4.406177e+001
1.260160e+003,4.804810e+001
1.261125e+003,5.169385e+001
1.262089e+003,5.510645e+001
1.263053e+003,5.683813e+001
1.264017e+003,5.900146e+001
1.264982e+003,6.392920e+001
1.265946e+003,6.861719e+001
1.266910e+003,6.978723e+001
1.267874e+003,6.777783e+001
1.268839e+003,6.557324e+001
1.269803e+003,6.518994e+001
1.270767e+003,6.541199e+001
1.271731e+003,6.393970e+001
1.272695e+003,6.102405e+001
1.273660e+003,5.796814e+001
1.274624e+003,5.374512e+001
1.275588e+003,4.968262e+001
1.276552e+003,4.777112e+001
1.277517e+003,4.697888e+001
1.278481e+003,4.404504e+001
1.279445e+003,3.831335e+001
1.280409e+003,3.477478e+001
1.281374e+003,3.757361e+001
1.282338e+003,3.965576e+001
1.283302e+003,3.538318e+001
1.284266e+003,2.952234e+001
1.285230e+003,2.838745e+001
1.286195e+003,3.195496e+001
1.287159e+003,3.481860e+001
1.288123e+003,3.276062e+001
1.289087e+003,2.809094e+001
1.290052e+003,2.688782e+001
1.291016e+003,3.037573e+001
1.291980e+003,3.122192e+001
1.292944e+003,2.606348e+001
1.293909e+003,2.181287e+001
1.294873e+003,2.312964e+001
1.295837e+003,2.665942e+001
1.296801e+003,2.686475e+001
1.297766e+003,2.332776e+001
1.298730e+003,2.129602e+001
1.299694e+003,2.416748e+001
1.300658e+003,2.742395e+001
1.301622e+003,2.611328e+001
1.302587e+003,2.235657e+001
1.303551e+003,1.845203e+001
1.304515e+003,1.526807e+001
1.305479e+003,1.425122e+001
1.306444e+003,1.648120e+001
1.307408e+003,2.097339e+001
1.308372e+003,2.554907e+001
1.309336e+003,3.097424e+001
1.310301e+003,3.385559e+001
1.311265e+003,3.381580e+001
1.312229e+003,3.221338e+001
1.313193e+003,2.724438e+001
1.314157e+003,2.206494e+001
1.315122e+003,2.069849e+001
1.316086e+003,2.261145e+001
1.317050e+003,2.321960e+001
1.318014e+003,1.963696e+001
1.318979e+003,1.470190e+001
1.319943e+003,1.281506e+001
1.320907e+003,1.418555e+001
1.321871e+003,1.759985e+001
1.322836e+003,2.312610e+001
1.323800e+003,2.759399e+001
1.324764e+003,2.925891e+001
1.325728e+003,2.909241e+001
1.326693e+003,2.824133e+001
1.327657e+003,2.641919e+001
1.328621e+003,2.423596e+001
1.329585e+003,2.219592e+001
1.330549e+003,2.258459e+001
1.331514e+003,2.658997e+001
1.332478e+003,3.073633e+001
1.333442e+003,3.234241e+001
1.334406e+003,3.157886e+001
1.335371e+003,2.944299e+001
1.336335e+003,2.663611e+001
1.337299e+003,2.431165e+001
1.338263e+003,2.462781e+001
1.339228e+003,2.806812e+001
1.340192e+003,2.982190e+001
1.341156e+003,2.860449e+001
1.342120e+003,2.767346e+001
1.343084e+003,2.714465e+001
1.344049e+003,2.633533e+001
1.345013e+003,2.517688e+001
1.345977e+003,2.402991e+001
1.346941e+003,2.302014e+001
1.347906e+003,2.209448e+001
1.348870e+003,2.196924e+001
1.349834e+003,2.363684e+001
1.350798e+003,2.582227e+001
1.351763e+003,2.687134e+001
1.352727e+003,2.696167e+001
1.353691e+003,2.629272e+001
1.354655e+003,2.494373e+001
1.355620e+003,2.311279e+001
1.356584e+003,2.046948e+001
1.357548e+003,1.750391e+001
1.358512e+003,1.709680e+001
1.359476e+003,1.925183e+001
1.360441e+003,2.222559e+001
1.361405e+003,2.965320e+001
1.362369e+003,3.404004e+001
1.363333e+003,2.855762e+001
1.364298e+003,1.924487e+001
1.365262e+003,1.515698e+001
1.366226e+003,1.795544e+001
1.367190e+003,2.198242e+001
1.368155e+003,2.220435e+001
1.369119e+003,1.967346e+001
1.370083e+003,1.767456e+001
1.371047e+003,1.628430e+001
1.372011e+003,1.683386e+001
1.372976e+003,1.958777e+001
1.373940e+003,2.255554e+001
1.374904e+003,2.647986e+001
1.375868e+003,2.978809e+001
1.376833e+003,2.956018e+001
1.377797e+003,2.597998e+001
1.378761e+003,2.261096e+001
1.379725e+003,2.079114e+001
1.380690e+003,2.067883e+001
1.381654e+003,2.412549e+001
1.382618e+003,2.882471e+001
1.383582e+003,3.124719e+001
1.384547e+003,3.144714e+001
1.385511e+003,3.172205e+001
1.386475e+003,3.309070e+001
1.387439e+003,3.450159e+001
1.388403e+003,3.449561e+001
1.389368e+003,3.301489e+001
1.390332e+003,3.100928e+001
1.391296e+003,2.796606e+001
1.392260e+003,2.634241e+001
1.393225e+003,2.764832e+001
1.394189e+003,2.903137e+001
1.395153e+003,2.809692e+001
1.396117e+003,2.654480e+001
1.397082e+003,2.783398e+001
1.398046e+003,3.243372e+001
1.399010e+003,3.705457e+001
1.399974e+003,3.834058e+001
1.400938e+003,3.623853e+001
1.401903e+003,3.212219e+001
1.402867e+003,2.623706e+001
1.403831e+003,2.515784e+001
1.404795e+003,3.191052e+001
1.405760e+003,3.766846e+001
1.406724e+003,3.831580e+001
1.407688e+003,3.519153e+001
1.408652e+003,2.939331e+001
1.409617e+003,2.278699e+001
1.410581e+003,2.053162e+001
1.411545e+003,2.542639e+001
1.412509e+003,3.077344e+001
1.413474e+003,2.822058e+001
1.414438e+003,2.222449e+001
1.415402e+003,2.235083e+001
1.416366e+003,2.807886e+001
1.417330e+003,3.179541e+001
1.418295e+003,3.016235e+001
1.419259e+003,2.709253e+001
1.420223e+003,2.634875e+001
1.421187e+003,2.745789e+001
1.422152e+003,3.040552e+001
1.423116e+003,3.731970e+001
1.424080e+003,4.121777e+001
1.425044e+003,3.507068e+001
1.426009e+003,2.984570e+001
1.426973e+003,3.122925e+001
1.427937e+003,3.530444e+001
1.428901e+003,3.746436e+001
1.429865e+003,3.749915e+001
1.430830e+003,3.810596e+001
1.431794e+003,4.077808e+001
1.432758e+003,4.381079e+001
1.433722e+003,4.449170e+001
1.434687e+003,4.343213e+001
1.435651e+003,4.377075e+001
1.436615e+003,4.436865e+001
1.437579e+003,4.399292e+001
1.438544e+003,4.139954e+001
1.439508e+003,3.951025e+001
1.440472e+003,4.170740e+001
1.441436e+003,4.628516e+001
1.442401e+003,4.972778e+001
1.443365e+003,5.083521e+001
1.444329e+003,4.936804e+001
1.445293e+003,4.460095e+001
1.446257e+003,3.945227e+001
1.447222e+003,3.982703e+001
1.448186e+003,4.458655e+001
1.449150e+003,4.848181e+001
1.450114e+003,5.140930e+001
1.451079e+003,5.131091e+001
1.452043e+003,4.493665e+001
1.453007e+003,3.728345e+001
1.453971e+003,3.508533e+001
1.454936e+003,3.758984e+001
1.455900e+003,4.050635e+001
1.456864e+003,4.368542e+001
1.457828e+003,4.577380e+001
1.458792e+003,4.418323e+001
1.459757e+003,4.200635e+001
1.460721e+003,4.247961e+001
1.461685e+003,4.415503e+001
1.462649e+003,4.359998e+001
1.463614e+003,4.040540e+001
1.464578e+003,3.802612e+001
1.465542e+003,3.950037e+001
1.466506e+003,4.319104e+001
1.467471e+003,4.491638e+001
1.468435e+003,4.490320e+001
1.469399e+003,4.534973e+001
1.470363e+003,4.500012e+001
1.471328e+003,4.564807e+001
1.472292e+003,4.948596e+001
1.473256e+003,5.155933e+001
1.474220e+003,4.731421e+001
1.475184e+003,4.022815e+001
1.476149e+003,3.623254e+001
1.477113e+003,3.698816e+001
1.478077e+003,4.046228e+001
1.479041e+003,4.533984e+001
1.480006e+003,5.077319e+001
1.480970e+003,5.235120e+001
1.481934e+003,4.784680e+001
1.482898e+003,4.621875e+001
1.483863e+003,4.913184e+001
1.484827e+003,5.195313e+001
1.485791e+003,5.310913e+001
1.486755e+003,5.500085e+001
1.487719e+003,6.061877e+001
1.488684e+003,6.809119e+001
1.489648e+003,7.265723e+001
1.490612e+003,7.314783e+001
1.491576e+003,7.286060e+001
1.492541e+003,7.393872e+001
1.493505e+003,7.609180e+001
1.494469e+003,7.890051e+001
1.495433e+003,8.174426e+001
1.496398e+003,8.512708e+001
1.497362e+003,9.000342e+001
1.498326e+003,9.586462e+001
1.499290e+003,1.022205e+002
1.500255e+003,1.093470e+002
1.501219e+003,1.173188e+002
1.502183e+003,1.260300e+002
1.503147e+003,1.355538e+002
1.504111e+003,1.456110e+002
1.505076e+003,1.580289e+002
1.506040e+003,1.747366e+002
1.507004e+003,1.937725e+002
1.507968e+003,2.128730e+002
1.508933e+003,2.326526e+002
1.509897e+003,2.545380e+002
1.510861e+003,2.796401e+002
1.511825e+003,3.076227e+002
1.512790e+003,3.371686e+002
1.513754e+003,3.692736e+002
1.514718e+003,4.084225e+002
1.515682e+003,4.539856e+002
1.516646e+003,4.947742e+002
1.517611e+003,5.303237e+002
1.518575e+003,5.619579e+002
1.519539e+003,5.906229e+002
1.520503e+003,6.161322e+002
1.521468e+003,6.398842e+002
1.522432e+003,6.589548e+002
1.523396e+003,6.698733e+002
1.524360e+003,6.718947e+002
1.525325e+003,6.662800e+002
1.526289e+003,6.540262e+002
1.527253e+003,6.354015e+002
1.528217e+003,6.101118e+002
1.529182e+003,5.785847e+002
1.530146e+003,5.460581e+002
1.531110e+003,5.145490e+002
1.532074e+003,4.768254e+002
1.533039e+003,4.279053e+002
1.534003e+003,3.760233e+002
1.534967e+003,3.221735e+002
1.535931e+003,2.715355e+002
1.536896e+003,2.289344e+002
1.537860e+003,1.947152e+002
1.538824e+003,1.664205e+002
1.539788e+003,1.424043e+002
1.540752e+003,1.228352e+002
1.541717e+003,1.084965e+002
1.542681e+003,9.921448e+001
1.543645e+003,9.165015e+001
1.544609e+003,8.730823e+001
1.545573e+003,8.262891e+001
1.546538e+003,7.448083e+001
1.547502e+003,6.830334e+001
1.548466e+003,6.940186e+001
1.549430e+003,7.228870e+001
1.550395e+003,7.013098e+001
1.551359e+003,6.393494e+001
1.552323e+003,5.970227e+001
1.553287e+003,5.942407e+001
1.554252e+003,5.810583e+001
1.555216e+003,5.074927e+001
1.556180e+003,4.083093e+001
1.557144e+003,3.687439e+001
1.558109e+003,3.939209e+001
1.559073e+003,4.106799e+001
1.560037e+003,4.013293e+001
1.561001e+003,3.974951e+001
1.561966e+003,4.347583e+001
1.562930e+003,4.756055e+001
1.563894e+003,4.698767e+001
1.564858e+003,4.359216e+001
1.565823e+003,4.320117e+001
1.566787e+003,4.662878e+001
1.567751e+003,4.854370e+001
1.568715e+003,4.586255e+001
1.569679e+003,4.157373e+001
1.570644e+003,3.875757e+001
1.571608e+003,3.676709e+001
1.572572e+003,3.445679e+001
1.573536e+003,3.216003e+001
1.574500e+003,3.215320e+001
1.575465e+003,3.640405e+001
1.576429e+003,4.072815e+001
1.577393e+003,4.101575e+001
1.578357e+003,3.891309e+001
1.579322e+003,3.793823e+001
1.580286e+003,3.851196e+001
1.581250e+003,4.000793e+001
1.582214e+003,4.265222e+001
1.583179e+003,4.446826e+001
1.584143e+003,4.278748e+001
1.585107e+003,3.993030e+001
1.586071e+003,3.953186e+001
1.587036e+003,4.182446e+001
1.588000e+003,4.601099e+001
1.588964e+003,5.168933e+001
1.589928e+003,5.578882e+001
1.590893e+003,5.568457e+001
1.591857e+003,5.365491e+001
1.592821e+003,5.311987e+001
1.593785e+003,5.389417e+001
1.594750e+003,5.407092e+001
1.595714e+003,5.296301e+001
1.596678e+003,5.243298e+001
1.597642e+003,5.409241e+001
1.598606e+003,5.541150e+001
1.599571e+003,5.327515e+001
1.600535e+003,5.064417e+001
1.601499e+003,5.206616e+001
1.602463e+003,5.671826e+001
1.603427e+003,5.950464e+001
1.604392e+003,5.830212e+001
1.605356e+003,5.565503e+001
1.606320e+003,5.378357e+001
1.607284e+003,5.263635e+001
1.608249e+003,5.214795e+001
1.609213e+003,5.235791e+001
1.610177e+003,5.205212e+001
1.611141e+003,5.084717e+001
1.612106e+003,4.962341e+001
1.613070e+003,4.835437e+001
1.614034e+003,4.752930e+001
1.614998e+003,4.828223e+001
1.615963e+003,4.947949e+001
1.616927e+003,4.885327e+001
1.617891e+003,4.611450e+001
1.618855e+003,4.293396e+001
1.619820e+003,4.007031e+001
1.620784e+003,3.657971e+001
1.621748e+003,3.111633e+001
1.622712e+003,2.529333e+001
1.623677e+003,2.497412e+001
1.624641e+003,3.146240e+001
1.625605e+003,3.645361e+001
1.626569e+003,3.677881e+001
1.627533e+003,3.461987e+001
1.628498e+003,2.978345e+001
1.629462e+003,2.553015e+001
1.630426e+003,2.448950e+001
1.631390e+003,2.598352e+001
1.632354e+003,2.910913e+001
1.633319e+003,3.313379e+001
1.634283e+003,3.504321e+001
1.635247e+003,3.191724e+001
1.636211e+003,2.718787e+001
1.637176e+003,2.815564e+001
1.638140e+003,3.455493e+001
1.639104e+003,3.837805e+001
1.640068e+003,3.916248e+001
1.641033e+003,3.694434e+001
1.641997e+003,2.791284e+001
1.642961e+003,2.196887e+001
1.643925e+003,2.727649e+001
1.644890e+003,3.495447e+001
1.645854e+003,3.560852e+001
1.646818e+003,3.090369e+001
1.647782e+003,2.698340e+001
1.648747e+003,2.586902e+001
1.649711e+003,2.683276e+001
1.650675e+003,2.992139e+001
1.651639e+003,3.442053e+001
1.652604e+003,3.843689e+001
1.653568e+003,4.162708e+001
1.654532e+003,4.297485e+001
1.655496e+003,4.218970e+001
1.656460e+003,4.040796e+001
1.657425e+003,3.769263e+001
1.658389e+003,3.485120e+001
1.659353e+003,3.174597e+001
1.660317e+003,2.906128e+001
1.661281e+003,2.740881e+001
1.662246e+003,2.663770e+001
1.663210e+003,2.680920e+001
1.664174e+003,2.807959e+001
1.665138e+003,2.926648e+001
1.666103e+003,2.932410e+001
1.667067e+003,2.795801e+001
1.668031e+003,2.415137e+001
1.668995e+003,1.836865e+001
1.669960e+003,1.520679e+001
1.670924e+003,1.536353e+001
1.671888e+003,1.753796e+001
1.672852e+003,2.347705e+001
1.673817e+003,2.756787e+001
1.674781e+003,2.469373e+001
1.675745e+003,1.933545e+001
1.676709e+003,1.554419e+001
1.677674e+003,1.369922e+001
1.678638e+003,1.408179e+001
1.679602e+003,1.675183e+001
1.680566e+003,1.850220e+001
1.681531e+003,1.643567e+001
1.682495e+003,1.332642e+001
1.683459e+003,1.400208e+001
1.684423e+003,1.729749e+001
1.685387e+003,1.729004e+001
1.686352e+003,1.304834e+001
1.687316e+003,1.073865e+001
1.688280e+003,1.328784e+001
1.689244e+003,1.634448e+001
1.690208e+003,1.731836e+001
1.691173e+003,1.631445e+001
1.692137e+003,1.211572e+001
1.693101e+003,6.629272e+000
1.694065e+003,4.484741e+000
1.695030e+003,6.348511e+000
1.695994e+003,9.760376e+000
1.696958e+003,1.487158e+001
1.697922e+003,1.934766e+001
1.698887e+003,1.938647e+001
1.699851e+003,1.671558e+001
1.700815e+003,1.659851e+001
1.701779e+003,1.911877e+001
1.702744e+003,1.936304e+001
1.703708e+003,1.568958e+001
1.704672e+003,1.263684e+001
1.705636e+003,1.298328e+001
1.706601e+003,1.463220e+001
1.707565e+003,1.582544e+001
1.708529e+003,1.689246e+001
1.709493e+003,1.777673e+001
1.710458e+003,1.856470e+001
1.711422e+003,1.735535e+001
1.712386e+003,1.119849e+001
1.713350e+003,6.306885e+000
1.714314e+003,9.078247e+000
1.715279e+003,1.445825e+001
1.716243e+003,1.374695e+001
1.717207e+003,7.800171e+000
1.718171e+003,3.502075e+000
1.719135e+003,2.879395e+000
1.720100e+003,4.820313e+000
1.721064e+003,9.182983e+000
1.722028e+003,1.314270e+001
1.722992e+003,1.267383e+001
1.723957e+003,9.257202e+000
1.724921e+003,8.190430e+000
1.725885e+003,9.026978e+000
1.726849e+003,8.393921e+000
1.727814e+003,5.463379e+000
1.728778e+003,3.559326e+000
1.729742e+003,3.919312e+000
1.730706e+003,5.681396e+000
1.731671e+003,8.033203e+000
1.732635e+003,1.000012e+001
1.733599e+003,1.121301e+001
1.734563e+003,1.212097e+001
1.735528e+003,1.302832e+001
1.736492e+003,1.383167e+001
1.737456e+003,1.349719e+001
1.738420e+003,1.056628e+001
1.739385e+003,5.685425e+000
1.740349e+003,3.060181e+000
1.741313e+003,3.731445e+000
1.742277e+003,3.615479e+000
1.743241e+003,3.110352e+000
1.744206e+003,2.235840e+000
1.745170e+003,-1.377319e+000
1.746134e+003,-3.247681e+000
1.747098e+003,1.265381e+000
1.748063e+003,7.132446e+000
1.749027e+003,8.610596e+000
1.749991e+003,6.155151e+000
1.750955e+003,2.161987e+000
1.751919e+003,-1.935547e+000
1.752884e+003,-3.589355e+000
1.753848e+003,-6.069336e-001
1.754812e+003,4.009033e+000
1.755776e+003,4.407227e+000
1.756741e+003,1.264526e+000
1.757705e+003,1.530762e-001
1.758669e+003,1.531372e+000
1.759633e+003,2.180420e+000
1.760598e+003,7.791748e-001
1.761562e+003,-8.372803e-001
1.762526e+003,-2.257813e+000
1.763490e+003,-2.499146e+000
1.764455e+003,5.716553e-001
1.765419e+003,4.699463e+000
1.766383e+003,5.226196e+000
1.767347e+003,2.309937e+000
1.768312e+003,1.412109e+000
1.769276e+003,5.008057e+000
1.770240e+003,8.332275e+000
1.771204e+003,6.962036e+000
1.772168e+003,3.074097e+000
1.773133e+003,-6.933594e-002
1.774097e+003,-2.445801e+000
1.775061e+003,-3.707031e+000
1.776025e+003,-4.544067e+000
1.776990e+003,-2.892212e+000
1.777954e+003,4.255981e+000
1.778918e+003,1.087451e+001
1.779882e+003,1.139551e+001
1.780846e+003,8.813721e+000
1.781811e+003,7.846069e+000
1.782775e+003,8.036499e+000
1.783739e+003,7.115845e+000
1.784703e+003,4.818604e+000
1.785668e+003,3.190796e+000
1.786632e+003,2.203735e+000
1.787596e+003,1.858643e+000
1.788560e+003,4.203613e+000
1.789525e+003,7.287476e+000
1.790489e+003,7.071289e+000
1.791453e+003,4.158569e+000
1.792417e+003,1.668823e+000
1.793382e+003,4.375000e-001
1.794346e+003,6.018066e-001
1.795310e+003,2.288574e+000
1.796274e+003,3.477661e+000
1.797239e+003,1.982788e+000
1.798203e+003,-4.364014e-001
1.799167e+003,-2.487793e-001
1.800131e+003,1.930908e+000
1.801095e+003,2.471069e+000
1.802060e+003,1.971558e+000
1.803024e+003,1.339966e+000
1.803988e+003,-1.333496e+000
1.804952e+003,-2.508423e+000
1.805917e+003,1.333252e+000
1.806881e+003,5.873657e+000
1.807845e+003,7.342163e+000
1.808809e+003,6.153687e+000
1.809773e+003,3.040405e+000
1.810738e+003,-9.447021e-001
1.811702e+003,-2.720459e+000
1.812666e+003,-4.975586e-001
1.813630e+003,2.560791e+000
1.814595e+003,1.927002e+000
1.815559e+003,-1.218018e+000
1.816523e+003,-6.751709e-001
1.817487e+003,4.305420e+000
1.818452e+003,5.782227e+000
1.819416e+003,2.442993e+000
1.820380e+003,4.760742e-003
1.821344e+003,-6.152344e-002
1.822309e+003,3.088379e-002
1.823273e+003,-1.028809e+000
1.824237e+003,-1.723755e+000
1.825201e+003,-6.115723e-001
1.826166e+003,1.617188e+000
1.827130e+003,3.605347e+000
1.828094e+003,4.872437e+000
1.829058e+003,4.985596e+000
1.830022e+003,4.048340e+000
1.830987e+003,2.242310e+000
1.831951e+003,-1.781250e+000
1.832915e+003,-5.479126e+000
1.833879e+003,-4.006714e+000
1.834844e+003,7.858887e-001
1.835808e+003,2.882690e+000
1.836772e+003,1.556396e+000
1.837736e+003,-5.368652e-001
1.838700e+003,-2.584473e+000
1.839665e+003,-3.869751e+000
1.840629e+003,-3.274292e+000
1.841593e+003,-1.697876e+000
1.842557e+003,-1.564087e+000
1.843522e+003,-2.878174e+000
1.844486e+003,-3.510132e+000
1.845450e+003,-3.205933e+000
1.846414e+003,-1.132202e+000
1.847379e+003,4.324097e+000
1.848343e+003,7.339233e+000
1.849307e+003,5.431763e+000
1.850271e+003,2.021118e+000
1.851236e+003,-8.582764e-001
1.852200e+003,-2.807129e+000
1.853164e+003,-4.423584e+000
1.854128e+003,-6.052246e+000
1.855093e+003,-6.729492e+000
1.856057e+003,-5.818237e+000
1.857021e+003,-5.104980e+000
1.857985e+003,-6.504883e+000
1.858949e+003,-8.848022e+000
1.859914e+003,-1.015344e+001
1.860878e+003,-1.026917e+001
1.861842e+003,-9.040771e+000
1.862806e+003,-6.639526e+000
1.863771e+003,-4.156616e+000
1.864735e+003,-1.528564e+000
1.865699e+003,-1.460205e+000
1.866663e+003,-6.503906e+000
1.867627e+003,-1.068542e+001
1.868592e+003,-7.544800e+000
1.869556e+003,-1.930176e+000
1.870520e+003,-3.060913e+000
1.871484e+003,-9.680176e+000
1.872449e+003,-1.265002e+001
1.873413e+003,-8.591675e+000
1.874377e+003,-3.965576e+000
1.875341e+003,-2.214966e+000
1.876306e+003,-1.122314e+000
1.877270e+003,5.932617e-002
1.878234e+003,1.159790e+000
1.879198e+003,2.839722e+000
1.880163e+003,4.309937e+000
1.881127e+003,3.533569e+000
1.882091e+003,1.128052e+000
1.883055e+003,6.811523e-001
1.884020e+003,3.273438e+000
1.884984e+003,4.535767e+000
1.885948e+003,3.995361e-001
1.886912e+003,-5.744995e+000
1.887876e+003,-6.747925e+000
1.888841e+003,-3.080811e+000
1.889805e+003,-1.366943e+000
1.890769e+003,-1.907715e+000
1.891733e+003,-2.899048e+000
1.892698e+003,-5.137695e+000
1.893662e+003,-6.610229e+000
1.894626e+003,-6.262695e+000
1.895590e+003,-4.993530e+000
1.896554e+003,-1.737183e+000
1.897519e+003,1.498169e+000
1.898483e+003,7.866211e-001
1.899447e+003,-2.984985e+000
1.900411e+003,-4.602173e+000
1.901376e+003,-2.883911e+000
1.902340e+003,-1.382446e+000
1.903304e+003,-1.738647e+000
1.904268e+003,-2.376343e+000
1.905233e+003,-1.470215e+000
1.906197e+003,-7.473145e-001
1.907161e+003,-2.815186e+000
1.908125e+003,-5.722778e+000
1.909090e+003,-6.142700e+000
1.910054e+003,-4.507813e+000
1.911018e+003,-3.136475e+000
1.911982e+003,-2.562744e+000
1.912947e+003,-1.848999e+000
1.913911e+003,-4.676514e-001
1.914875e+003,1.113403e+000
1.915839e+003,1.982056e+000
1.916803e+003,1.792969e+000
1.917768e+003,1.087402e+000
1.918732e+003,2.668457e-001
1.919696e+003,-1.309692e+000
1.920660e+003,-4.563232e+000
1.921625e+003,-4.842285e+000
1.922589e+003,-3.424072e-001
1.923553e+003,5.147705e+000
1.924517e+003,1.213379e+001
1.925481e+003,1.714758e+001
1.926446e+003,1.589990e+001
1.927410e+003,1.101038e+001
1.928374e+003,7.029907e+000
1.929338e+003,4.075195e+000
1.930303e+003,1.997070e+000
1.931267e+003,1.972168e+000
1.932231e+003,1.849854e+000
1.933195e+003,-1.511475e+000
1.934160e+003,-4.042969e+000
1.935124e+003,-7.836914e-001
1.936088e+003,3.039185e+000
1.937052e+003,2.713623e-001
1.938017e+003,-5.978516e+000
1.938981e+003,-8.359497e+000
1.939945e+003,-6.236450e+000
1.940909e+003,-3.807251e+000
1.941874e+003,-3.240356e+000
1.942838e+003,-3.822876e+000
1.943802e+003,-4.430908e+000
1.944766e+003,-4.666016e+000
1.945730e+003,-5.094849e+000
1.946695e+003,-5.902832e+000
1.947659e+003,-4.923706e+000
1.948623e+003,-2.018433e+000
1.949587e+003,-8.482666e-001
1.950552e+003,-2.103271e+000
1.951516e+003,-2.364502e+000
1.952480e+003,2.758789e-001
1.953444e+003,2.312500e+000
1.954408e+003,-2.315674e-001
1.955373e+003,-3.910278e+000
1.956337e+003,-1.574951e+000
1.957301e+003,4.803223e+000
1.958265e+003,4.956299e+000
1.959230e+003,-2.484375e+000
1.960194e+003,-5.448486e+000
1.961158e+003,8.460693e-001
1.962122e+003,4.974243e+000
1.963087e+003,3.460693e+000
1.964051e+003,3.845215e-002
1.965015e+003,-4.740601e+000
1.965979e+003,-7.910767e+000
1.966944e+003,-6.251221e+000
1.967908e+003,-2.138428e+000
1.968872e+003,8.852539e-001
1.969836e+003,2.066895e+000
1.970801e+003,1.583740e+000
1.971765e+003,-2.668457e-001
1.972729e+003,-1.888794e+000
1.973693e+003,-2.169556e+000
1.974657e+003,-1.017212e+000
1.975622e+003,2.917725e+000
1.976586e+003,7.570313e+000
1.977550e+003,7.137085e+000
1.978514e+003,2.768677e+000
1.979479e+003,4.715576e-001
1.980443e+003,9.345703e-001
1.981407e+003,1.772339e+000
1.982371e+003,2.385254e+000
1.983335e+003,2.135254e+000
1.984300e+003,-6.896973e-002
1.985264e+003,-2.455444e+000
1.986228e+003,-1.675293e+000
1.987192e+003,1.445923e+000
1.988157e+003,2.637939e+000
1.989121e+003,1.665527e+000
1.990085e+003,1.161987e+000
1.991049e+003,1.741455e+000
1.992014e+003,2.242798e+000
1.992978e+003,2.254150e+000
1.993942e+003,1.876465e+000
1.994906e+003,1.153931e+000
1.995871e+003,1.066895e-001
1.996835e+003,-1.790283e+000
1.997799e+003,-3.300415e+000
1.998763e+003,-2.699097e+000
1.999728e+003,-5.963135e-001
