5.003444e+002,3.299704e+001
5.013087e+002,3.400497e+001
5.022729e+002,3.152490e+001
5.032371e+002,2.724539e+001
5.042014e+002,2.652002e+001
5.051656e+002,2.882480e+001
5.061298e+002,3.148892e+001
5.070941e+002,3.203699e+001
5.080583e+002,2.986603e+001
5.090225e+002,2.825760e+001
5.099868e+002,2.781253e+001
5.109510e+002,2.712097e+001
5.119152e+002,2.476880e+001
5.128795e+002,2.051254e+001
5.138437e+002,1.845157e+001
5.148079e+002,2.280411e+001
5.157722e+002,2.712924e+001
5.167364e+002,2.849271e+001
5.177006e+002,2.666174e+001
5.186649e+002,2.381818e+001
5.196291e+002,2.235880e+001
5.205933e+002,2.192731e+001
5.215576e+002,2.219186e+001
5.225218e+002,2.280710e+001
5.234860e+002,2.314188e+001
5.244503e+002,2.221280e+001
5.254145e+002,1.970990e+001
5.263787e+002,1.829190e+001
5.273430e+002,1.831561e+001
5.283072e+002,1.916507e+001
5.292714e+002,2.014746e+001
5.302357e+002,2.164627e+001
5.311999e+002,2.160904e+001
5.321641e+002,1.933237e+001
5.331284e+002,1.654739e+001
5.340926e+002,1.421909e+001
5.350568e+002,1.255896e+001
5.360211e+002,1.181378e+001
5.369853e+002,1.332599e+001
5.379495e+002,1.546442e+001
5.389138e+002,1.664099e+001
5.398780e+002,1.631311e+001
5.408422e+002,1.530762e+001
5.418065e+002,1.641907e+001
5.427707e+002,1.922891e+001
5.437349e+002,2.051245e+001
5.446992e+002,1.906659e+001
5.456634e+002,1.568692e+001
5.466276e+002,1.323666e+001
5.475919e+002,1.250378e+001
5.485561e+002,1.207059e+001
5.495203e+002,1.216156e+001
5.504846e+002,1.227863e+001
5.514488e+002,1.162411e+001
5.524130e+002,9.426788e+000
5.533773e+002,7.917908e+000
5.543415e+002,8.480103e+000
5.553057e+002,9.992218e+000
5.562700e+002,1.147171e+001
5.572342e+002,1.228091e+001
5.581984e+002,1.235815e+001
5.591627e+002,1.136951e+001
5.601269e+002,9.837830e+000
5.610911e+002,8.614807e+000
5.620554e+002,8.103241e+000
5.630196e+002,8.134644e+000
5.639838e+002,7.815613e+000
5.649481e+002,6.511810e+000
5.659123e+002,5.790283e+000
5.668765e+002,6.736542e+000
5.678408e+002,8.736542e+000
5.688050e+002,9.673187e+000
5.697692e+002,7.721924e+000
5.707335e+002,5.864166e+000
5.716977e+002,5.114166e+000
5.726619e+002,5.101410e+000
5.736262e+002,5.269775e+000
5.745904e+002,5.278046e+000
5.755546e+002,5.385132e+000
5.765189e+002,5.941650e+000
5.774831e+002,6.598358e+000
5.784473e+002,6.946930e+000
5.794116e+002,6.784729e+000
5.803758e+002,6.279602e+000
5.813400e+002,6.014648e+000
5.823043e+002,5.615143e+000
5.832685e+002,5.559357e+000
5.842327e+002,6.923340e+000
5.851970e+002,9.376221e+000
5.861612e+002,9.932251e+000
5.871254e+002,4.530548e+000
5.880897e+002,9.999084e-001
5.890539e+002,1.903625e+000
5.900181e+002,5.371643e+000
5.909824e+002,8.280426e+000
5.919466e+002,8.805237e+000
5.929108e+002,7.994110e+000
5.938751e+002,6.656647e+000
5.948393e+002,5.243896e+000
5.958035e+002,4.653839e+000
5.967678e+002,5.540894e+000
5.977320e+002,7.634033e+000
5.986962e+002,8.178375e+000
5.996605e+002,7.093018e+000
6.006247e+002,5.525818e+000
6.015889e+002,3.470123e+000
6.025532e+002,1.078766e+000
6.035174e+002,1.873474e-001
6.044816e+002,3.387146e+000
6.054459e+002,5.390106e+000
6.064101e+002,4.772156e+000
6.073743e+002,2.526978e+000
6.083386e+002,4.000549e-001
6.093028e+002,-1.063232e+000
6.102670e+002,-1.239685e+000
6.112313e+002,5.286865e-001
6.121955e+002,3.334747e+000
6.131597e+002,6.361877e+000
6.141240e+002,8.990784e+000
6.150882e+002,1.083652e+001
6.160524e+002,9.567932e+000
6.170167e+002,5.851135e+000
6.179809e+002,2.644714e+000
6.189451e+002,1.189117e+000
6.199094e+002,1.232758e+000
6.208736e+002,1.478485e+000
6.218378e+002,3.159760e+000
6.228021e+002,3.911469e+000
6.237663e+002,2.456696e+000
6.247305e+002,2.750854e-001
6.256948e+002,-4.229736e-002
6.266590e+002,3.363251e+000
6.276232e+002,6.281982e+000
6.285875e+002,6.366119e+000
6.295517e+002,4.923859e+000
6.305159e+002,2.942780e+000
6.314802e+002,9.976501e-001
6.324444e+002,-7.980652e-001
6.334086e+002,-1.940643e+000
6.343729e+002,-2.389740e+000
6.353371e+002,-1.814972e+000
6.363013e+002,1.047974e-001
6.372656e+002,2.708405e+000
6.382298e+002,3.756409e+000
6.391940e+002,1.487946e+000
6.401583e+002,-3.178101e-001
6.411225e+002,-1.172638e+000
6.420867e+002,-1.411224e+000
6.430510e+002,-1.538300e+000
6.440152e+002,-1.806824e+000
6.449794e+002,-2.143402e+000
6.459437e+002,-2.828033e+000
6.469079e+002,-3.337677e+000
6.478721e+002,-2.779968e+000
6.488364e+002,-1.043701e+000
6.498006e+002,6.440125e-001
6.507648e+002,-6.238098e-001
6.517291e+002,-3.693909e+000
6.526933e+002,-5.646393e+000
6.536575e+002,-5.935333e+000
6.546218e+002,-5.057312e+000
6.555860e+002,-3.908966e+000
6.565502e+002,-2.208649e+000
6.575145e+002,-9.283752e-001
6.584787e+002,1.390991e-001
6.594429e+002,7.291870e-001
6.604072e+002,2.220764e-001
6.613714e+002,-1.660095e+000
6.623356e+002,-2.572540e+000
6.632999e+002,2.719116e-002
6.642641e+002,2.424255e+000
6.652283e+002,2.284882e+000
6.661926e+002,-6.951904e-002
6.671568e+002,-2.306671e+000
6.681210e+002,-1.465729e+000
6.690853e+002,1.135101e+000
6.700495e+002,1.952637e+000
6.710137e+002,1.009094e+000
6.719780e+002,-2.988281e-001
6.729422e+002,-4.635315e-001
6.739064e+002,8.094788e-001
6.748707e+002,1.050751e+000
6.758349e+002,-3.529053e-001
6.767991e+002,-1.821747e+000
6.777634e+002,-2.648254e+000
6.787276e+002,-2.744171e+000
6.796918e+002,-2.428436e+000
6.806561e+002,-1.655609e+000
6.816203e+002,-9.666748e-001
6.825845e+002,-5.483093e-001
6.835488e+002,-3.481140e-001
6.845130e+002,-1.888123e-001
6.854772e+002,1.202087e-001
6.864415e+002,4.239502e-001
6.874057e+002,-1.677246e-001
6.883699e+002,-1.445099e+000
6.893342e+002,-2.280518e+000
6.902984e+002,-1.921326e+000
6.912626e+002,-6.190491e-001
6.922269e+002,-4.903870e-001
6.931911e+002,-2.941254e+000
6.941553e+002,-4.138947e+000
6.951196e+002,-3.312378e+000
6.960838e+002,-1.530884e+000
6.970480e+002,-4.335632e-001
6.980123e+002,-6.740112e-001
6.989765e+002,-5.130005e-001
6.999407e+002,1.058380e+000
7.009050e+002,2.963989e+000
7.018692e+002,4.471649e+000
7.028334e+002,5.250000e+000
7.037977e+002,5.353943e+000
7.047619e+002,4.692688e+000
7.057261e+002,3.669952e+000
7.066904e+002,2.716095e+000
7.076546e+002,1.893982e+000
7.086188e+002,1.407654e+000
7.095831e+002,1.625336e+000
7.105473e+002,2.788513e+000
7.115115e+002,3.626129e+000
7.124758e+002,4.757080e+000
7.134400e+002,4.971527e+000
7.144042e+002,2.948334e+000
7.153685e+002,-1.161713e+000
7.163327e+002,-4.218750e+000
7.172969e+002,-4.025909e+000
7.182612e+002,-3.025238e+000
7.192254e+002,-1.645996e+000
7.201896e+002,-3.501282e-001
7.211539e+002,2.407837e-001
7.221181e+002,-4.814148e-001
7.230823e+002,-1.803772e+000
7.240466e+002,-1.726227e+000
7.250108e+002,-4.046936e-001
7.259750e+002,1.273315e+000
7.269393e+002,2.773102e+000
7.279035e+002,3.824371e+000
7.288677e+002,3.678436e+000
7.298320e+002,9.822388e-001
7.307962e+002,-5.190125e-001
7.317604e+002,7.876587e-002
7.327247e+002,1.786224e+000
7.336889e+002,3.168549e+000
7.346531e+002,3.624207e+000
7.356174e+002,3.453217e+000
7.365816e+002,3.157318e+000
7.375458e+002,2.806519e+000
7.385101e+002,2.509125e+000
7.394743e+002,2.220367e+000
7.404385e+002,1.565918e+000
7.414028e+002,-5.830994e-001
7.423670e+002,-3.765900e+000
7.433312e+002,-4.223511e+000
7.442955e+002,-1.217712e+000
7.452597e+002,2.781494e+000
7.462239e+002,4.858643e+000
7.471882e+002,4.431580e+000
7.481524e+002,4.082825e+000
7.491166e+002,3.464691e+000
7.500809e+002,2.805969e+000
7.510451e+002,2.244476e+000
7.520093e+002,1.743408e+000
7.529736e+002,1.096069e+000
7.539378e+002,5.163574e-002
7.549020e+002,-3.936462e-001
7.558663e+002,8.220215e-001
7.568306e+002,2.722534e+000
7.577948e+002,3.905548e+000
7.587590e+002,3.492706e+000
7.597233e+002,1.907837e+000
7.606875e+002,5.858765e-001
7.616517e+002,-3.616028e-001
7.626160e+002,-9.290466e-001
7.635802e+002,-1.191345e+000
7.645444e+002,-9.000549e-001
7.655087e+002,7.710876e-001
7.664729e+002,5.591919e+000
7.674371e+002,7.526001e+000
7.684014e+002,4.013611e+000
7.693656e+002,4.339600e-002
7.703298e+002,-7.695007e-001
7.712941e+002,1.781036e+000
7.722583e+002,4.069702e+000
7.732225e+002,2.360474e+000
7.741868e+002,4.210815e-001
7.751510e+002,2.004944e+000
7.761152e+002,5.974792e+000
7.770795e+002,9.072388e+000
7.780437e+002,8.377716e+000
7.790079e+002,4.431458e+000
7.799722e+002,2.233429e+000
7.809364e+002,1.704315e+000
7.819006e+002,1.734222e+000
7.828649e+002,2.208252e+000
7.838291e+002,3.115112e+000
7.847933e+002,4.193207e+000
7.857576e+002,5.598236e+000
7.867218e+002,6.295380e+000
7.876860e+002,5.840088e+000
7.886503e+002,5.238495e+000
7.896145e+002,5.630371e+000
7.905787e+002,7.187134e+000
7.915430e+002,8.324341e+000
7.925072e+002,6.184753e+000
7.934714e+002,3.091309e+000
7.944357e+002,1.937988e+000
7.953999e+002,2.887115e+000
7.963641e+002,4.576904e+000
7.973284e+002,5.420044e+000
7.982926e+002,5.340424e+000
7.992568e+002,5.867554e+000
8.002211e+002,7.276031e+000
8.011853e+002,7.924164e+000
8.021495e+002,7.091949e+000
8.031138e+002,5.459595e+000
8.040780e+002,4.729584e+000
8.050422e+002,5.525391e+000
8.060065e+002,6.214172e+000
8.069707e+002,6.161621e+000
8.079349e+002,5.618958e+000
8.088992e+002,4.621368e+000
8.098634e+002,3.386658e+000
8.108276e+002,2.757996e+000
8.117919e+002,4.505859e+000
8.127561e+002,7.090332e+000
8.137203e+002,7.840668e+000
8.146846e+002,6.652191e+000
8.156488e+002,4.790039e+000
8.166130e+002,3.664612e+000
8.175773e+002,3.381989e+000
8.185415e+002,2.865601e+000
8.195057e+002,5.005493e-001
8.204700e+002,-4.759827e-001
8.214342e+002,2.534332e+000
8.223984e+002,7.765717e+000
8.233627e+002,1.022552e+001
8.243269e+002,6.692017e+000
8.252911e+002,3.401917e+000
8.262554e+002,4.829102e+000
8.272196e+002,7.790588e+000
8.281838e+002,8.719421e+000
8.291481e+002,6.503876e+000
8.301123e+002,3.210083e+000
8.310765e+002,2.504944e+000
8.320408e+002,4.231262e+000
8.330050e+002,5.638397e+000
8.339692e+002,6.667908e+000
8.349335e+002,7.282288e+000
8.358977e+002,7.354370e+000
8.368619e+002,6.874847e+000
8.378262e+002,6.684418e+000
8.387904e+002,6.553406e+000
8.397546e+002,6.726837e+000
8.407189e+002,7.578125e+000
8.416831e+002,8.740692e+000
8.426473e+002,9.504486e+000
8.436116e+002,9.453552e+000
8.445758e+002,9.519287e+000
8.455400e+002,1.085779e+001
8.465043e+002,1.241653e+001
8.474685e+002,1.318301e+001
8.484327e+002,1.304379e+001
8.493970e+002,1.261197e+001
8.503612e+002,1.269696e+001
8.513254e+002,1.333466e+001
8.522897e+002,1.361749e+001
8.532539e+002,1.307547e+001
8.542181e+002,1.259348e+001
8.551824e+002,1.297580e+001
8.561466e+002,1.428897e+001
8.571108e+002,1.566992e+001
8.580751e+002,1.682944e+001
8.590393e+002,1.721814e+001
8.600035e+002,1.583249e+001
8.609678e+002,1.435550e+001
8.619320e+002,1.515125e+001
8.628962e+002,1.893701e+001
8.638605e+002,2.306540e+001
8.648247e+002,2.311993e+001
8.657889e+002,2.056467e+001
8.667532e+002,1.821594e+001
8.677174e+002,1.645154e+001
8.686816e+002,1.571011e+001
8.696459e+002,1.670456e+001
8.706101e+002,1.981345e+001
8.715743e+002,2.250754e+001
8.725386e+002,2.520749e+001
8.735028e+002,2.708206e+001
8.744670e+002,2.745145e+001
8.754313e+002,2.669849e+001
8.763955e+002,2.565533e+001
8.773597e+002,2.460828e+001
8.783240e+002,2.357187e+001
8.792882e+002,2.194427e+001
8.802524e+002,2.054526e+001
8.812167e+002,2.042569e+001
8.821809e+002,2.159589e+001
8.831451e+002,2.314160e+001
8.841094e+002,2.391574e+001
8.850736e+002,2.404898e+001
8.860378e+002,2.421762e+001
8.870021e+002,2.417435e+001
8.879663e+002,2.455255e+001
8.889305e+002,2.605893e+001
8.898948e+002,2.829504e+001
8.908590e+002,2.943347e+001
8.918232e+002,2.894476e+001
8.927875e+002,2.822980e+001
8.937517e+002,2.739981e+001
8.947159e+002,2.664850e+001
8.956802e+002,2.575140e+001
8.966444e+002,2.473657e+001
8.976086e+002,2.434174e+001
8.985729e+002,2.584839e+001
8.995371e+002,2.839612e+001
9.005013e+002,3.047705e+001
9.014656e+002,3.207220e+001
9.024298e+002,3.306787e+001
9.033940e+002,3.322153e+001
9.043583e+002,3.249219e+001
9.053225e+002,3.166260e+001
9.062867e+002,2.992233e+001
9.072510e+002,2.897852e+001
9.082152e+002,2.962473e+001
9.091794e+002,3.097751e+001
9.101437e+002,3.237918e+001
9.111079e+002,3.371936e+001
9.120721e+002,3.432800e+001
9.130364e+002,3.271423e+001
9.140006e+002,3.083957e+001
9.149648e+002,2.991034e+001
9.159291e+002,2.988809e+001
9.168933e+002,3.029718e+001
9.178575e+002,3.071481e+001
9.188218e+002,3.105524e+001
9.197860e+002,3.136798e+001
9.207502e+002,3.160434e+001
9.217145e+002,3.119312e+001
9.226787e+002,2.950058e+001
9.236429e+002,2.800879e+001
9.246072e+002,2.915985e+001
9.255714e+002,3.373621e+001
9.265356e+002,3.607980e+001
9.274999e+002,3.271307e+001
9.284641e+002,2.961264e+001
9.294283e+002,2.930322e+001
9.303926e+002,3.076657e+001
9.313568e+002,3.170874e+001
9.323210e+002,3.090378e+001
9.332853e+002,2.954840e+001
9.342495e+002,3.014081e+001
9.352137e+002,3.133224e+001
9.361780e+002,3.068185e+001
9.371422e+002,2.784375e+001
9.381064e+002,2.499960e+001
9.390707e+002,2.505627e+001
9.400349e+002,2.841718e+001
9.409991e+002,3.067780e+001
9.419634e+002,3.142532e+001
9.429276e+002,3.169376e+001
9.438918e+002,3.170337e+001
9.448561e+002,3.148599e+001
9.458203e+002,3.094287e+001
9.467845e+002,2.997739e+001
9.477488e+002,2.932709e+001
9.487130e+002,2.986926e+001
9.496772e+002,3.064307e+001
9.506415e+002,3.092395e+001
9.516057e+002,3.065594e+001
9.525699e+002,3.010153e+001
9.535342e+002,2.948135e+001
9.544984e+002,2.877896e+001
9.554626e+002,2.848837e+001
9.564269e+002,2.881284e+001
9.573911e+002,2.955884e+001
9.583553e+002,3.076236e+001
9.593196e+002,3.221426e+001
9.602838e+002,3.395816e+001
9.612480e+002,3.645203e+001
9.622123e+002,3.693680e+001
9.631765e+002,3.224664e+001
9.641407e+002,2.790900e+001
9.651050e+002,2.714926e+001
9.660692e+002,2.862787e+001
9.670334e+002,2.888376e+001
9.679977e+002,2.581726e+001
9.689619e+002,2.174142e+001
9.699261e+002,2.163409e+001
9.708904e+002,2.422678e+001
9.718546e+002,2.678098e+001
9.728188e+002,2.866388e+001
9.737831e+002,3.022745e+001
9.747473e+002,3.205322e+001
9.757115e+002,3.429715e+001
9.766758e+002,3.628043e+001
9.776400e+002,3.970557e+001
9.786042e+002,4.107785e+001
9.795685e+002,3.793759e+001
9.805327e+002,3.269092e+001
9.814969e+002,2.854218e+001
9.824612e+002,2.667102e+001
9.834254e+002,2.601456e+001
9.843896e+002,2.589969e+001
9.853539e+002,2.594257e+001
9.863181e+002,2.585925e+001
9.872823e+002,2.549683e+001
9.882466e+002,2.466931e+001
9.892108e+002,2.333093e+001
9.901750e+002,2.198126e+001
9.911393e+002,2.262872e+001
9.921035e+002,2.652386e+001
9.930677e+002,2.949194e+001
9.940320e+002,3.081702e+001
9.949962e+002,3.193610e+001
9.959604e+002,3.432663e+001
9.969247e+002,3.806165e+001
9.978889e+002,4.155511e+001
9.988531e+002,4.406781e+001
9.998174e+002,4.548291e+001
1.000782e+003,4.567007e+001
1.001746e+003,4.516721e+001
1.002710e+003,4.461667e+001
1.003674e+003,4.427521e+001
1.004639e+003,4.386197e+001
1.005603e+003,4.283423e+001
1.006567e+003,4.105185e+001
1.007531e+003,4.012637e+001
1.008495e+003,4.062747e+001
1.009460e+003,4.087881e+001
1.010424e+003,3.965784e+001
1.011388e+003,3.740714e+001
1.012352e+003,3.574261e+001
1.013317e+003,3.478958e+001
1.014281e+003,3.440887e+001
1.015245e+003,3.539252e+001
1.016209e+003,3.593054e+001
1.017174e+003,3.420938e+001
1.018138e+003,3.066263e+001
1.019102e+003,2.762210e+001
1.020066e+003,2.718390e+001
1.021031e+003,2.815067e+001
1.021995e+003,2.634741e+001
1.022959e+003,2.222534e+001
1.023923e+003,1.862775e+001
1.024887e+003,1.638437e+001
1.025852e+003,1.516473e+001
1.026816e+003,1.458682e+001
1.027780e+003,1.485175e+001
1.028744e+003,1.546948e+001
1.029709e+003,1.786194e+001
1.030673e+003,1.882431e+001
1.031637e+003,1.618930e+001
1.032601e+003,1.192493e+001
1.033566e+003,8.701355e+000
1.034530e+003,7.519196e+000
1.035494e+003,7.634399e+000
1.036458e+003,8.612549e+000
1.037422e+003,1.004001e+001
1.038387e+003,1.120529e+001
1.039351e+003,1.208899e+001
1.040315e+003,1.327817e+001
1.041279e+003,1.546838e+001
1.042244e+003,1.819379e+001
1.043208e+003,1.863159e+001
1.044172e+003,1.431558e+001
1.045136e+003,1.155652e+001
1.046101e+003,1.122720e+001
1.047065e+003,1.179443e+001
1.048029e+003,1.256171e+001
1.048993e+003,1.330469e+001
1.049958e+003,1.388049e+001
1.050922e+003,1.438773e+001
1.051886e+003,1.456647e+001
1.052850e+003,1.377185e+001
1.053814e+003,1.264304e+001
1.054779e+003,1.180789e+001
1.055743e+003,1.148105e+001
1.056707e+003,1.204810e+001
1.057671e+003,1.414548e+001
1.058636e+003,1.775507e+001
1.059600e+003,1.847601e+001
1.060564e+003,1.273550e+001
1.061528e+003,9.860107e+000
1.062493e+003,1.338605e+001
1.063457e+003,1.852081e+001
1.064421e+003,1.975729e+001
1.065385e+003,1.661145e+001
1.066349e+003,1.376669e+001
1.067314e+003,1.372354e+001
1.068278e+003,1.459604e+001
1.069242e+003,1.547296e+001
1.070206e+003,1.620618e+001
1.071171e+003,1.639435e+001
1.072135e+003,1.590131e+001
1.073099e+003,1.532001e+001
1.074063e+003,1.584253e+001
1.075028e+003,1.770593e+001
1.075992e+003,1.841037e+001
1.076956e+003,1.725348e+001
1.077920e+003,1.606903e+001
1.078885e+003,1.591354e+001
1.079849e+003,1.626608e+001
1.080813e+003,1.595013e+001
1.081777e+003,1.469089e+001
1.082741e+003,1.360580e+001
1.083706e+003,1.283374e+001
1.084670e+003,1.243762e+001
1.085634e+003,1.281955e+001
1.086598e+003,1.357419e+001
1.087563e+003,1.408487e+001
1.088527e+003,1.406500e+001
1.089491e+003,1.366406e+001
1.090455e+003,1.282187e+001
1.091420e+003,1.133780e+001
1.092384e+003,1.070544e+001
1.093348e+003,1.093091e+001
1.094312e+003,1.168927e+001
1.095276e+003,1.372598e+001
1.096241e+003,1.633118e+001
1.097205e+003,1.657651e+001
1.098169e+003,1.277957e+001
1.099133e+003,1.016052e+001
1.100098e+003,1.157391e+001
1.101062e+003,1.398364e+001
1.102026e+003,1.629230e+001
1.102990e+003,1.793170e+001
1.103955e+003,1.806921e+001
1.104919e+003,1.621478e+001
1.105883e+003,1.353302e+001
1.106847e+003,1.254782e+001
1.107812e+003,1.333954e+001
1.108776e+003,1.498798e+001
1.109740e+003,1.832977e+001
1.110704e+003,2.073013e+001
1.111668e+003,1.956744e+001
1.112633e+003,1.594824e+001
1.113597e+003,1.441159e+001
1.114561e+003,1.613739e+001
1.115525e+003,1.785004e+001
1.116490e+003,1.850903e+001
1.117454e+003,1.880048e+001
1.118418e+003,1.896228e+001
1.119382e+003,1.935635e+001
1.120347e+003,2.046054e+001
1.121311e+003,2.243347e+001
1.122275e+003,2.461850e+001
1.123239e+003,2.624255e+001
1.124203e+003,2.747983e+001
1.125168e+003,2.812964e+001
1.126132e+003,2.812125e+001
1.127096e+003,2.779922e+001
1.128060e+003,2.671182e+001
1.129025e+003,2.525906e+001
1.129989e+003,2.595914e+001
1.130953e+003,3.027551e+001
1.131917e+003,3.359540e+001
1.132882e+003,3.462277e+001
1.133846e+003,3.467554e+001
1.134810e+003,3.374982e+001
1.135774e+003,3.265060e+001
1.136739e+003,3.270642e+001
1.137703e+003,3.464200e+001
1.138667e+003,3.782144e+001
1.139631e+003,4.153165e+001
1.140595e+003,4.554803e+001
1.141560e+003,4.818411e+001
1.142524e+003,4.863409e+001
1.143488e+003,5.081558e+001
1.144452e+003,5.790152e+001
1.145417e+003,6.879974e+001
1.146381e+003,7.974997e+001
1.147345e+003,9.112909e+001
1.148309e+003,1.010324e+002
1.149274e+003,1.087677e+002
1.150238e+003,1.155208e+002
1.151202e+003,1.217627e+002
1.152166e+003,1.276793e+002
1.153130e+003,1.338558e+002
1.154095e+003,1.401970e+002
1.155059e+003,1.444832e+002
1.156023e+003,1.436454e+002
1.156987e+003,1.379723e+002
1.157952e+003,1.309661e+002
1.158916e+003,1.227097e+002
1.159880e+003,1.145977e+002
1.160844e+003,1.072374e+002
1.161809e+003,9.996008e+001
1.162773e+003,9.142438e+001
1.163737e+003,8.099350e+001
1.164701e+003,7.225897e+001
1.165666e+003,6.763538e+001
1.166630e+003,6.358679e+001
1.167594e+003,5.811145e+001
1.168558e+003,5.270419e+001
1.169522e+003,4.979224e+001
1.170487e+003,4.991254e+001
1.171451e+003,5.130432e+001
1.172415e+003,5.213773e+001
1.173379e+003,5.227319e+001
1.174344e+003,5.127725e+001
1.175308e+003,4.925751e+001
1.176272e+003,4.669971e+001
1.177236e+003,4.272617e+001
1.178201e+003,3.918219e+001
1.179165e+003,3.892010e+001
1.180129e+003,4.187070e+001
1.181093e+003,4.343808e+001
1.182057e+003,4.164240e+001
1.183022e+003,4.008850e+001
1.183986e+003,4.003247e+001
1.184950e+003,4.090378e+001
1.185914e+003,4.293188e+001
1.186879e+003,4.548398e+001
1.187843e+003,4.656845e+001
1.188807e+003,4.445343e+001
1.189771e+003,4.048782e+001
1.190736e+003,3.906235e+001
1.191700e+003,4.047421e+001
1.192664e+003,4.134430e+001
1.193628e+003,4.147330e+001
1.194593e+003,4.111786e+001
1.195557e+003,4.019775e+001
1.196521e+003,3.886685e+001
1.197485e+003,3.787872e+001
1.198449e+003,3.765903e+001
1.199414e+003,3.687997e+001
1.200378e+003,3.396744e+001
1.201342e+003,3.120981e+001
1.202306e+003,3.008777e+001
1.203271e+003,3.019418e+001
1.204235e+003,3.068320e+001
1.205199e+003,3.105774e+001
1.206163e+003,3.099756e+001
1.207128e+003,2.985355e+001
1.208092e+003,2.756940e+001
1.209056e+003,2.576978e+001
1.210020e+003,2.509079e+001
1.210984e+003,2.362708e+001
1.211949e+003,2.017065e+001
1.212913e+003,1.597089e+001
1.213877e+003,1.259656e+001
1.214841e+003,1.020587e+001
1.215806e+003,8.341431e+000
1.216770e+003,6.734863e+000
1.217734e+003,5.744232e+000
1.218698e+003,5.688324e+000
1.219663e+003,6.066223e+000
1.220627e+003,6.374573e+000
1.221591e+003,6.477631e+000
1.222555e+003,6.414673e+000
1.223520e+003,6.238678e+000
1.224484e+003,6.093872e+000
1.225448e+003,6.388153e+000
1.226412e+003,7.798065e+000
1.227376e+003,7.912415e+000
1.228341e+003,5.569794e+000
1.229305e+003,3.177185e+000
1.230269e+003,1.708832e+000
1.231233e+003,1.189484e+000
1.232198e+003,2.076080e+000
1.233162e+003,4.687073e+000
1.234126e+003,6.478607e+000
1.235090e+003,4.845917e+000
1.236055e+003,1.959961e+000
1.237019e+003,-5.609741e-001
1.237983e+003,-2.292755e+000
1.238947e+003,-1.904694e+000
1.239911e+003,1.192108e+000
1.240876e+003,5.201782e+000
1.241840e+003,7.404633e+000
1.242804e+003,7.728394e+000
1.243768e+003,7.791229e+000
1.244733e+003,7.241699e+000
1.245697e+003,6.907990e+000
1.246661e+003,7.060913e+000
1.247625e+003,6.970856e+000
1.248590e+003,5.727844e+000
1.249554e+003,3.955261e+000
1.250518e+003,3.250824e+000
1.251482e+003,4.259796e+000
1.252447e+003,6.323883e+000
1.253411e+003,9.636688e+000
1.254375e+003,1.319766e+001
1.255339e+003,1.451703e+001
1.256303e+003,1.364468e+001
1.257268e+003,1.262729e+001
1.258232e+003,1.239948e+001
1.259196e+003,1.263757e+001
1.260160e+003,1.314435e+001
1.261125e+003,1.424969e+001
1.262089e+003,1.442026e+001
1.263053e+003,1.180167e+001
1.264017e+003,1.006708e+001
1.264982e+003,1.051498e+001
1.265946e+003,1.199982e+001
1.266910e+003,1.407639e+001
1.267874e+003,1.610263e+001
1.268839e+003,1.687366e+001
1.269803e+003,1.558426e+001
1.270767e+003,1.299490e+001
1.271731e+003,1.019678e+001
1.272695e+003,7.406464e+000
1.273660e+003,6.571228e+000
1.274624e+003,8.150635e+000
1.275588e+003,9.922180e+000
1.276552e+003,1.123459e+001
1.277517e+003,1.199954e+001
1.278481e+003,1.175720e+001
1.279445e+003,1.038107e+001
1.280409e+003,8.712677e+000
1.281374e+003,6.425232e+000
1.282338e+003,4.799072e+000
1.283302e+003,5.070618e+000
1.284266e+003,5.906036e+000
1.285230e+003,5.567261e+000
1.286195e+003,4.016418e+000
1.287159e+003,2.747070e+000
1.288123e+003,3.054291e+000
1.289087e+003,4.416077e+000
1.290052e+003,4.916656e+000
1.291016e+003,3.993866e+000
1.291980e+003,3.843903e+000
1.292944e+003,4.921204e+000
1.293909e+003,5.839478e+000
1.294873e+003,6.374573e+000
1.295837e+003,6.513336e+000
1.296801e+003,6.132660e+000
1.297766e+003,5.242676e+000
1.298730e+003,3.848938e+000
1.299694e+003,1.165344e+000
1.300658e+003,-7.402954e-001
1.301622e+003,1.625977e+000
1.302587e+003,5.875305e+000
1.303551e+003,8.109985e+000
1.304515e+003,7.761353e+000
1.305479e+003,6.659637e+000
1.306444e+003,6.112579e+000
1.307408e+003,5.909882e+000
1.308372e+003,5.521637e+000
1.309336e+003,4.721069e+000
1.310301e+003,4.414307e+000
1.311265e+003,5.593170e+000
1.312229e+003,6.255432e+000
1.313193e+003,5.220978e+000
1.314157e+003,3.710480e+000
1.315122e+003,2.783691e+000
1.316086e+003,2.704590e+000
1.317050e+003,3.820007e+000
1.318014e+003,6.599213e+000
1.318979e+003,9.166260e+000
1.319943e+003,7.097626e+000
1.320907e+003,1.327057e+000
1.321871e+003,3.491211e-002
1.322836e+003,4.732056e+000
1.323800e+003,8.900482e+000
1.324764e+003,8.149109e+000
1.325728e+003,5.268005e+000
1.326693e+003,5.394531e+000
1.327657e+003,8.652954e+000
1.328621e+003,1.030096e+001
1.329585e+003,8.407135e+000
1.330549e+003,6.733978e+000
1.331514e+003,7.080719e+000
1.332478e+003,8.006531e+000
1.333442e+003,8.432770e+000
1.334406e+003,8.288116e+000
1.335371e+003,7.661499e+000
1.336335e+003,6.663788e+000
1.337299e+003,6.128723e+000
1.338263e+003,7.781189e+000
1.339228e+003,1.211826e+001
1.340192e+003,1.398602e+001
1.341156e+003,1.241168e+001
1.342120e+003,1.000186e+001
1.343084e+003,5.624268e+000
1.344049e+003,1.603638e+000
1.345013e+003,-2.221680e-002
1.345977e+003,5.909729e-001
1.346941e+003,2.583191e+000
1.347906e+003,5.741913e+000
1.348870e+003,8.543304e+000
1.349834e+003,9.132477e+000
1.350798e+003,8.680450e+000
1.351763e+003,1.037195e+001
1.352727e+003,1.360764e+001
1.353691e+003,1.424240e+001
1.354655e+003,1.018033e+001
1.355620e+003,5.229065e+000
1.356584e+003,4.054077e+000
1.357548e+003,6.276581e+000
1.358512e+003,8.216309e+000
1.359476e+003,9.949310e+000
1.360441e+003,1.036703e+001
1.361405e+003,8.395233e+000
1.362369e+003,6.111969e+000
1.363333e+003,4.141663e+000
1.364298e+003,2.689789e+000
1.365262e+003,1.962433e+000
1.366226e+003,1.939240e+000
1.367190e+003,2.387085e+000
1.368155e+003,3.112000e+000
1.369119e+003,3.941650e+000
1.370083e+003,4.329285e+000
1.371047e+003,4.170959e+000
1.372011e+003,4.358917e+000
1.372976e+003,5.096008e+000
1.373940e+003,5.573730e+000
1.374904e+003,4.899078e+000
1.375868e+003,4.314850e+000
1.376833e+003,5.978607e+000
1.377797e+003,9.540344e+000
1.378761e+003,1.163919e+001
1.379725e+003,1.062845e+001
1.380690e+003,8.643158e+000
1.381654e+003,7.225739e+000
1.382618e+003,6.606812e+000
1.383582e+003,7.719574e+000
1.384547e+003,1.023911e+001
1.385511e+003,1.184250e+001
1.386475e+003,1.121503e+001
1.387439e+003,9.392334e+000
1.388403e+003,7.544373e+000
1.389368e+003,5.662445e+000
1.390332e+003,5.576569e+000
1.391296e+003,8.495697e+000
1.392260e+003,1.110379e+001
1.393225e+003,1.306064e+001
1.394189e+003,1.406421e+001
1.395153e+003,1.391418e+001
1.396117e+003,1.270605e+001
1.397082e+003,1.002875e+001
1.398046e+003,6.279572e+000
1.399010e+003,3.215393e+000
1.399974e+003,2.387573e+000
1.400938e+003,3.103485e+000
1.401903e+003,3.691864e+000
1.402867e+003,4.454559e+000
1.403831e+003,5.605438e+000
1.404795e+003,7.348816e+000
1.405760e+003,8.822296e+000
1.406724e+003,9.506226e+000
1.407688e+003,9.423492e+000
1.408652e+003,8.667755e+000
1.409617e+003,7.569214e+000
1.410581e+003,6.749817e+000
1.411545e+003,6.416504e+000
1.412509e+003,6.563934e+000
1.413474e+003,7.104767e+000
1.414438e+003,7.969238e+000
1.415402e+003,9.922882e+000
1.416366e+003,1.268158e+001
1.417330e+003,1.366913e+001
1.418295e+003,1.154196e+001
1.419259e+003,8.632111e+000
1.420223e+003,7.549866e+000
1.421187e+003,7.941986e+000
1.422152e+003,8.027710e+000
1.423116e+003,7.503906e+000
1.424080e+003,8.132568e+000
1.425044e+003,1.222589e+001
1.426009e+003,1.525684e+001
1.426973e+003,1.485257e+001
1.427937e+003,1.260831e+001
1.428901e+003,9.604797e+000
1.429865e+003,6.878906e+000
1.430830e+003,6.427795e+000
1.431794e+003,9.430237e+000
1.432758e+003,1.394583e+001
1.433722e+003,1.632117e+001
1.434687e+003,1.663965e+001
1.435651e+003,1.687140e+001
1.436615e+003,1.566217e+001
1.437579e+003,1.535312e+001
1.438544e+003,1.743063e+001
1.439508e+003,1.929843e+001
1.440472e+003,1.888937e+001
1.441436e+003,1.731122e+001
1.442401e+003,1.677634e+001
1.443365e+003,1.771661e+001
1.444329e+003,1.888474e+001
1.445293e+003,1.956015e+001
1.446257e+003,1.958521e+001
1.447222e+003,1.814926e+001
1.448186e+003,1.557031e+001
1.449150e+003,1.380072e+001
1.450114e+003,1.306299e+001
1.451079e+003,1.267639e+001
1.452043e+003,1.216589e+001
1.453007e+003,1.211108e+001
1.453971e+003,1.355432e+001
1.454936e+003,1.619064e+001
1.455900e+003,1.828555e+001
1.456864e+003,1.971127e+001
1.457828e+003,2.003925e+001
1.458792e+003,1.767581e+001
1.459757e+003,1.510193e+001
1.460721e+003,1.441736e+001
1.461685e+003,1.507541e+001
1.462649e+003,1.603857e+001
1.463614e+003,1.699597e+001
1.464578e+003,1.768903e+001
1.465542e+003,1.782526e+001
1.466506e+003,1.743503e+001
1.467471e+003,1.660654e+001
1.468435e+003,1.522635e+001
1.469399e+003,1.488602e+001
1.470363e+003,1.641245e+001
1.471328e+003,1.756464e+001
1.472292e+003,1.751187e+001
1.473256e+003,1.695654e+001
1.474220e+003,1.650546e+001
1.475184e+003,1.628268e+001
1.476149e+003,1.607632e+001
1.477113e+003,1.577921e+001
1.478077e+003,1.569180e+001
1.479041e+003,1.624728e+001
1.480006e+003,1.727725e+001
1.480970e+003,1.787808e+001
1.481934e+003,1.772626e+001
1.482898e+003,1.781467e+001
1.483863e+003,1.785449e+001
1.484827e+003,1.842993e+001
1.485791e+003,2.047894e+001
1.486755e+003,2.270776e+001
1.487719e+003,2.375269e+001
1.488684e+003,2.380740e+001
1.489648e+003,2.373593e+001
1.490612e+003,2.391870e+001
1.491576e+003,2.470547e+001
1.492541e+003,2.656500e+001
1.493505e+003,2.868402e+001
1.494469e+003,2.861304e+001
1.495433e+003,2.677435e+001
1.496398e+003,2.730042e+001
1.497362e+003,3.154471e+001
1.498326e+003,3.619211e+001
1.499290e+003,3.963904e+001
1.500255e+003,4.238797e+001
1.501219e+003,4.457434e+001
1.502183e+003,4.645337e+001
1.503147e+003,4.966263e+001
1.504111e+003,5.472324e+001
1.505076e+003,6.023392e+001
1.506040e+003,6.509253e+001
1.507004e+003,7.049548e+001
1.507968e+003,7.760733e+001
1.508933e+003,8.607443e+001
1.509897e+003,9.547079e+001
1.510861e+003,1.058664e+002
1.511825e+003,1.164379e+002
1.512790e+003,1.265188e+002
1.513754e+003,1.360647e+002
1.514718e+003,1.451707e+002
1.515682e+003,1.536925e+002
1.516646e+003,1.621781e+002
1.517611e+003,1.713788e+002
1.518575e+003,1.793442e+002
1.519539e+003,1.872200e+002
1.520503e+003,1.921848e+002
1.521468e+003,1.910681e+002
1.522432e+003,1.867261e+002
1.523396e+003,1.832754e+002
1.524360e+003,1.810901e+002
1.525325e+003,1.776397e+002
1.526289e+003,1.713084e+002
1.527253e+003,1.630219e+002
1.528217e+003,1.542950e+002
1.529182e+003,1.452622e+002
1.530146e+003,1.352157e+002
1.531110e+003,1.230761e+002
1.532074e+003,1.116401e+002
1.533039e+003,1.014027e+002
1.534003e+003,9.082764e+001
1.534967e+003,7.901697e+001
1.535931e+003,6.726456e+001
1.536896e+003,5.643356e+001
1.537860e+003,4.710977e+001
1.538824e+003,4.017783e+001
1.539788e+003,3.592169e+001
1.540752e+003,3.307693e+001
1.541717e+003,3.013593e+001
1.542681e+003,2.724323e+001
1.543645e+003,2.476721e+001
1.544609e+003,2.239713e+001
1.545573e+003,2.187885e+001
1.546538e+003,2.476065e+001
1.547502e+003,2.694965e+001
1.548466e+003,2.727451e+001
1.549430e+003,2.637485e+001
1.550395e+003,2.431531e+001
1.551359e+003,2.152795e+001
1.552323e+003,1.871628e+001
1.553287e+003,1.626498e+001
1.554252e+003,1.537653e+001
1.555216e+003,1.744019e+001
1.556180e+003,2.081454e+001
1.557144e+003,2.164911e+001
1.558109e+003,1.988123e+001
1.559073e+003,1.802267e+001
1.560037e+003,1.555594e+001
1.561001e+003,1.371286e+001
1.561966e+003,1.320493e+001
1.562930e+003,1.360687e+001
1.563894e+003,1.509634e+001
1.564858e+003,1.684686e+001
1.565823e+003,1.683902e+001
1.566787e+003,1.476682e+001
1.567751e+003,1.249274e+001
1.568715e+003,1.083163e+001
1.569679e+003,1.030621e+001
1.570644e+003,1.219446e+001
1.571608e+003,1.540918e+001
1.572572e+003,1.701993e+001
1.573536e+003,1.700986e+001
1.574500e+003,1.699188e+001
1.575465e+003,1.764410e+001
1.576429e+003,1.806259e+001
1.577393e+003,1.713025e+001
1.578357e+003,1.552084e+001
1.579322e+003,1.459561e+001
1.580286e+003,1.449466e+001
1.581250e+003,1.496466e+001
1.582214e+003,1.606119e+001
1.583179e+003,1.725104e+001
1.584143e+003,1.871393e+001
1.585107e+003,1.933148e+001
1.586071e+003,1.695444e+001
1.587036e+003,1.295230e+001
1.588000e+003,1.111169e+001
1.588964e+003,1.216165e+001
1.589928e+003,1.467081e+001
1.590893e+003,1.889203e+001
1.591857e+003,2.294360e+001
1.592821e+003,2.337485e+001
1.593785e+003,2.090860e+001
1.594750e+003,1.974130e+001
1.595714e+003,2.052075e+001
1.596678e+003,2.117020e+001
1.597642e+003,2.077802e+001
1.598606e+003,2.016852e+001
1.599571e+003,1.959799e+001
1.600535e+003,1.953577e+001
1.601499e+003,2.125961e+001
1.602463e+003,2.420535e+001
1.603427e+003,2.537262e+001
1.604392e+003,2.334891e+001
1.605356e+003,2.098300e+001
1.606320e+003,2.163986e+001
1.607284e+003,2.404529e+001
1.608249e+003,2.429721e+001
1.609213e+003,2.230789e+001
1.610177e+003,2.085995e+001
1.611141e+003,2.050519e+001
1.612106e+003,2.048541e+001
1.613070e+003,2.047638e+001
1.614034e+003,2.062003e+001
1.614998e+003,2.145926e+001
1.615963e+003,2.236026e+001
1.616927e+003,2.192273e+001
1.617891e+003,2.012897e+001
1.618855e+003,1.864737e+001
1.619820e+003,1.844305e+001
1.620784e+003,1.866006e+001
1.621748e+003,1.812674e+001
1.622712e+003,1.729596e+001
1.623677e+003,1.801678e+001
1.624641e+003,2.071310e+001
1.625605e+003,2.261948e+001
1.626569e+003,2.249994e+001
1.627533e+003,2.181165e+001
1.628498e+003,2.168744e+001
1.629462e+003,2.132294e+001
1.630426e+003,1.913144e+001
1.631390e+003,1.629977e+001
1.632354e+003,1.576221e+001
1.633319e+003,1.800397e+001
1.634283e+003,2.054330e+001
1.635247e+003,2.171451e+001
1.636211e+003,2.152060e+001
1.637176e+003,1.922183e+001
1.638140e+003,1.518192e+001
1.639104e+003,1.439035e+001
1.640068e+003,1.804898e+001
1.641033e+003,2.057724e+001
1.641997e+003,2.029169e+001
1.642961e+003,1.918884e+001
1.643925e+003,1.745349e+001
1.644890e+003,1.607663e+001
1.645854e+003,1.607925e+001
1.646818e+003,1.722583e+001
1.647782e+003,1.918332e+001
1.648747e+003,2.166089e+001
1.649711e+003,2.298553e+001
1.650675e+003,2.167416e+001
1.651639e+003,1.889178e+001
1.652604e+003,1.629178e+001
1.653568e+003,1.386139e+001
1.654532e+003,1.423465e+001
1.655496e+003,1.863211e+001
1.656460e+003,2.197412e+001
1.657425e+003,2.280063e+001
1.658389e+003,2.235019e+001
1.659353e+003,2.092273e+001
1.660317e+003,1.895886e+001
1.661281e+003,1.633368e+001
1.662246e+003,1.359344e+001
1.663210e+003,1.245224e+001
1.664174e+003,1.343591e+001
1.665138e+003,1.441525e+001
1.666103e+003,1.340753e+001
1.667067e+003,1.133945e+001
1.668031e+003,9.989136e+000
1.668995e+003,9.397644e+000
1.669960e+003,9.728577e+000
1.670924e+003,1.126523e+001
1.671888e+003,1.278940e+001
1.672852e+003,1.415530e+001
1.673817e+003,1.492441e+001
1.674781e+003,1.452530e+001
1.675745e+003,1.363135e+001
1.676709e+003,1.296945e+001
1.677674e+003,1.246796e+001
1.678638e+003,1.145078e+001
1.679602e+003,9.737457e+000
1.680566e+003,8.885468e+000
1.681531e+003,1.079535e+001
1.682495e+003,1.353152e+001
1.683459e+003,1.325711e+001
1.684423e+003,1.045233e+001
1.685387e+003,8.747711e+000
1.686352e+003,8.597260e+000
1.687316e+003,8.762268e+000
1.688280e+003,8.694763e+000
1.689244e+003,9.136627e+000
1.690208e+003,1.157355e+001
1.691173e+003,1.408456e+001
1.692137e+003,1.448175e+001
1.693101e+003,1.325409e+001
1.694065e+003,1.164725e+001
1.695030e+003,9.787384e+000
1.695994e+003,8.658966e+000
1.696958e+003,9.601318e+000
1.697922e+003,1.084518e+001
1.698887e+003,9.781158e+000
1.699851e+003,7.304596e+000
1.700815e+003,6.186035e+000
1.701779e+003,6.568115e+000
1.702744e+003,6.472626e+000
1.703708e+003,5.225525e+000
1.704672e+003,4.215179e+000
1.705636e+003,3.950378e+000
1.706601e+003,4.616638e+000
1.707565e+003,7.992828e+000
1.708529e+003,1.275568e+001
1.709493e+003,1.374203e+001
1.710458e+003,9.894104e+000
1.711422e+003,6.558624e+000
1.712386e+003,6.479645e+000
1.713350e+003,7.224884e+000
1.714314e+003,6.584229e+000
1.715279e+003,5.384155e+000
1.716243e+003,5.137726e+000
1.717207e+003,5.843201e+000
1.718171e+003,6.960938e+000
1.719135e+003,8.368042e+000
1.720100e+003,9.231262e+000
1.721064e+003,8.941071e+000
1.722028e+003,7.721130e+000
1.722992e+003,5.720001e+000
1.723957e+003,3.318848e+000
1.724921e+003,1.798370e+000
1.725885e+003,8.588867e-001
1.726849e+003,9.219055e-001
1.727814e+003,3.559937e+000
1.728778e+003,5.680634e+000
1.729742e+003,5.109833e+000
1.730706e+003,4.098480e+000
1.731671e+003,5.271393e+000
1.732635e+003,7.333099e+000
1.733599e+003,7.371368e+000
1.734563e+003,5.286133e+000
1.735528e+003,3.286255e+000
1.736492e+003,2.475525e+000
1.737456e+003,2.527924e+000
1.738420e+003,3.140533e+000
1.739385e+003,4.049438e+000
1.740349e+003,4.713379e+000
1.741313e+003,5.279968e+000
1.742277e+003,5.360168e+000
1.743241e+003,4.746368e+000
1.744206e+003,4.238739e+000
1.745170e+003,4.189209e+000
1.746134e+003,3.825562e+000
1.747098e+003,2.303589e+000
1.748063e+003,5.266113e-001
1.749027e+003,-6.656799e-001
1.749991e+003,-1.056274e+000
1.750955e+003,-2.307129e-001
1.751919e+003,1.600250e+000
1.752884e+003,2.608246e+000
1.753848e+003,1.242676e+000
1.754812e+003,-1.006195e+000
1.755776e+003,-9.014282e-001
1.756741e+003,1.571808e+000
1.757705e+003,2.884491e+000
1.758669e+003,2.431000e+000
1.759633e+003,2.277771e+000
1.760598e+003,3.264526e+000
1.761562e+003,3.407990e+000
1.762526e+003,1.186615e+000
1.763490e+003,-8.461914e-001
1.764455e+003,-4.396667e-001
1.765419e+003,1.163788e+000
1.766383e+003,1.680298e+000
1.767347e+003,9.615479e-001
1.768312e+003,5.956726e-001
1.769276e+003,1.300232e+000
1.770240e+003,2.194946e+000
1.771204e+003,2.711121e+000
1.772168e+003,2.846771e+000
1.773133e+003,1.918304e+000
1.774097e+003,1.218872e-001
1.775061e+003,-3.708801e-001
1.776025e+003,6.528015e-001
1.776990e+003,2.025330e+000
1.777954e+003,3.965729e+000
1.778918e+003,5.281281e+000
1.779882e+003,4.420502e+000
1.780846e+003,2.739471e+000
1.781811e+003,2.427399e+000
1.782775e+003,3.025177e+000
1.783739e+003,2.723541e+000
1.784703e+003,1.203766e+000
1.785668e+003,1.310120e-001
1.786632e+003,1.281128e-001
1.787596e+003,5.260620e-001
1.788560e+003,1.230438e+000
1.789525e+003,2.118866e+000
1.790489e+003,3.030548e+000
1.791453e+003,3.707581e+000
1.792417e+003,3.586182e+000
1.793382e+003,2.616364e+000
1.794346e+003,1.323517e+000
1.795310e+003,-8.657837e-002
1.796274e+003,-1.139313e+000
1.797239e+003,-1.138702e+000
1.798203e+003,-2.774353e-001
1.799167e+003,3.545227e-001
1.800131e+003,5.000305e-001
1.801095e+003,2.099609e-001
1.802060e+003,-7.196655e-001
1.803024e+003,-1.185852e+000
1.803988e+003,-1.277802e+000
1.804952e+003,-8.410034e-001
1.805917e+003,9.046936e-001
1.806881e+003,2.606781e+000
1.807845e+003,2.782410e+000
1.808809e+003,1.982910e+000
1.809773e+003,1.653625e+000
1.810738e+003,1.990570e+000
1.811702e+003,1.783813e+000
1.812666e+003,2.908325e-001
1.813630e+003,-1.385071e+000
1.814595e+003,-1.763397e+000
1.815559e+003,-1.112610e+000
1.816523e+003,-9.667969e-002
1.817487e+003,1.463867e+000
1.818452e+003,1.489380e+000
1.819416e+003,-8.306580e-001
1.820380e+003,-2.219574e+000
1.821344e+003,-1.675476e+000
1.822309e+003,-4.291992e-001
1.823273e+003,1.806000e+000
1.824237e+003,3.768036e+000
1.825201e+003,3.895966e+000
1.826166e+003,2.578247e+000
1.827130e+003,5.915833e-001
1.828094e+003,-1.882263e+000
1.829058e+003,-2.673981e+000
1.830022e+003,2.919922e-001
1.830987e+003,3.231628e+000
1.831951e+003,2.485168e+000
1.832915e+003,2.011414e-001
1.833879e+003,-4.677734e-001
1.834844e+003,4.373169e-002
1.835808e+003,-2.685547e-003
1.836772e+003,-8.576965e-001
1.837736e+003,-2.088654e+000
1.838700e+003,-3.599762e+000
1.839665e+003,-4.686981e+000
1.840629e+003,-4.545258e+000
1.841593e+003,-3.762360e+000
1.842557e+003,-3.725739e+000
1.843522e+003,-4.427948e+000
1.844486e+003,-4.663208e+000
1.845450e+003,-4.420227e+000
1.846414e+003,-3.343964e+000
1.847379e+003,-5.775757e-001
1.848343e+003,1.384827e+000
1.849307e+003,1.628082e+000
1.850271e+003,1.178986e+000
1.851236e+003,7.034302e-001
1.852200e+003,2.107239e-001
1.853164e+003,-8.093872e-001
1.854128e+003,-2.179352e+000
1.855093e+003,-2.871094e+000
1.856057e+003,-2.453278e+000
1.857021e+003,-1.822174e+000
1.857985e+003,-1.866058e+000
1.858949e+003,-1.892975e+000
1.859914e+003,-5.343628e-002
1.860878e+003,3.049866e+000
1.861842e+003,3.395905e+000
1.862806e+003,8.407898e-001
1.863771e+003,-9.800415e-001
1.864735e+003,-1.544586e+000
1.865699e+003,-1.174622e+000
1.866663e+003,8.441162e-001
1.867627e+003,2.328186e+000
1.868592e+003,4.595337e-001
1.869556e+003,-2.908417e+000
1.870520e+003,-3.896423e+000
1.871484e+003,-2.875885e+000
1.872449e+003,-2.192139e+000
1.873413e+003,-1.733887e+000
1.874377e+003,-1.391235e+000
1.875341e+003,-1.675354e+000
1.876306e+003,-2.024811e+000
1.877270e+003,-2.151703e+000
1.878234e+003,-2.275146e+000
1.879198e+003,-2.618591e+000
1.880163e+003,-3.026367e+000
1.881127e+003,-3.168060e+000
1.882091e+003,-3.031403e+000
1.883055e+003,-2.834167e+000
1.884020e+003,-2.699860e+000
1.884984e+003,-2.802704e+000
1.885948e+003,-3.335144e+000
1.886912e+003,-3.585449e+000
1.887876e+003,-1.795807e+000
1.888841e+003,1.731812e+000
1.889805e+003,2.747681e+000
1.890769e+003,6.651611e-001
1.891733e+003,-8.395996e-001
1.892698e+003,-1.751129e+000
1.893662e+003,-1.432465e+000
1.894626e+003,2.152618e+000
1.895590e+003,4.739685e+000
1.896554e+003,2.176025e+000
1.897519e+003,-1.966797e+000
1.898483e+003,-3.894440e+000
1.899447e+003,-3.851166e+000
1.900411e+003,-2.573730e+000
1.901376e+003,2.746582e-004
1.902340e+003,1.485382e+000
1.903304e+003,3.841553e-001
1.904268e+003,-1.113159e+000
1.905233e+003,-1.853973e+000
1.906197e+003,-2.079071e+000
1.907161e+003,-1.926636e+000
1.908125e+003,-1.446472e+000
1.909090e+003,-6.062622e-001
1.910054e+003,3.296204e-001
1.911018e+003,6.978760e-001
1.911982e+003,4.108582e-001
1.912947e+003,1.823730e-001
1.913911e+003,4.991760e-001
1.914875e+003,1.072540e+000
1.915839e+003,1.399719e+000
1.916803e+003,1.470551e+000
1.917768e+003,1.850067e+000
1.918732e+003,2.789185e+000
1.919696e+003,2.883362e+000
1.920660e+003,1.612671e+000
1.921625e+003,1.260406e+000
1.922589e+003,3.385620e+000
1.923553e+003,4.585968e+000
1.924517e+003,1.497437e+000
1.925481e+003,-1.848511e+000
1.926446e+003,-1.342163e+000
1.927410e+003,1.267090e+000
1.928374e+003,2.639526e+000
1.929338e+003,2.422394e+000
1.930303e+003,1.031281e+000
1.931267e+003,-2.039246e+000
1.932231e+003,-3.684662e+000
1.933195e+003,-1.428711e+000
1.934160e+003,1.160828e+000
1.935124e+003,1.339966e+000
1.936088e+003,4.302368e-001
1.937052e+003,-1.220093e-001
1.938017e+003,-4.766846e-002
1.938981e+003,1.199280e+000
1.939945e+003,3.109833e+000
1.940909e+003,3.223450e+000
1.941874e+003,6.436768e-001
1.942838e+003,-1.515259e+000
1.943802e+003,-1.463928e-001
1.944766e+003,2.694611e+000
1.945730e+003,2.474030e+000
1.946695e+003,-4.624634e-001
1.947659e+003,-2.735352e+000
1.948623e+003,-4.452362e+000
1.949587e+003,-4.476654e+000
1.950552e+003,-2.104523e+000
1.951516e+003,-1.319580e-001
1.952480e+003,4.917908e-001
1.953444e+003,5.544128e-001
1.954408e+003,5.093079e-001
1.955373e+003,1.288147e-001
1.956337e+003,-1.228638e+000
1.957301e+003,-2.916168e+000
1.958265e+003,-2.914795e+000
1.959230e+003,-9.232178e-001
1.960194e+003,6.994934e-001
1.961158e+003,1.257111e+000
1.962122e+003,1.558990e+000
1.963087e+003,1.897064e+000
1.964051e+003,1.989319e+000
1.965015e+003,1.715210e+000
1.965979e+003,1.324860e+000
1.966944e+003,5.730896e-001
1.967908e+003,-1.087036e-001
1.968872e+003,4.542236e-001
1.969836e+003,2.012268e+000
1.970801e+003,2.731934e+000
1.971765e+003,1.905121e+000
1.972729e+003,9.571228e-001
1.973693e+003,1.076294e+000
1.974657e+003,1.727966e+000
1.975622e+003,2.221222e+000
1.976586e+003,2.488953e+000
1.977550e+003,2.697662e+000
1.978514e+003,2.733093e+000
1.979479e+003,1.163910e+000
1.980443e+003,-2.041473e+000
1.981407e+003,-3.245178e+000
1.982371e+003,-9.394531e-001
1.983335e+003,1.462372e+000
1.984300e+003,1.225769e+000
1.985264e+003,1.397095e-001
1.986228e+003,1.178070e+000
1.987192e+003,3.685822e+000
1.988157e+003,4.130585e+000
1.989121e+003,1.830780e+000
1.990085e+003,1.362549e+000
1.991049e+003,4.558624e+000
1.992014e+003,6.028107e+000
1.992978e+003,3.899536e+000
1.993942e+003,1.489258e+000
1.994906e+003,-1.018860e+000
1.995871e+003,-2.438843e+000
1.996835e+003,-1.104370e+000
1.997799e+003,1.485168e+000
1.998763e+003,3.439636e+000
1.999728e+003,4.437073e+000
