5.003444e+002,3.948987e+001
5.013087e+002,4.025073e+001
5.022729e+002,4.100381e+001
5.032371e+002,4.159283e+001
5.042014e+002,4.101541e+001
5.051656e+002,3.947861e+001
5.061298e+002,3.762592e+001
5.070941e+002,3.591666e+001
5.080583e+002,3.414252e+001
5.090225e+002,3.333340e+001
5.099868e+002,3.409412e+001
5.109510e+002,3.484482e+001
5.119152e+002,3.472232e+001
5.128795e+002,3.364743e+001
5.138437e+002,3.267548e+001
5.148079e+002,3.188266e+001
5.157722e+002,3.159756e+001
5.167364e+002,3.235776e+001
5.177006e+002,3.388803e+001
5.186649e+002,3.507950e+001
5.196291e+002,3.440848e+001
5.205933e+002,3.306815e+001
5.215576e+002,3.200110e+001
5.225218e+002,3.124588e+001
5.234860e+002,3.068152e+001
5.244503e+002,3.027975e+001
5.254145e+002,3.033786e+001
5.263787e+002,3.035611e+001
5.273430e+002,3.044910e+001
5.283072e+002,3.043188e+001
5.292714e+002,2.996939e+001
5.302357e+002,2.865680e+001
5.311999e+002,2.712729e+001
5.321641e+002,2.532501e+001
5.331284e+002,2.384998e+001
5.340926e+002,2.313306e+001
5.350568e+002,2.327148e+001
5.360211e+002,2.365646e+001
5.369853e+002,2.434338e+001
5.379495e+002,2.498190e+001
5.389138e+002,2.511960e+001
5.398780e+002,2.458780e+001
5.408422e+002,2.360397e+001
5.418065e+002,2.280035e+001
5.427707e+002,2.214209e+001
5.437349e+002,2.125806e+001
5.446992e+002,1.978568e+001
5.456634e+002,1.814114e+001
5.466276e+002,1.789624e+001
5.475919e+002,2.172595e+001
5.485561e+002,2.372238e+001
5.495203e+002,2.231274e+001
5.504846e+002,1.927271e+001
5.514488e+002,1.725052e+001
5.524130e+002,1.759406e+001
5.533773e+002,1.833740e+001
5.543415e+002,1.902786e+001
5.553057e+002,1.922034e+001
5.562700e+002,1.811755e+001
5.572342e+002,1.523019e+001
5.581984e+002,1.165414e+001
5.591627e+002,1.025522e+001
5.601269e+002,1.039584e+001
5.610911e+002,1.072336e+001
5.620554e+002,1.048297e+001
5.630196e+002,9.746735e+000
5.639838e+002,9.792847e+000
5.649481e+002,1.124881e+001
5.659123e+002,1.257983e+001
5.668765e+002,1.408481e+001
5.678408e+002,1.554761e+001
5.688050e+002,1.595276e+001
5.697692e+002,1.347388e+001
5.707335e+002,1.157349e+001
5.716977e+002,1.194531e+001
5.726619e+002,1.340384e+001
5.736262e+002,1.422812e+001
5.745904e+002,1.315726e+001
5.755546e+002,1.161676e+001
5.765189e+002,1.193506e+001
5.774831e+002,1.320013e+001
5.784473e+002,1.411188e+001
5.794116e+002,1.385486e+001
5.803758e+002,1.259943e+001
5.813400e+002,1.093927e+001
5.823043e+002,8.297607e+000
5.832685e+002,6.140320e+000
5.842327e+002,5.348816e+000
5.851970e+002,5.818359e+000
5.861612e+002,6.175812e+000
5.871254e+002,5.880676e+000
5.880897e+002,5.636810e+000
5.890539e+002,5.331207e+000
5.900181e+002,5.120636e+000
5.909824e+002,5.431000e+000
5.919466e+002,6.948639e+000
5.929108e+002,8.232758e+000
5.938751e+002,7.667664e+000
5.948393e+002,5.979645e+000
5.958035e+002,4.129211e+000
5.967678e+002,2.855438e+000
5.977320e+002,2.251801e+000
5.986962e+002,2.972290e+000
5.996605e+002,4.904938e+000
6.006247e+002,6.282318e+000
6.015889e+002,6.042480e+000
6.025532e+002,4.338501e+000
6.035174e+002,3.198853e+000
6.044816e+002,3.054871e+000
6.054459e+002,3.153809e+000
6.064101e+002,3.641998e+000
6.073743e+002,4.251160e+000
6.083386e+002,4.506165e+000
6.093028e+002,3.971985e+000
6.102670e+002,3.536133e+000
6.112313e+002,3.848083e+000
6.121955e+002,4.604767e+000
6.131597e+002,5.414917e+000
6.141240e+002,6.006256e+000
6.150882e+002,6.448456e+000
6.160524e+002,7.403839e+000
6.170167e+002,8.848785e+000
6.179809e+002,9.732788e+000
6.189451e+002,9.285614e+000
6.199094e+002,7.663055e+000
6.208736e+002,6.676147e+000
6.218378e+002,7.336700e+000
6.228021e+002,7.858185e+000
6.237663e+002,8.297485e+000
6.247305e+002,8.508026e+000
6.256948e+002,8.085083e+000
6.266590e+002,6.340057e+000
6.276232e+002,4.773621e+000
6.285875e+002,4.493073e+000
6.295517e+002,4.935852e+000
6.305159e+002,5.622742e+000
6.314802e+002,6.202026e+000
6.324444e+002,6.480835e+000
6.334086e+002,5.698425e+000
6.343729e+002,4.387970e+000
6.353371e+002,3.863556e+000
6.363013e+002,4.685394e+000
6.372656e+002,6.343323e+000
6.382298e+002,7.152710e+000
6.391940e+002,6.589539e+000
6.401583e+002,5.550293e+000
6.411225e+002,3.969666e+000
6.420867e+002,2.301727e+000
6.430510e+002,9.377747e-001
6.440152e+002,-1.245117e-001
6.449794e+002,-1.092712e+000
6.459437e+002,-2.454712e+000
6.469079e+002,-3.548798e+000
6.478721e+002,-3.328522e+000
6.488364e+002,-1.659454e+000
6.498006e+002,2.590942e-002
6.507648e+002,-1.952209e+000
6.517291e+002,-5.819885e+000
6.526933e+002,-6.560364e+000
6.536575e+002,-3.074768e+000
6.546218e+002,2.203400e+000
6.555860e+002,4.576385e+000
6.565502e+002,2.192139e+000
6.575145e+002,4.772034e-001
6.584787e+002,-4.414368e-001
6.594429e+002,-8.787231e-001
6.604072e+002,-8.932190e-001
6.613714e+002,-4.164734e-001
6.623356e+002,-2.176208e-001
6.632999e+002,-3.597107e-001
6.642641e+002,-1.305969e+000
6.652283e+002,-4.419525e+000
6.661926e+002,-8.815094e+000
6.671568e+002,-1.161118e+001
6.681210e+002,-8.626312e+000
6.690853e+002,-2.254639e+000
6.700495e+002,8.790894e-001
6.710137e+002,7.922363e-001
6.719780e+002,-1.325073e-001
6.729422e+002,7.408447e-001
6.739064e+002,4.030609e+000
6.748707e+002,4.865723e+000
6.758349e+002,1.536163e+000
6.767991e+002,-1.578644e+000
6.777634e+002,-2.433075e+000
6.787276e+002,-1.136444e+000
6.796918e+002,4.227600e-001
6.806561e+002,1.959106e+000
6.816203e+002,2.858795e+000
6.825845e+002,2.642273e+000
6.835488e+002,1.701324e+000
6.845130e+002,5.506592e-001
6.854772e+002,-4.667969e-001
6.864415e+002,-1.015747e+000
6.874057e+002,-6.279907e-001
6.883699e+002,3.361206e-001
6.893342e+002,1.658020e+000
6.902984e+002,3.360992e+000
6.912626e+002,5.233765e+000
6.922269e+002,5.490265e+000
6.931911e+002,2.551056e+000
6.941553e+002,5.802917e-001
6.951196e+002,-1.889038e-002
6.960838e+002,2.098999e-001
6.970480e+002,7.020569e-001
6.980123e+002,1.790985e+000
6.989765e+002,2.151337e+000
6.999407e+002,7.423096e-001
7.009050e+002,-1.115173e+000
7.018692e+002,-2.309418e+000
7.028334e+002,-2.529022e+000
7.037977e+002,-2.544128e+000
7.047619e+002,-3.798889e+000
7.057261e+002,-5.438629e+000
7.066904e+002,-5.909088e+000
7.076546e+002,-4.965546e+000
7.086188e+002,-3.042694e+000
7.095831e+002,-6.916504e-001
7.105473e+002,2.652618e+000
7.115115e+002,4.063110e+000
7.124758e+002,2.337524e+000
7.134400e+002,2.111206e-001
7.144042e+002,-5.099792e-001
7.153685e+002,2.743225e-001
7.163327e+002,8.228149e-001
7.172969e+002,7.174988e-001
7.182612e+002,-1.893616e-001
7.192254e+002,-3.017273e+000
7.201896e+002,-6.746216e+000
7.211539e+002,-9.482239e+000
7.221181e+002,-9.597626e+000
7.230823e+002,-7.716644e+000
7.240466e+002,-5.229156e+000
7.250108e+002,-2.281036e+000
7.259750e+002,-2.695313e-001
7.269393e+002,-2.899780e-001
7.279035e+002,-2.178009e+000
7.288677e+002,-3.222473e+000
7.298320e+002,-2.277802e+000
7.307962e+002,-1.221985e+000
7.317604e+002,1.761780e-001
7.327247e+002,1.527985e+000
7.336889e+002,2.092560e+000
7.346531e+002,1.258850e+000
7.356174e+002,5.966187e-002
7.365816e+002,-6.589661e-001
7.375458e+002,-1.093140e+000
7.385101e+002,-1.573700e+000
7.394743e+002,-2.084656e+000
7.404385e+002,-2.139435e+000
7.414028e+002,-8.002319e-001
7.423670e+002,1.251251e+000
7.433312e+002,2.260437e+000
7.442955e+002,2.308655e+000
7.452597e+002,1.947815e+000
7.462239e+002,1.677856e+000
7.471882e+002,1.518188e+000
7.481524e+002,1.010406e+000
7.491166e+002,-5.910034e-001
7.500809e+002,-2.069397e+000
7.510451e+002,-3.065063e+000
7.520093e+002,-3.545990e+000
7.529736e+002,-3.511108e+000
7.539378e+002,-2.456726e+000
7.549020e+002,-1.222992e+000
7.558663e+002,-4.235229e-001
7.568306e+002,1.655884e-001
7.577948e+002,9.225769e-001
7.587590e+002,1.989380e+000
7.597233e+002,2.949493e+000
7.606875e+002,2.548248e+000
7.616517e+002,1.098297e+000
7.626160e+002,3.781738e-001
7.635802e+002,1.061554e+000
7.645444e+002,2.552307e+000
7.655087e+002,3.613281e+000
7.664729e+002,4.164825e+000
7.674371e+002,4.244110e+000
7.684014e+002,3.633606e+000
7.693656e+002,2.838684e+000
7.703298e+002,2.117249e+000
7.712941e+002,1.556305e+000
7.722583e+002,1.183929e+000
7.732225e+002,8.441162e-001
7.741868e+002,9.199829e-001
7.751510e+002,2.372650e+000
7.761152e+002,4.521332e+000
7.770795e+002,5.622742e+000
7.780437e+002,4.090118e+000
7.790079e+002,3.771667e-001
7.799722e+002,-9.187317e-001
7.809364e+002,3.804016e-001
7.819006e+002,1.253906e+000
7.828649e+002,8.276367e-002
7.838291e+002,-2.246490e+000
7.847933e+002,-2.861572e+000
7.857576e+002,-3.757629e-001
7.867218e+002,1.176910e+000
7.876860e+002,1.239868e+000
7.886503e+002,4.399719e-001
7.896145e+002,-1.536133e+000
7.905787e+002,-4.464935e+000
7.915430e+002,-5.944489e+000
7.925072e+002,-1.663818e+000
7.934714e+002,4.246216e+000
7.944357e+002,7.620880e+000
7.953999e+002,8.247284e+000
7.963641e+002,7.426300e+000
7.973284e+002,6.483704e+000
7.982926e+002,5.386749e+000
7.992568e+002,5.059784e+000
8.002211e+002,5.527679e+000
8.011853e+002,5.784393e+000
8.021495e+002,5.822998e+000
8.031138e+002,5.810394e+000
8.040780e+002,5.546112e+000
8.050422e+002,4.193848e+000
8.060065e+002,3.505829e+000
8.069707e+002,4.485291e+000
8.079349e+002,5.847717e+000
8.088992e+002,6.283234e+000
8.098634e+002,5.456879e+000
8.108276e+002,4.445343e+000
8.117919e+002,4.894287e+000
8.127561e+002,5.836304e+000
8.137203e+002,5.767548e+000
8.146846e+002,4.688446e+000
8.156488e+002,3.288757e+000
8.166130e+002,2.237640e+000
8.175773e+002,1.434937e+000
8.185415e+002,1.356598e+000
8.195057e+002,2.574646e+000
8.204700e+002,3.390625e+000
8.214342e+002,2.842834e+000
8.223984e+002,1.470856e+000
8.233627e+002,7.445984e-001
8.243269e+002,1.340271e+000
8.252911e+002,2.487305e+000
8.262554e+002,4.108917e+000
8.272196e+002,5.644379e+000
8.281838e+002,6.323883e+000
8.291481e+002,5.972748e+000
8.301123e+002,5.271027e+000
8.310765e+002,5.447968e+000
8.320408e+002,6.398804e+000
8.330050e+002,7.094360e+000
8.339692e+002,7.587646e+000
8.349335e+002,7.631744e+000
8.358977e+002,6.857574e+000
8.368619e+002,5.193115e+000
8.378262e+002,3.894806e+000
8.387904e+002,2.686401e+000
8.397546e+002,1.964203e+000
8.407189e+002,1.652618e+000
8.416831e+002,1.977081e+000
8.426473e+002,3.770325e+000
8.436116e+002,7.935364e+000
8.445758e+002,1.142654e+001
8.455400e+002,9.658813e+000
8.465043e+002,5.806824e+000
8.474685e+002,3.750183e+000
8.484327e+002,4.575592e+000
8.493970e+002,6.477997e+000
8.503612e+002,6.142853e+000
8.513254e+002,2.845062e+000
8.522897e+002,2.625488e+000
8.532539e+002,7.497253e+000
8.542181e+002,1.222421e+001
8.551824e+002,1.375146e+001
8.561466e+002,1.256512e+001
8.571108e+002,1.142896e+001
8.580751e+002,9.888550e+000
8.590393e+002,9.093109e+000
8.600035e+002,1.032758e+001
8.609678e+002,1.225687e+001
8.619320e+002,1.325803e+001
8.628962e+002,1.269666e+001
8.638605e+002,1.157193e+001
8.648247e+002,1.119818e+001
8.657889e+002,1.147845e+001
8.667532e+002,1.259030e+001
8.677174e+002,1.454761e+001
8.686816e+002,1.633301e+001
8.696459e+002,1.671637e+001
8.706101e+002,1.551288e+001
8.715743e+002,1.490738e+001
8.725386e+002,1.495523e+001
8.735028e+002,1.547684e+001
8.744670e+002,1.695572e+001
8.754313e+002,1.854126e+001
8.763955e+002,1.852689e+001
8.773597e+002,1.585287e+001
8.783240e+002,1.364407e+001
8.792882e+002,1.463406e+001
8.802524e+002,1.660242e+001
8.812167e+002,1.761273e+001
8.821809e+002,1.736249e+001
8.831451e+002,1.693307e+001
8.841094e+002,1.777435e+001
8.850736e+002,1.994580e+001
8.860378e+002,2.170367e+001
8.870021e+002,2.298257e+001
8.879663e+002,2.387326e+001
8.889305e+002,2.429813e+001
8.898948e+002,2.425662e+001
8.908590e+002,2.393277e+001
8.918232e+002,2.296594e+001
8.927875e+002,2.265527e+001
8.937517e+002,2.382245e+001
8.947159e+002,2.528238e+001
8.956802e+002,2.584433e+001
8.966444e+002,2.525662e+001
8.976086e+002,2.437479e+001
8.985729e+002,2.405893e+001
8.995371e+002,2.437396e+001
9.005013e+002,2.536481e+001
9.014656e+002,2.692874e+001
9.024298e+002,2.833990e+001
9.033940e+002,2.892993e+001
9.043583e+002,2.869690e+001
9.053225e+002,2.862286e+001
9.062867e+002,2.872253e+001
9.072510e+002,2.875726e+001
9.082152e+002,2.920697e+001
9.091794e+002,2.961536e+001
9.101437e+002,2.926758e+001
9.111079e+002,2.802194e+001
9.120721e+002,2.710757e+001
9.130364e+002,2.752078e+001
9.140006e+002,2.798401e+001
9.149648e+002,2.787244e+001
9.159291e+002,2.741754e+001
9.168933e+002,2.698248e+001
9.178575e+002,2.676196e+001
9.188218e+002,2.675812e+001
9.197860e+002,2.731558e+001
9.207502e+002,2.836246e+001
9.217145e+002,2.955667e+001
9.226787e+002,3.148956e+001
9.236429e+002,3.330542e+001
9.246072e+002,3.349936e+001
9.255714e+002,3.161179e+001
9.265356e+002,2.989648e+001
9.274999e+002,2.899356e+001
9.284641e+002,2.789252e+001
9.294283e+002,2.608066e+001
9.303926e+002,2.397040e+001
9.313568e+002,2.202032e+001
9.323210e+002,2.038611e+001
9.332853e+002,1.965945e+001
9.342495e+002,2.236710e+001
9.352137e+002,2.627948e+001
9.361780e+002,2.776633e+001
9.371422e+002,2.618393e+001
9.381064e+002,2.336639e+001
9.390707e+002,2.152307e+001
9.400349e+002,2.052368e+001
9.409991e+002,2.029816e+001
9.419634e+002,2.135654e+001
9.429276e+002,2.233951e+001
9.438918e+002,2.311502e+001
9.448561e+002,2.358652e+001
9.458203e+002,2.345786e+001
9.467845e+002,2.251334e+001
9.477488e+002,2.190549e+001
9.487130e+002,2.327823e+001
9.496772e+002,2.472906e+001
9.506415e+002,2.450415e+001
9.516057e+002,2.270673e+001
9.525699e+002,2.053702e+001
9.535342e+002,1.911450e+001
9.544984e+002,1.842645e+001
9.554626e+002,1.928717e+001
9.564269e+002,2.242630e+001
9.573911e+002,2.456824e+001
9.583553e+002,2.396695e+001
9.593196e+002,2.214804e+001
9.602838e+002,2.183353e+001
9.612480e+002,2.362189e+001
9.622123e+002,2.456042e+001
9.631765e+002,2.258542e+001
9.641407e+002,2.090494e+001
9.651050e+002,2.182391e+001
9.660692e+002,2.404224e+001
9.670334e+002,2.440317e+001
9.679977e+002,2.096768e+001
9.689619e+002,1.627429e+001
9.699261e+002,1.626385e+001
9.708904e+002,1.919806e+001
9.718546e+002,2.014139e+001
9.728188e+002,1.746927e+001
9.737831e+002,1.455908e+001
9.747473e+002,1.663193e+001
9.757115e+002,2.518939e+001
9.766758e+002,3.082892e+001
9.776400e+002,3.133963e+001
9.786042e+002,3.186743e+001
9.795685e+002,3.422940e+001
9.805327e+002,3.676794e+001
9.814969e+002,3.698560e+001
9.824612e+002,3.413681e+001
9.834254e+002,3.075250e+001
9.843896e+002,2.896359e+001
9.853539e+002,2.791629e+001
9.863181e+002,2.712396e+001
9.872823e+002,2.624838e+001
9.882466e+002,2.456061e+001
9.892108e+002,2.154236e+001
9.901750e+002,1.774756e+001
9.911393e+002,1.584027e+001
9.921035e+002,1.680469e+001
9.930677e+002,1.733725e+001
9.940320e+002,1.681717e+001
9.949962e+002,1.651132e+001
9.959604e+002,1.787796e+001
9.969247e+002,2.095325e+001
9.978889e+002,2.373016e+001
9.988531e+002,2.481076e+001
9.998174e+002,2.543237e+001
1.000782e+003,2.673438e+001
1.001746e+003,2.824323e+001
1.002710e+003,2.902371e+001
1.003674e+003,2.871716e+001
1.004639e+003,2.793451e+001
1.005603e+003,2.774084e+001
1.006567e+003,2.815475e+001
1.007531e+003,2.892075e+001
1.008495e+003,3.047598e+001
1.009460e+003,3.158563e+001
1.010424e+003,3.132657e+001
1.011388e+003,3.005203e+001
1.012352e+003,2.903342e+001
1.013317e+003,2.837595e+001
1.014281e+003,2.789072e+001
1.015245e+003,2.773947e+001
1.016209e+003,2.736914e+001
1.017174e+003,2.651230e+001
1.018138e+003,2.510431e+001
1.019102e+003,2.303775e+001
1.020066e+003,2.013876e+001
1.021031e+003,1.703415e+001
1.021995e+003,1.558728e+001
1.022959e+003,1.527567e+001
1.023923e+003,1.419418e+001
1.024887e+003,1.126953e+001
1.025852e+003,8.014130e+000
1.026816e+003,7.189117e+000
1.027780e+003,9.636963e+000
1.028744e+003,1.108273e+001
1.029709e+003,1.126990e+001
1.030673e+003,1.030023e+001
1.031637e+003,6.955261e+000
1.032601e+003,2.866547e+000
1.033566e+003,3.334045e-001
1.034530e+003,1.779785e-001
1.035494e+003,1.049957e+000
1.036458e+003,1.542816e+000
1.037422e+003,1.982666e+000
1.038387e+003,3.343994e+000
1.039351e+003,5.414734e+000
1.040315e+003,6.560333e+000
1.041279e+003,5.447906e+000
1.042244e+003,2.746765e+000
1.043208e+003,1.507935e+000
1.044172e+003,2.606201e+000
1.045136e+003,3.506073e+000
1.046101e+003,4.383850e+000
1.047065e+003,4.978821e+000
1.048029e+003,4.858337e+000
1.048993e+003,4.206757e+000
1.049958e+003,3.811951e+000
1.050922e+003,4.164368e+000
1.051886e+003,4.816772e+000
1.052850e+003,5.621033e+000
1.053814e+003,6.227509e+000
1.054779e+003,5.993805e+000
1.055743e+003,4.842651e+000
1.056707e+003,3.287750e+000
1.057671e+003,1.870819e+000
1.058636e+003,5.603638e-001
1.059600e+003,9.644470e-001
1.060564e+003,5.700195e+000
1.061528e+003,8.650909e+000
1.062493e+003,7.097107e+000
1.063457e+003,4.341614e+000
1.064421e+003,4.710510e+000
1.065385e+003,8.649384e+000
1.066349e+003,1.124731e+001
1.067314e+003,8.865875e+000
1.068278e+003,5.730377e+000
1.069242e+003,5.000427e+000
1.070206e+003,5.640900e+000
1.071171e+003,5.719177e+000
1.072135e+003,4.414185e+000
1.073099e+003,2.541382e+000
1.074063e+003,1.555832e+000
1.075028e+003,1.558762e+000
1.075992e+003,2.449753e+000
1.076956e+003,4.808960e+000
1.077920e+003,6.702820e+000
1.078885e+003,7.447113e+000
1.079849e+003,7.468536e+000
1.080813e+003,7.482941e+000
1.081777e+003,7.664307e+000
1.082741e+003,7.533585e+000
1.083706e+003,6.086319e+000
1.084670e+003,4.617783e+000
1.085634e+003,4.098434e+000
1.086598e+003,4.087311e+000
1.087563e+003,3.548309e+000
1.088527e+003,2.025879e+000
1.089491e+003,3.036041e-001
1.090455e+003,-2.964630e-001
1.091420e+003,2.618408e-001
1.092384e+003,1.289749e+000
1.093348e+003,3.533371e+000
1.094312e+003,4.717392e+000
1.095276e+003,2.880814e+000
1.096241e+003,-8.373566e-001
1.097205e+003,-3.188950e+000
1.098169e+003,-3.667297e+000
1.099133e+003,-3.490860e+000
1.100098e+003,-2.865524e+000
1.101062e+003,-1.916473e+000
1.102026e+003,-7.138672e-001
1.102990e+003,7.734222e-001
1.103955e+003,2.890182e+000
1.104919e+003,5.789841e+000
1.105883e+003,8.444153e+000
1.106847e+003,8.467682e+000
1.107812e+003,5.778717e+000
1.108776e+003,4.076935e+000
1.109740e+003,3.621185e+000
1.110704e+003,3.935455e+000
1.111668e+003,5.248703e+000
1.112633e+003,7.301559e+000
1.113597e+003,8.462723e+000
1.114561e+003,8.083755e+000
1.115525e+003,7.668213e+000
1.116490e+003,7.740845e+000
1.117454e+003,7.850372e+000
1.118418e+003,7.670715e+000
1.119382e+003,7.434814e+000
1.120347e+003,7.600739e+000
1.121311e+003,8.335831e+000
1.122275e+003,9.272659e+000
1.123239e+003,1.025993e+001
1.124203e+003,1.135796e+001
1.125168e+003,1.121835e+001
1.126132e+003,9.244141e+000
1.127096e+003,7.438385e+000
1.128060e+003,7.253998e+000
1.129025e+003,8.407806e+000
1.129989e+003,9.865845e+000
1.130953e+003,1.168947e+001
1.131917e+003,1.339333e+001
1.132882e+003,1.497609e+001
1.133846e+003,1.641835e+001
1.134810e+003,1.798581e+001
1.135774e+003,1.939075e+001
1.136739e+003,1.972949e+001
1.137703e+003,1.852322e+001
1.138667e+003,1.704279e+001
1.139631e+003,1.755640e+001
1.140595e+003,1.997960e+001
1.141560e+003,2.299107e+001
1.142524e+003,2.677959e+001
1.143488e+003,3.071892e+001
1.144452e+003,3.422955e+001
1.145417e+003,3.749271e+001
1.146381e+003,4.120340e+001
1.147345e+003,4.542456e+001
1.148309e+003,4.983270e+001
1.149274e+003,5.305804e+001
1.150238e+003,5.784413e+001
1.151202e+003,6.702507e+001
1.152166e+003,7.865709e+001
1.153130e+003,8.913698e+001
1.154095e+003,9.664014e+001
1.155059e+003,1.021447e+002
1.156023e+003,1.073585e+002
1.156987e+003,1.120350e+002
1.157952e+003,1.148626e+002
1.158916e+003,1.162909e+002
1.159880e+003,1.152795e+002
1.160844e+003,1.098580e+002
1.161809e+003,1.015065e+002
1.162773e+003,9.405861e+001
1.163737e+003,8.783392e+001
1.164701e+003,8.122873e+001
1.165666e+003,7.310291e+001
1.166630e+003,6.552008e+001
1.167594e+003,5.961856e+001
1.168558e+003,5.450781e+001
1.169522e+003,4.843971e+001
1.170487e+003,4.123372e+001
1.171451e+003,3.530226e+001
1.172415e+003,3.353792e+001
1.173379e+003,3.503204e+001
1.174344e+003,3.489706e+001
1.175308e+003,3.307428e+001
1.176272e+003,3.187756e+001
1.177236e+003,3.243018e+001
1.178201e+003,3.377173e+001
1.179165e+003,3.496690e+001
1.180129e+003,3.593288e+001
1.181093e+003,3.523976e+001
1.182057e+003,3.119127e+001
1.183022e+003,2.766956e+001
1.183986e+003,2.652051e+001
1.184950e+003,2.624106e+001
1.185914e+003,2.531543e+001
1.186879e+003,2.371625e+001
1.187843e+003,2.252856e+001
1.188807e+003,2.259923e+001
1.189771e+003,2.351064e+001
1.190736e+003,2.425618e+001
1.191700e+003,2.481955e+001
1.192664e+003,2.514343e+001
1.193628e+003,2.511459e+001
1.194593e+003,2.516266e+001
1.195557e+003,2.600681e+001
1.196521e+003,2.715280e+001
1.197485e+003,2.667242e+001
1.198449e+003,2.369118e+001
1.199414e+003,2.103777e+001
1.200378e+003,2.036632e+001
1.201342e+003,2.012064e+001
1.202306e+003,1.901294e+001
1.203271e+003,1.753253e+001
1.204235e+003,1.728314e+001
1.205199e+003,1.890015e+001
1.206163e+003,2.074139e+001
1.207128e+003,1.989423e+001
1.208092e+003,1.617949e+001
1.209056e+003,1.396251e+001
1.210020e+003,1.395872e+001
1.210984e+003,1.375372e+001
1.211949e+003,1.286472e+001
1.212913e+003,1.121930e+001
1.213877e+003,8.335052e+000
1.214841e+003,4.311615e+000
1.215806e+003,1.269012e+000
1.216770e+003,5.236664e-001
1.217734e+003,1.159821e-001
1.218698e+003,-1.524170e+000
1.219663e+003,-3.666794e+000
1.220627e+003,-5.578339e+000
1.221591e+003,-6.983704e+000
1.222555e+003,-7.683243e+000
1.223520e+003,-7.434128e+000
1.224484e+003,-6.464996e+000
1.225448e+003,-6.136490e+000
1.226412e+003,-6.990158e+000
1.227376e+003,-7.348389e+000
1.228341e+003,-6.609177e+000
1.229305e+003,-6.155777e+000
1.230269e+003,-7.280655e+000
1.231233e+003,-9.090012e+000
1.232198e+003,-9.361603e+000
1.233162e+003,-7.359924e+000
1.234126e+003,-5.774796e+000
1.235090e+003,-7.134094e+000
1.236055e+003,-9.494385e+000
1.237019e+003,-1.081148e+001
1.237983e+003,-1.133914e+001
1.238947e+003,-1.185551e+001
1.239911e+003,-1.262338e+001
1.240876e+003,-1.323686e+001
1.241840e+003,-1.311954e+001
1.242804e+003,-1.221957e+001
1.243768e+003,-1.143558e+001
1.244733e+003,-1.101727e+001
1.245697e+003,-1.036133e+001
1.246661e+003,-8.951340e+000
1.247625e+003,-7.944000e+000
1.248590e+003,-8.539902e+000
1.249554e+003,-1.014505e+001
1.250518e+003,-1.114720e+001
1.251482e+003,-1.091017e+001
1.252447e+003,-9.747910e+000
1.253411e+003,-7.069168e+000
1.254375e+003,-4.015594e+000
1.255339e+003,-3.505661e+000
1.256303e+003,-5.478561e+000
1.257268e+003,-7.090988e+000
1.258232e+003,-6.755142e+000
1.259196e+003,-5.387650e+000
1.260160e+003,-4.768707e+000
1.261125e+003,-5.054398e+000
1.262089e+003,-4.393219e+000
1.263053e+003,-9.655304e-001
1.264017e+003,1.074890e+000
1.264982e+003,-2.962799e-001
1.265946e+003,-2.593567e+000
1.266910e+003,-3.651642e+000
1.267874e+003,-3.238556e+000
1.268839e+003,-2.032471e+000
1.269803e+003,-4.465637e-001
1.270767e+003,9.120178e-001
1.271731e+003,6.553497e-001
1.272695e+003,-1.098312e+000
1.273660e+003,-2.022308e+000
1.274624e+003,-2.091751e+000
1.275588e+003,-1.792099e+000
1.276552e+003,-6.603088e-001
1.277517e+003,5.915375e-001
1.278481e+003,2.424316e-001
1.279445e+003,-1.965164e+000
1.280409e+003,-3.972107e+000
1.281374e+003,-5.244614e+000
1.282338e+003,-5.918976e+000
1.283302e+003,-5.638412e+000
1.284266e+003,-5.155609e+000
1.285230e+003,-5.308350e+000
1.286195e+003,-6.214127e+000
1.287159e+003,-7.536728e+000
1.288123e+003,-8.952057e+000
1.289087e+003,-1.017389e+001
1.290052e+003,-1.055196e+001
1.291016e+003,-9.997116e+000
1.291980e+003,-9.127411e+000
1.292944e+003,-7.406647e+000
1.293909e+003,-6.299103e+000
1.294873e+003,-6.387680e+000
1.295837e+003,-7.203735e+000
1.296801e+003,-8.474686e+000
1.297766e+003,-1.003189e+001
1.298730e+003,-1.080121e+001
1.299694e+003,-9.868729e+000
1.300658e+003,-8.779251e+000
1.301622e+003,-9.592712e+000
1.302587e+003,-1.116035e+001
1.303551e+003,-1.164690e+001
1.304515e+003,-1.073761e+001
1.305479e+003,-9.373764e+000
1.306444e+003,-8.293793e+000
1.307408e+003,-7.539154e+000
1.308372e+003,-7.099625e+000
1.309336e+003,-7.021835e+000
1.310301e+003,-7.161575e+000
1.311265e+003,-7.475204e+000
1.312229e+003,-7.903564e+000
1.313193e+003,-9.160950e+000
1.314157e+003,-1.009085e+001
1.315122e+003,-8.712143e+000
1.316086e+003,-5.585052e+000
1.317050e+003,-3.839737e+000
1.318014e+003,-5.556030e+000
1.318979e+003,-8.971909e+000
1.319943e+003,-1.144038e+001
1.320907e+003,-1.279942e+001
1.321871e+003,-1.255881e+001
1.322836e+003,-1.044386e+001
1.323800e+003,-8.209641e+000
1.324764e+003,-6.170120e+000
1.325728e+003,-4.848633e+000
1.326693e+003,-5.762360e+000
1.327657e+003,-9.063843e+000
1.328621e+003,-1.115201e+001
1.329585e+003,-1.019675e+001
1.330549e+003,-8.676865e+000
1.331514e+003,-7.992706e+000
1.332478e+003,-7.858215e+000
1.333442e+003,-8.396988e+000
1.334406e+003,-9.076706e+000
1.335371e+003,-8.355820e+000
1.336335e+003,-5.404434e+000
1.337299e+003,-2.065186e+000
1.338263e+003,-2.058990e+000
1.339228e+003,-5.981140e+000
1.340192e+003,-7.549881e+000
1.341156e+003,-5.131897e+000
1.342120e+003,-2.963516e+000
1.343084e+003,-9.541626e-001
1.344049e+003,-2.242889e-001
1.345013e+003,-2.869614e+000
1.345977e+003,-7.372406e+000
1.346941e+003,-9.067871e+000
1.347906e+003,-6.141846e+000
1.348870e+003,-2.806519e+000
1.349834e+003,-3.325104e+000
1.350798e+003,-5.791061e+000
1.351763e+003,-5.976135e+000
1.352727e+003,-4.313446e+000
1.353691e+003,-3.790390e+000
1.354655e+003,-5.707092e+000
1.355620e+003,-8.270035e+000
1.356584e+003,-9.306015e+000
1.357548e+003,-8.961395e+000
1.358512e+003,-8.970566e+000
1.359476e+003,-9.854691e+000
1.360441e+003,-1.027818e+001
1.361405e+003,-9.790253e+000
1.362369e+003,-8.783295e+000
1.363333e+003,-6.473923e+000
1.364298e+003,-4.208984e+000
1.365262e+003,-4.160309e+000
1.366226e+003,-6.484863e+000
1.367190e+003,-9.177567e+000
1.368155e+003,-1.047623e+001
1.369119e+003,-1.048570e+001
1.370083e+003,-9.391754e+000
1.371047e+003,-6.659317e+000
1.372011e+003,-4.842010e+000
1.372976e+003,-4.759781e+000
1.373940e+003,-4.726563e+000
1.374904e+003,-4.049942e+000
1.375868e+003,-3.028687e+000
1.376833e+003,-1.755371e+000
1.377797e+003,-4.786987e-001
1.378761e+003,-3.487091e-001
1.379725e+003,-2.049301e+000
1.380690e+003,-4.276230e+000
1.381654e+003,-6.007782e+000
1.382618e+003,-7.208908e+000
1.383582e+003,-8.057770e+000
1.384547e+003,-8.423798e+000
1.385511e+003,-7.282623e+000
1.386475e+003,-3.824524e+000
1.387439e+003,1.529083e-001
1.388403e+003,1.933319e+000
1.389368e+003,1.506882e+000
1.390332e+003,4.281311e-001
1.391296e+003,-1.956848e+000
1.392260e+003,-3.392853e+000
1.393225e+003,-2.805588e+000
1.394189e+003,-1.928009e+000
1.395153e+003,-1.692047e+000
1.396117e+003,-1.829163e+000
1.397082e+003,-1.628891e+000
1.398046e+003,-9.916229e-001
1.399010e+003,-6.633301e-001
1.399974e+003,-1.418259e+000
1.400938e+003,-3.023788e+000
1.401903e+003,-4.419724e+000
1.402867e+003,-5.455292e+000
1.403831e+003,-5.129654e+000
1.404795e+003,-2.030594e+000
1.405760e+003,1.683960e-001
1.406724e+003,-4.145203e-001
1.407688e+003,-2.531952e+000
1.408652e+003,-5.194427e+000
1.409617e+003,-7.727570e+000
1.410581e+003,-8.182785e+000
1.411545e+003,-5.414902e+000
1.412509e+003,-2.487564e+000
1.413474e+003,-3.111328e+000
1.414438e+003,-5.186829e+000
1.415402e+003,-4.478134e+000
1.416366e+003,-1.374649e+000
1.417330e+003,4.730530e-001
1.418295e+003,-5.849915e-001
1.419259e+003,-2.455902e+000
1.420223e+003,-2.755600e+000
1.421187e+003,-1.824066e+000
1.422152e+003,-1.437607e+000
1.423116e+003,-1.868500e+000
1.424080e+003,-1.590240e+000
1.425044e+003,9.822083e-001
1.426009e+003,2.806259e+000
1.426973e+003,1.493790e+000
1.427937e+003,-6.109314e-001
1.428901e+003,-4.420471e-002
1.429865e+003,2.949509e+000
1.430830e+003,4.830307e+000
1.431794e+003,3.239578e+000
1.432758e+003,9.799194e-002
1.433722e+003,-5.898590e-001
1.434687e+003,1.581787e+000
1.435651e+003,3.251602e+000
1.436615e+003,3.531097e+000
1.437579e+003,3.792542e+000
1.438544e+003,4.122025e+000
1.439508e+003,4.603348e+000
1.440472e+003,5.796738e+000
1.441436e+003,7.163406e+000
1.442401e+003,7.446335e+000
1.443365e+003,6.402634e+000
1.444329e+003,5.187958e+000
1.445293e+003,4.651306e+000
1.446257e+003,4.605301e+000
1.447222e+003,4.835892e+000
1.448186e+003,5.207474e+000
1.449150e+003,4.886429e+000
1.450114e+003,3.465454e+000
1.451079e+003,2.542862e+000
1.452043e+003,3.517456e+000
1.453007e+003,5.203201e+000
1.453971e+003,6.046921e+000
1.454936e+003,5.985947e+000
1.455900e+003,4.946045e+000
1.456864e+003,2.500244e+000
1.457828e+003,7.649536e-001
1.458792e+003,1.449860e+000
1.459757e+003,2.776154e+000
1.460721e+003,3.636703e+000
1.461685e+003,3.932129e+000
1.462649e+003,3.597275e+000
1.463614e+003,2.701294e+000
1.464578e+003,1.509308e+000
1.465542e+003,1.256104e-001
1.466506e+003,-1.299728e+000
1.467471e+003,-2.350479e+000
1.468435e+003,-3.139053e+000
1.469399e+003,-2.245514e+000
1.470363e+003,2.192169e+000
1.471328e+003,5.472076e+000
1.472292e+003,6.323441e+000
1.473256e+003,5.704773e+000
1.474220e+003,3.293015e+000
1.475184e+003,6.139679e-001
1.476149e+003,4.238892e-001
1.477113e+003,3.168152e+000
1.478077e+003,6.080719e+000
1.479041e+003,6.565414e+000
1.480006e+003,5.440048e+000
1.480970e+003,5.152908e+000
1.481934e+003,5.943115e+000
1.482898e+003,5.954956e+000
1.483863e+003,4.206665e+000
1.484827e+003,3.091568e+000
1.485791e+003,3.777161e+000
1.486755e+003,5.098251e+000
1.487719e+003,5.754120e+000
1.488684e+003,6.005737e+000
1.489648e+003,7.094376e+000
1.490612e+003,9.453659e+000
1.491576e+003,1.207785e+001
1.492541e+003,1.421927e+001
1.493505e+003,1.583353e+001
1.494469e+003,1.667889e+001
1.495433e+003,1.674785e+001
1.496398e+003,1.670457e+001
1.497362e+003,1.666716e+001
1.498326e+003,1.707928e+001
1.499290e+003,1.829224e+001
1.500255e+003,1.995282e+001
1.501219e+003,2.135287e+001
1.502183e+003,2.263062e+001
1.503147e+003,2.498608e+001
1.504111e+003,2.887137e+001
1.505076e+003,3.288762e+001
1.506040e+003,3.664711e+001
1.507004e+003,3.974217e+001
1.507968e+003,4.044501e+001
1.508933e+003,4.063940e+001
1.509897e+003,4.449109e+001
1.510861e+003,5.284143e+001
1.511825e+003,6.296100e+001
1.512790e+003,7.326935e+001
1.513754e+003,8.321716e+001
1.514718e+003,9.154195e+001
1.515682e+003,9.813786e+001
1.516646e+003,1.061817e+002
1.517611e+003,1.171476e+002
1.518575e+003,1.269490e+002
1.519539e+003,1.333714e+002
1.520503e+003,1.395432e+002
1.521468e+003,1.477137e+002
1.522432e+003,1.562316e+002
1.523396e+003,1.635186e+002
1.524360e+003,1.686600e+002
1.525325e+003,1.704014e+002
1.526289e+003,1.679313e+002
1.527253e+003,1.627881e+002
1.528217e+003,1.575498e+002
1.529182e+003,1.523278e+002
1.530146e+003,1.471145e+002
1.531110e+003,1.433775e+002
1.532074e+003,1.365273e+002
1.533039e+003,1.250844e+002
1.534003e+003,1.115924e+002
1.534967e+003,9.551003e+001
1.535931e+003,7.968721e+001
1.536896e+003,6.714102e+001
1.537860e+003,5.788040e+001
1.538824e+003,5.004526e+001
1.539788e+003,4.257065e+001
1.540752e+003,3.574368e+001
1.541717e+003,2.996475e+001
1.542681e+003,2.534734e+001
1.543645e+003,2.201076e+001
1.544609e+003,2.046761e+001
1.545573e+003,1.940605e+001
1.546538e+003,1.941531e+001
1.547502e+003,1.874182e+001
1.548466e+003,1.601120e+001
1.549430e+003,1.322890e+001
1.550395e+003,1.255371e+001
1.551359e+003,1.348734e+001
1.552323e+003,1.419716e+001
1.553287e+003,1.405696e+001
1.554252e+003,1.377440e+001
1.555216e+003,1.393285e+001
1.556180e+003,1.441368e+001
1.557144e+003,1.531775e+001
1.558109e+003,1.668967e+001
1.559073e+003,1.570953e+001
1.560037e+003,1.031674e+001
1.561001e+003,6.419876e+000
1.561966e+003,7.547913e+000
1.562930e+003,9.819031e+000
1.563894e+003,8.822342e+000
1.564858e+003,6.128387e+000
1.565823e+003,6.847183e+000
1.566787e+003,1.163887e+001
1.567751e+003,1.434248e+001
1.568715e+003,1.090616e+001
1.569679e+003,5.978424e+000
1.570644e+003,5.668930e+000
1.571608e+003,8.245438e+000
1.572572e+003,8.440674e+000
1.573536e+003,6.123627e+000
1.574500e+003,5.230530e+000
1.575465e+003,7.701416e+000
1.576429e+003,1.081573e+001
1.577393e+003,1.272546e+001
1.578357e+003,1.350987e+001
1.579322e+003,1.283501e+001
1.580286e+003,1.095833e+001
1.581250e+003,1.074419e+001
1.582214e+003,1.358363e+001
1.583179e+003,1.625545e+001
1.584143e+003,1.616089e+001
1.585107e+003,1.465819e+001
1.586071e+003,1.377211e+001
1.587036e+003,1.338528e+001
1.588000e+003,1.235947e+001
1.588964e+003,1.023807e+001
1.589928e+003,9.277695e+000
1.590893e+003,1.177095e+001
1.591857e+003,1.553407e+001
1.592821e+003,1.728503e+001
1.593785e+003,1.733765e+001
1.594750e+003,1.743425e+001
1.595714e+003,1.778195e+001
1.596678e+003,1.772729e+001
1.597642e+003,1.664684e+001
1.598606e+003,1.565822e+001
1.599571e+003,1.556140e+001
1.600535e+003,1.619695e+001
1.601499e+003,1.776457e+001
1.602463e+003,1.991039e+001
1.603427e+003,2.121437e+001
1.604392e+003,2.106894e+001
1.605356e+003,2.033633e+001
1.606320e+003,1.974249e+001
1.607284e+003,1.929938e+001
1.608249e+003,1.888644e+001
1.609213e+003,1.848441e+001
1.610177e+003,1.898201e+001
1.611141e+003,2.099251e+001
1.612106e+003,2.275948e+001
1.613070e+003,2.399074e+001
1.614034e+003,2.406912e+001
1.614998e+003,2.132529e+001
1.615963e+003,1.760236e+001
1.616927e+003,1.634479e+001
1.617891e+003,1.773157e+001
1.618855e+003,1.866147e+001
1.619820e+003,1.711627e+001
1.620784e+003,1.483263e+001
1.621748e+003,1.493060e+001
1.622712e+003,1.699036e+001
1.623677e+003,1.679300e+001
1.624641e+003,1.362260e+001
1.625605e+003,1.250241e+001
1.626569e+003,1.579430e+001
1.627533e+003,1.846622e+001
1.628498e+003,1.724243e+001
1.629462e+003,1.542006e+001
1.630426e+003,1.594202e+001
1.631390e+003,1.801352e+001
1.632354e+003,1.974524e+001
1.633319e+003,2.054617e+001
1.634283e+003,2.028928e+001
1.635247e+003,1.865865e+001
1.636211e+003,1.653128e+001
1.637176e+003,1.558638e+001
1.638140e+003,1.580640e+001
1.639104e+003,1.605109e+001
1.640068e+003,1.626794e+001
1.641033e+003,1.634842e+001
1.641997e+003,1.608954e+001
1.642961e+003,1.607448e+001
1.643925e+003,1.690459e+001
1.644890e+003,1.781990e+001
1.645854e+003,1.793796e+001
1.646818e+003,1.747021e+001
1.647782e+003,1.725162e+001
1.648747e+003,1.749292e+001
1.649711e+003,1.747891e+001
1.650675e+003,1.662741e+001
1.651639e+003,1.537207e+001
1.652604e+003,1.430527e+001
1.653568e+003,1.337357e+001
1.654532e+003,1.313335e+001
1.655496e+003,1.375929e+001
1.656460e+003,1.459799e+001
1.657425e+003,1.601115e+001
1.658389e+003,1.694525e+001
1.659353e+003,1.641806e+001
1.660317e+003,1.546576e+001
1.661281e+003,1.505327e+001
1.662246e+003,1.519347e+001
1.663210e+003,1.603520e+001
1.664174e+003,1.757088e+001
1.665138e+003,1.786864e+001
1.666103e+003,1.459169e+001
1.667067e+003,1.001437e+001
1.668031e+003,9.103439e+000
1.668995e+003,1.162326e+001
1.669960e+003,1.383647e+001
1.670924e+003,1.577589e+001
1.671888e+003,1.619562e+001
1.672852e+003,1.340045e+001
1.673817e+003,1.074374e+001
1.674781e+003,1.051329e+001
1.675745e+003,1.136679e+001
1.676709e+003,1.212227e+001
1.677674e+003,1.261452e+001
1.678638e+003,1.287923e+001
1.679602e+003,1.292348e+001
1.680566e+003,1.242668e+001
1.681531e+003,1.088309e+001
1.682495e+003,9.156555e+000
1.683459e+003,8.816086e+000
1.684423e+003,9.523010e+000
1.685387e+003,9.425888e+000
1.686352e+003,8.268677e+000
1.687316e+003,7.429764e+000
1.688280e+003,7.331055e+000
1.689244e+003,7.669266e+000
1.690208e+003,8.607971e+000
1.691173e+003,9.540726e+000
1.692137e+003,9.940491e+000
1.693101e+003,9.875305e+000
1.694065e+003,9.040100e+000
1.695030e+003,7.184830e+000
1.695994e+003,6.397522e+000
1.696958e+003,9.190887e+000
1.697922e+003,1.233197e+001
1.698887e+003,1.105794e+001
1.699851e+003,6.973709e+000
1.700815e+003,4.790024e+000
1.701779e+003,4.862152e+000
1.702744e+003,6.005554e+000
1.703708e+003,8.353271e+000
1.704672e+003,1.023987e+001
1.705636e+003,1.021022e+001
1.706601e+003,8.935989e+000
1.707565e+003,7.332443e+000
1.708529e+003,5.622116e+000
1.709493e+003,4.075714e+000
1.710458e+003,2.603775e+000
1.711422e+003,2.262375e+000
1.712386e+003,4.890472e+000
1.713350e+003,7.296112e+000
1.714314e+003,6.263321e+000
1.715279e+003,3.515472e+000
1.716243e+003,1.834854e+000
1.717207e+003,1.374481e+000
1.718171e+003,1.529724e+000
1.719135e+003,2.153900e+000
1.720100e+003,2.906296e+000
1.721064e+003,3.641541e+000
1.722028e+003,3.949921e+000
1.722992e+003,3.117981e+000
1.723957e+003,1.544769e+000
1.724921e+003,9.565125e-001
1.725885e+003,1.369705e+000
1.726849e+003,1.303467e+000
1.727814e+003,-1.436768e-001
1.728778e+003,-7.779388e-001
1.729742e+003,1.210922e+000
1.730706e+003,3.568115e+000
1.731671e+003,3.790054e+000
1.732635e+003,2.535645e+000
1.733599e+003,1.776474e+000
1.734563e+003,1.926193e+000
1.735528e+003,1.936096e+000
1.736492e+003,1.202942e+000
1.737456e+003,7.811890e-001
1.738420e+003,2.097733e+000
1.739385e+003,4.237778e+000
1.740349e+003,4.038757e+000
1.741313e+003,8.718872e-001
1.742277e+003,-9.932251e-001
1.743241e+003,-4.466553e-001
1.744206e+003,-2.427368e-001
1.745170e+003,-1.387833e+000
1.746134e+003,-2.303314e+000
1.747098e+003,-1.789322e+000
1.748063e+003,-8.380432e-001
1.749027e+003,-5.882111e-001
1.749991e+003,-9.835510e-001
1.750955e+003,-1.688080e+000
1.751919e+003,-2.408340e+000
1.752884e+003,-2.108627e+000
1.753848e+003,1.230316e-001
1.754812e+003,2.477631e+000
1.755776e+003,9.876251e-001
1.756741e+003,-4.046158e+000
1.757705e+003,-5.694702e+000
1.758669e+003,-2.865494e+000
1.759633e+003,-8.802795e-002
1.760598e+003,2.792419e+000
1.761562e+003,4.499878e+000
1.762526e+003,4.230591e+000
1.763490e+003,3.355637e+000
1.764455e+003,2.804230e+000
1.765419e+003,2.347290e+000
1.766383e+003,1.154327e+000
1.767347e+003,-6.355896e-001
1.768312e+003,-1.694077e+000
1.769276e+003,-1.417786e+000
1.770240e+003,-7.572632e-001
1.771204e+003,-5.559998e-001
1.772168e+003,-4.753571e-001
1.773133e+003,1.726685e-001
1.774097e+003,1.283142e+000
1.775061e+003,1.809540e+000
1.776025e+003,1.499786e+000
1.776990e+003,8.196564e-001
1.777954e+003,-1.132202e-001
1.778918e+003,-9.367371e-001
1.779882e+003,-1.712143e+000
1.780846e+003,-2.176529e+000
1.781811e+003,-1.366913e+000
1.782775e+003,1.427002e-001
1.783739e+003,3.849792e-002
1.784703e+003,-2.169815e+000
1.785668e+003,-3.532745e+000
1.786632e+003,-2.445084e+000
1.787596e+003,-9.495850e-001
1.788560e+003,-2.237396e-001
1.789525e+003,8.169556e-002
1.790489e+003,6.707764e-002
1.791453e+003,-9.808350e-002
1.792417e+003,2.742004e-001
1.793382e+003,1.257416e+000
1.794346e+003,2.112335e+000
1.795310e+003,2.470322e+000
1.796274e+003,1.889389e+000
1.797239e+003,-4.571991e-001
1.798203e+003,-3.234909e+000
1.799167e+003,-2.201675e+000
1.800131e+003,3.501144e+000
1.801095e+003,5.591339e+000
1.802060e+003,2.182465e+000
1.803024e+003,-1.007675e+000
1.803988e+003,-4.600052e+000
1.804952e+003,-6.601639e+000
1.805917e+003,-4.874268e+000
1.806881e+003,-2.125702e+000
1.807845e+003,-9.813995e-001
1.808809e+003,-1.001587e+000
1.809773e+003,-5.931244e-001
1.810738e+003,5.357513e-001
1.811702e+003,1.360336e+000
1.812666e+003,1.246613e+000
1.813630e+003,1.050873e+000
1.814595e+003,2.079483e+000
1.815559e+003,3.759705e+000
1.816523e+003,3.717026e+000
1.817487e+003,1.809860e+000
1.818452e+003,-3.837585e-002
1.819416e+003,-2.105743e+000
1.820380e+003,-2.651733e+000
1.821344e+003,-1.761017e-001
1.822309e+003,2.236282e+000
1.823273e+003,3.144501e+000
1.824237e+003,2.999710e+000
1.825201e+003,1.555328e+000
1.826166e+003,-5.617371e-001
1.827130e+003,-1.824707e+000
1.828094e+003,-2.005005e+000
1.829058e+003,-1.522430e+000
1.830022e+003,-1.804047e-001
1.830987e+003,1.116318e+000
1.831951e+003,1.945633e+000
1.832915e+003,2.044632e+000
1.833879e+003,1.959381e-001
1.834844e+003,-2.607574e+000
1.835808e+003,-3.092148e+000
1.836772e+003,-9.747467e-001
1.837736e+003,1.076996e+000
1.838700e+003,1.873795e+000
1.839665e+003,1.673981e+000
1.840629e+003,5.211182e-001
1.841593e+003,-7.155914e-001
1.842557e+003,-8.114624e-002
1.843522e+003,2.376740e+000
1.844486e+003,3.406662e+000
1.845450e+003,2.173447e+000
1.846414e+003,1.369720e+000
1.847379e+003,8.229828e-001
1.848343e+003,5.779266e-001
1.849307e+003,8.453369e-001
1.850271e+003,1.339569e+000
1.851236e+003,2.349625e+000
1.852200e+003,3.254272e+000
1.853164e+003,2.809418e+000
1.854128e+003,1.288651e+000
1.855093e+003,2.685547e-001
1.856057e+003,4.009399e-001
1.857021e+003,7.594910e-001
1.857985e+003,4.555969e-001
1.858949e+003,1.189728e-001
1.859914e+003,1.082016e+000
1.860878e+003,3.089233e+000
1.861842e+003,4.626419e+000
1.862806e+003,5.647079e+000
1.863771e+003,5.865402e+000
1.864735e+003,5.021042e+000
1.865699e+003,4.120895e+000
1.866663e+003,3.765305e+000
1.867627e+003,3.354141e+000
1.868592e+003,1.941040e+000
1.869556e+003,1.702881e-001
1.870520e+003,-5.745392e-001
1.871484e+003,-3.964691e-001
1.872449e+003,1.992035e-001
1.873413e+003,1.625336e+000
1.874377e+003,2.951843e+000
1.875341e+003,3.453674e+000
1.876306e+003,3.845963e+000
1.877270e+003,4.797989e+000
1.878234e+003,5.486435e+000
1.879198e+003,4.271851e+000
1.880163e+003,2.633804e+000
1.881127e+003,4.053116e+000
1.882091e+003,7.993362e+000
1.883055e+003,1.022606e+001
1.884020e+003,9.083405e+000
1.884984e+003,6.948364e+000
1.885948e+003,5.970261e+000
1.886912e+003,5.760406e+000
1.887876e+003,5.503510e+000
1.888841e+003,5.285522e+000
1.889805e+003,6.323257e+000
1.890769e+003,9.150635e+000
1.891733e+003,1.030037e+001
1.892698e+003,8.979355e+000
1.893662e+003,6.819336e+000
1.894626e+003,3.205963e+000
1.895590e+003,5.352478e-001
1.896554e+003,1.324554e+000
1.897519e+003,3.431305e+000
1.898483e+003,4.144043e+000
1.899447e+003,3.762970e+000
1.900411e+003,4.153885e+000
1.901376e+003,5.719421e+000
1.902340e+003,6.871201e+000
1.903304e+003,6.950974e+000
1.904268e+003,6.534195e+000
1.905233e+003,5.728485e+000
1.906197e+003,4.910385e+000
1.907161e+003,4.361618e+000
1.908125e+003,4.185394e+000
1.909090e+003,4.760376e+000
1.910054e+003,5.692947e+000
1.911018e+003,5.696564e+000
1.911982e+003,4.491776e+000
1.912947e+003,3.089432e+000
1.913911e+003,2.193115e+000
1.914875e+003,2.024872e+000
1.915839e+003,2.992477e+000
1.916803e+003,4.735504e+000
1.917768e+003,5.821793e+000
1.918732e+003,6.221207e+000
1.919696e+003,6.740707e+000
1.920660e+003,7.706985e+000
1.921625e+003,8.060837e+000
1.922589e+003,7.162857e+000
1.923553e+003,6.127014e+000
1.924517e+003,5.049698e+000
1.925481e+003,4.563843e+000
1.926446e+003,5.927277e+000
1.927410e+003,8.030563e+000
1.928374e+003,8.340546e+000
1.929338e+003,6.817398e+000
1.930303e+003,6.282715e+000
1.931267e+003,8.030319e+000
1.932231e+003,9.442276e+000
1.933195e+003,8.654831e+000
1.934160e+003,7.702927e+000
1.935124e+003,8.463837e+000
1.936088e+003,9.516006e+000
1.937052e+003,9.151093e+000
1.938017e+003,7.776077e+000
1.938981e+003,6.177155e+000
1.939945e+003,4.761017e+000
1.940909e+003,4.250702e+000
1.941874e+003,4.872360e+000
1.942838e+003,5.757217e+000
1.943802e+003,6.194855e+000
1.944766e+003,6.494064e+000
1.945730e+003,7.055023e+000
1.946695e+003,7.780411e+000
1.947659e+003,8.513062e+000
1.948623e+003,9.238556e+000
1.949587e+003,1.003156e+001
1.950552e+003,1.137126e+001
1.951516e+003,1.082610e+001
1.952480e+003,6.194168e+000
1.953444e+003,2.514282e+000
1.954408e+003,4.141891e+000
1.955373e+003,7.676392e+000
1.956337e+003,8.415085e+000
1.957301e+003,7.264023e+000
1.958265e+003,7.188766e+000
1.959230e+003,8.480209e+000
1.960194e+003,8.993423e+000
1.961158e+003,7.286499e+000
1.962122e+003,6.168427e+000
1.963087e+003,6.744736e+000
1.964051e+003,7.679718e+000
1.965015e+003,8.837082e+000
1.965979e+003,9.634369e+000
1.966944e+003,9.102127e+000
1.967908e+003,7.796844e+000
1.968872e+003,6.661469e+000
1.969836e+003,6.050568e+000
1.970801e+003,6.222977e+000
1.971765e+003,7.248245e+000
1.972729e+003,8.480957e+000
1.973693e+003,9.359177e+000
1.974657e+003,1.016418e+001
1.975622e+003,1.185786e+001
1.976586e+003,1.354715e+001
1.977550e+003,1.213332e+001
1.978514e+003,8.418884e+000
1.979479e+003,7.313934e+000
1.980443e+003,9.344345e+000
1.981407e+003,1.060985e+001
1.982371e+003,9.672302e+000
1.983335e+003,8.450027e+000
1.984300e+003,8.293015e+000
1.985264e+003,8.658554e+000
1.986228e+003,8.785507e+000
1.987192e+003,8.785812e+000
1.988157e+003,9.305481e+000
1.989121e+003,1.060443e+001
1.990085e+003,1.128822e+001
1.991049e+003,1.118170e+001
1.992014e+003,1.094543e+001
1.992978e+003,1.054468e+001
1.993942e+003,1.004770e+001
1.994906e+003,8.689590e+000
1.995871e+003,8.050751e+000
1.996835e+003,1.027971e+001
1.997799e+003,1.344823e+001
1.998763e+003,1.460420e+001
1.999728e+003,1.386848e+001
