5.003444e+002,2.325084e+002
5.013087e+002,2.280622e+002
5.022729e+002,2.238163e+002
5.032371e+002,2.205078e+002
5.042014e+002,2.174837e+002
5.051656e+002,2.149246e+002
5.061298e+002,2.133882e+002
5.070941e+002,2.134663e+002
5.080583e+002,2.155586e+002
5.090225e+002,2.145383e+002
5.099868e+002,2.085447e+002
5.109510e+002,2.024097e+002
5.119152e+002,1.991907e+002
5.128795e+002,1.993039e+002
5.138437e+002,1.979762e+002
5.148079e+002,1.913167e+002
5.157722e+002,1.852504e+002
5.167364e+002,1.822601e+002
5.177006e+002,1.822976e+002
5.186649e+002,1.831985e+002
5.196291e+002,1.835959e+002
5.205933e+002,1.838919e+002
5.215576e+002,1.835267e+002
5.225218e+002,1.819946e+002
5.234860e+002,1.791666e+002
5.244503e+002,1.754182e+002
5.254145e+002,1.712128e+002
5.263787e+002,1.679012e+002
5.273430e+002,1.660226e+002
5.283072e+002,1.646640e+002
5.292714e+002,1.621638e+002
5.302357e+002,1.564752e+002
5.311999e+002,1.521609e+002
5.321641e+002,1.515663e+002
5.331284e+002,1.523365e+002
5.340926e+002,1.522999e+002
5.350568e+002,1.502878e+002
5.360211e+002,1.476374e+002
5.369853e+002,1.470200e+002
5.379495e+002,1.469068e+002
5.389138e+002,1.456357e+002
5.398780e+002,1.425192e+002
5.408422e+002,1.382006e+002
5.418065e+002,1.345282e+002
5.427707e+002,1.314277e+002
5.437349e+002,1.283478e+002
5.446992e+002,1.247880e+002
5.456634e+002,1.212132e+002
5.466276e+002,1.195212e+002
5.475919e+002,1.229236e+002
5.485561e+002,1.247832e+002
5.495203e+002,1.242067e+002
5.504846e+002,1.216837e+002
5.514488e+002,1.178563e+002
5.524130e+002,1.123272e+002
5.533773e+002,1.079014e+002
5.543415e+002,1.062742e+002
5.553057e+002,1.060321e+002
5.562700e+002,1.055596e+002
5.572342e+002,1.037935e+002
5.581984e+002,1.015381e+002
5.591627e+002,1.021594e+002
5.601269e+002,1.045855e+002
5.610911e+002,1.053471e+002
5.620554e+002,1.023314e+002
5.630196e+002,9.591937e+001
5.639838e+002,9.168628e+001
5.649481e+002,9.220410e+001
5.659123e+002,9.123401e+001
5.668765e+002,8.705786e+001
5.678408e+002,8.141449e+001
5.688050e+002,7.835474e+001
5.697692e+002,7.932001e+001
5.707335e+002,8.078113e+001
5.716977e+002,8.354401e+001
5.726619e+002,8.597424e+001
5.736262e+002,8.560498e+001
5.745904e+002,8.034222e+001
5.755546e+002,7.397034e+001
5.765189e+002,7.252661e+001
5.774831e+002,7.349524e+001
5.784473e+002,7.304865e+001
5.794116e+002,6.886108e+001
5.803758e+002,6.178003e+001
5.813400e+002,5.787927e+001
5.823043e+002,5.668835e+001
5.832685e+002,5.620514e+001
5.842327e+002,5.684711e+001
5.851970e+002,5.872986e+001
5.861612e+002,6.015845e+001
5.871254e+002,6.007690e+001
5.880897e+002,5.947797e+001
5.890539e+002,5.764343e+001
5.900181e+002,5.525708e+001
5.909824e+002,5.363995e+001
5.919466e+002,5.412341e+001
5.929108e+002,5.511932e+001
5.938751e+002,5.517114e+001
5.948393e+002,5.436414e+001
5.958035e+002,5.265027e+001
5.967678e+002,5.010095e+001
5.977320e+002,4.720959e+001
5.986962e+002,4.589392e+001
5.996605e+002,4.518713e+001
6.006247e+002,4.575104e+001
6.015889e+002,4.917194e+001
6.025532e+002,5.513361e+001
6.035174e+002,5.805316e+001
6.044816e+002,5.486621e+001
6.054459e+002,5.181781e+001
6.064101e+002,4.984369e+001
6.073743e+002,4.851575e+001
6.083386e+002,4.688641e+001
6.093028e+002,4.442383e+001
6.102670e+002,4.204218e+001
6.112313e+002,4.011560e+001
6.121955e+002,3.861035e+001
6.131597e+002,3.733514e+001
6.141240e+002,3.616431e+001
6.150882e+002,3.529974e+001
6.160524e+002,3.648694e+001
6.170167e+002,3.961041e+001
6.179809e+002,4.278577e+001
6.189451e+002,4.527600e+001
6.199094e+002,4.663922e+001
6.208736e+002,4.555402e+001
6.218378e+002,4.005255e+001
6.228021e+002,3.531140e+001
6.237663e+002,3.134369e+001
6.247305e+002,2.868280e+001
6.256948e+002,2.810742e+001
6.266590e+002,3.025739e+001
6.276232e+002,3.252844e+001
6.285875e+002,3.434167e+001
6.295517e+002,3.566821e+001
6.305159e+002,3.638849e+001
6.314802e+002,3.624719e+001
6.324444e+002,3.482196e+001
6.334086e+002,3.010596e+001
6.343729e+002,2.385028e+001
6.353371e+002,2.042096e+001
6.363013e+002,2.174561e+001
6.372656e+002,2.597223e+001
6.382298e+002,2.686896e+001
6.391940e+002,1.954401e+001
6.401583e+002,1.480432e+001
6.411225e+002,1.569708e+001
6.420867e+002,1.887726e+001
6.430510e+002,1.979510e+001
6.440152e+002,1.619342e+001
6.449794e+002,1.203760e+001
6.459437e+002,8.056335e+000
6.469079e+002,5.377869e+000
6.478721e+002,6.107483e+000
6.488364e+002,1.053107e+001
6.498006e+002,1.588409e+001
6.507648e+002,1.688800e+001
6.517291e+002,1.448840e+001
6.526933e+002,1.043402e+001
6.536575e+002,4.794800e+000
6.546218e+002,-4.005737e-001
6.555860e+002,-1.057007e+000
6.565502e+002,6.037170e+000
6.575145e+002,1.094550e+001
6.584787e+002,1.408075e+001
6.594429e+002,1.518030e+001
6.604072e+002,1.300696e+001
6.613714e+002,6.919128e+000
6.623356e+002,2.511780e+000
6.632999e+002,3.414368e+000
6.642641e+002,5.097656e+000
6.652283e+002,5.994080e+000
6.661926e+002,5.956360e+000
6.671568e+002,5.573364e+000
6.681210e+002,4.995972e+000
6.690853e+002,4.389282e+000
6.700495e+002,5.023193e+000
6.710137e+002,6.826599e+000
6.719780e+002,8.325684e+000
6.729422e+002,7.669678e+000
6.739064e+002,3.832825e+000
6.748707e+002,3.038269e+000
6.758349e+002,8.475159e+000
6.767991e+002,1.220471e+001
6.777634e+002,9.726563e+000
6.787276e+002,2.432556e+000
6.796918e+002,-1.595703e+000
6.806561e+002,3.379456e+000
6.816203e+002,8.221619e+000
6.825845e+002,9.792725e+000
6.835488e+002,8.742371e+000
6.845130e+002,6.127625e+000
6.854772e+002,2.495667e+000
6.864415e+002,-1.072388e-001
6.874057e+002,3.154236e+000
6.883699e+002,9.684998e+000
6.893342e+002,1.411981e+001
6.902984e+002,1.350085e+001
6.912626e+002,8.769836e+000
6.922269e+002,5.350464e+000
6.931911e+002,4.020203e+000
6.941553e+002,4.596130e+000
6.951196e+002,8.252441e+000
6.960838e+002,1.252417e+001
6.970480e+002,1.340515e+001
6.980123e+002,8.489868e+000
6.989765e+002,5.020264e+000
6.999407e+002,7.161987e+000
7.009050e+002,1.061450e+001
7.018692e+002,1.232263e+001
7.028334e+002,1.102338e+001
7.037977e+002,7.262329e+000
7.047619e+002,2.429810e-001
7.057261e+002,-7.276062e+000
7.066904e+002,-9.927246e+000
7.076546e+002,-6.856445e+000
7.086188e+002,-7.386475e-001
7.095831e+002,4.426941e+000
7.105473e+002,8.786194e+000
7.115115e+002,1.011542e+001
7.124758e+002,6.293274e+000
7.134400e+002,1.887207e+000
7.144042e+002,-2.099609e-001
7.153685e+002,3.061523e-001
7.163327e+002,1.359192e+000
7.172969e+002,2.537598e+000
7.182612e+002,3.749817e+000
7.192254e+002,5.274231e+000
7.201896e+002,6.491333e+000
7.211539e+002,6.202393e+000
7.221181e+002,3.258911e+000
7.230823e+002,-9.668579e-001
7.240466e+002,-2.836853e+000
7.250108e+002,-2.368286e+000
7.259750e+002,-7.940674e-001
7.269393e+002,7.790527e-001
7.279035e+002,1.858704e+000
7.288677e+002,2.830017e+000
7.298320e+002,6.375366e+000
7.307962e+002,8.482178e+000
7.317604e+002,7.246033e+000
7.327247e+002,5.205872e+000
7.336889e+002,5.864441e+000
7.346531e+002,1.024139e+001
7.356174e+002,1.343964e+001
7.365816e+002,1.484937e+001
7.375458e+002,1.465216e+001
7.385101e+002,1.147083e+001
7.394743e+002,5.819214e+000
7.404385e+002,7.095947e-001
7.414028e+002,8.032837e-001
7.423670e+002,4.409973e+000
7.433312e+002,8.003723e+000
7.442955e+002,1.237085e+001
7.452597e+002,1.602869e+001
7.462239e+002,1.633484e+001
7.471882e+002,1.152539e+001
7.481524e+002,1.004456e+001
7.491166e+002,1.397864e+001
7.500809e+002,1.673322e+001
7.510451e+002,1.559344e+001
7.520093e+002,1.118469e+001
7.529736e+002,6.156799e+000
7.539378e+002,1.278748e+000
7.549020e+002,-1.679321e+000
7.558663e+002,-1.636902e+000
7.568306e+002,4.442749e-001
7.577948e+002,3.594482e+000
7.587590e+002,6.921143e+000
7.597233e+002,9.530762e+000
7.606875e+002,8.967407e+000
7.616517e+002,6.083740e+000
7.626160e+002,5.330078e+000
7.635802e+002,8.816040e+000
7.645444e+002,1.425922e+001
7.655087e+002,1.633875e+001
7.664729e+002,1.190179e+001
7.674371e+002,1.075928e+001
7.684014e+002,1.609753e+001
7.693656e+002,2.183051e+001
7.703298e+002,2.365289e+001
7.712941e+002,2.141937e+001
7.722583e+002,1.949530e+001
7.732225e+002,2.148865e+001
7.741868e+002,2.464502e+001
7.751510e+002,2.793695e+001
7.761152e+002,3.054865e+001
7.770795e+002,3.071472e+001
7.780437e+002,2.674365e+001
7.790079e+002,1.933618e+001
7.799722e+002,1.617322e+001
7.809364e+002,1.731488e+001
7.819006e+002,1.869263e+001
7.828649e+002,1.896844e+001
7.838291e+002,1.886096e+001
7.847933e+002,2.011542e+001
7.857576e+002,2.384302e+001
7.867218e+002,2.535535e+001
7.876860e+002,2.359509e+001
7.886503e+002,2.085364e+001
7.896145e+002,1.839093e+001
7.905787e+002,1.673706e+001
7.915430e+002,1.664398e+001
7.925072e+002,1.961169e+001
7.934714e+002,2.336835e+001
7.944357e+002,2.630463e+001
7.953999e+002,2.853229e+001
7.963641e+002,3.066193e+001
7.973284e+002,3.327167e+001
7.982926e+002,3.654791e+001
7.992568e+002,3.594769e+001
8.002211e+002,2.798083e+001
8.011853e+002,2.074390e+001
8.021495e+002,1.860590e+001
8.031138e+002,2.108490e+001
8.040780e+002,2.404755e+001
8.050422e+002,2.637628e+001
8.060065e+002,2.814417e+001
8.069707e+002,2.921625e+001
8.079349e+002,2.932410e+001
8.088992e+002,2.787189e+001
8.098634e+002,2.512390e+001
8.108276e+002,2.310590e+001
8.117919e+002,2.545514e+001
8.127561e+002,2.900385e+001
8.137203e+002,2.861938e+001
8.146846e+002,2.434192e+001
8.156488e+002,1.946368e+001
8.166130e+002,1.772736e+001
8.175773e+002,1.968213e+001
8.185415e+002,2.052277e+001
8.195057e+002,1.829541e+001
8.204700e+002,1.656500e+001
8.214342e+002,1.655267e+001
8.223984e+002,1.798297e+001
8.233627e+002,2.018909e+001
8.243269e+002,2.381482e+001
8.252911e+002,2.687048e+001
8.262554e+002,2.843658e+001
8.272196e+002,2.882062e+001
8.281838e+002,2.769904e+001
8.291481e+002,2.528558e+001
8.301123e+002,2.289929e+001
8.310765e+002,2.317218e+001
8.320408e+002,2.570587e+001
8.330050e+002,2.660718e+001
8.339692e+002,2.537506e+001
8.349335e+002,2.388824e+001
8.358977e+002,2.455786e+001
8.368619e+002,2.816760e+001
8.378262e+002,3.037903e+001
8.387904e+002,2.912354e+001
8.397546e+002,2.783630e+001
8.407189e+002,2.720905e+001
8.416831e+002,2.725366e+001
8.426473e+002,2.773938e+001
8.436116e+002,2.857593e+001
8.445758e+002,3.021930e+001
8.455400e+002,3.318237e+001
8.465043e+002,3.602423e+001
8.474685e+002,3.782068e+001
8.484327e+002,3.870453e+001
8.493970e+002,3.933398e+001
8.503612e+002,4.014905e+001
8.513254e+002,4.097693e+001
8.522897e+002,4.114716e+001
8.532539e+002,3.991199e+001
8.542181e+002,3.838934e+001
8.551824e+002,3.725275e+001
8.561466e+002,3.716205e+001
8.571108e+002,3.947443e+001
8.580751e+002,4.552191e+001
8.590393e+002,4.997424e+001
8.600035e+002,5.088873e+001
8.609678e+002,5.045471e+001
8.619320e+002,5.071100e+001
8.628962e+002,5.251099e+001
8.638605e+002,5.569928e+001
8.648247e+002,6.133923e+001
8.657889e+002,6.773511e+001
8.667532e+002,7.094641e+001
8.677174e+002,7.045721e+001
8.686816e+002,6.925568e+001
8.696459e+002,7.121466e+001
8.706101e+002,7.743805e+001
8.715743e+002,8.049365e+001
8.725386e+002,7.629987e+001
8.735028e+002,7.451044e+001
8.744670e+002,7.846753e+001
8.754313e+002,8.549078e+001
8.763955e+002,9.111536e+001
8.773597e+002,9.422931e+001
8.783240e+002,9.574292e+001
8.792882e+002,9.484558e+001
8.802524e+002,9.337256e+001
8.812167e+002,9.282599e+001
8.821809e+002,9.366010e+001
8.831451e+002,9.584460e+001
8.841094e+002,9.959271e+001
8.850736e+002,1.051042e+002
8.860378e+002,1.083708e+002
8.870021e+002,1.081721e+002
8.879663e+002,1.089706e+002
8.889305e+002,1.144570e+002
8.898948e+002,1.230834e+002
8.908590e+002,1.273787e+002
8.918232e+002,1.239561e+002
8.927875e+002,1.217872e+002
8.937517e+002,1.234531e+002
8.947159e+002,1.265195e+002
8.956802e+002,1.284539e+002
8.966444e+002,1.285490e+002
8.976086e+002,1.284327e+002
8.985729e+002,1.306472e+002
8.995371e+002,1.340161e+002
9.005013e+002,1.353165e+002
9.014656e+002,1.352409e+002
9.024298e+002,1.366189e+002
9.033940e+002,1.415303e+002
9.043583e+002,1.487762e+002
9.053225e+002,1.521967e+002
9.062867e+002,1.457944e+002
9.072510e+002,1.425195e+002
9.082152e+002,1.462253e+002
9.091794e+002,1.520308e+002
9.101437e+002,1.545398e+002
9.111079e+002,1.528088e+002
9.120721e+002,1.517038e+002
9.130364e+002,1.559706e+002
9.140006e+002,1.589603e+002
9.149648e+002,1.556088e+002
9.159291e+002,1.486921e+002
9.168933e+002,1.439556e+002
9.178575e+002,1.451323e+002
9.188218e+002,1.498873e+002
9.197860e+002,1.511506e+002
9.207502e+002,1.486595e+002
9.217145e+002,1.457621e+002
9.226787e+002,1.436178e+002
9.236429e+002,1.420807e+002
9.246072e+002,1.406207e+002
9.255714e+002,1.389540e+002
9.265356e+002,1.366054e+002
9.274999e+002,1.315528e+002
9.284641e+002,1.274573e+002
9.294283e+002,1.268781e+002
9.303926e+002,1.282957e+002
9.313568e+002,1.288754e+002
9.323210e+002,1.271365e+002
9.332853e+002,1.238022e+002
9.342495e+002,1.185640e+002
9.352137e+002,1.127139e+002
9.361780e+002,1.091948e+002
9.371422e+002,1.089886e+002
9.381064e+002,1.105768e+002
9.390707e+002,1.114882e+002
9.400349e+002,1.110828e+002
9.409991e+002,1.104843e+002
9.419634e+002,1.087354e+002
9.429276e+002,1.077473e+002
9.438918e+002,1.094213e+002
9.448561e+002,1.119341e+002
9.458203e+002,1.118135e+002
9.467845e+002,1.077031e+002
9.477488e+002,1.038789e+002
9.487130e+002,1.039219e+002
9.496772e+002,1.050841e+002
9.506415e+002,1.051310e+002
9.516057e+002,1.040636e+002
9.525699e+002,1.035868e+002
9.535342e+002,1.053818e+002
9.544984e+002,1.086017e+002
9.554626e+002,1.069590e+002
9.564269e+002,1.001310e+002
9.573911e+002,9.496313e+001
9.583553e+002,9.346771e+001
9.593196e+002,9.425464e+001
9.602838e+002,9.549060e+001
9.612480e+002,9.723273e+001
9.622123e+002,9.804883e+001
9.631765e+002,9.697211e+001
9.641407e+002,9.583514e+001
9.651050e+002,9.597369e+001
9.660692e+002,9.630573e+001
9.670334e+002,9.436737e+001
9.679977e+002,8.882819e+001
9.689619e+002,8.275342e+001
9.699261e+002,8.222260e+001
9.708904e+002,8.538812e+001
9.718546e+002,8.880780e+001
9.728188e+002,9.142181e+001
9.737831e+002,9.449951e+001
9.747473e+002,1.003755e+002
9.757115e+002,1.100010e+002
9.766758e+002,1.182402e+002
9.776400e+002,1.262443e+002
9.786042e+002,1.323185e+002
9.795685e+002,1.366899e+002
9.805327e+002,1.377922e+002
9.814969e+002,1.330415e+002
9.824612e+002,1.218766e+002
9.834254e+002,1.097011e+002
9.843896e+002,1.004309e+002
9.853539e+002,9.289069e+001
9.863181e+002,8.600275e+001
9.872823e+002,7.953876e+001
9.882466e+002,7.430200e+001
9.892108e+002,7.153717e+001
9.901750e+002,7.159613e+001
9.911393e+002,7.203217e+001
9.921035e+002,7.156079e+001
9.930677e+002,7.068445e+001
9.940320e+002,6.921606e+001
9.949962e+002,6.851935e+001
9.959604e+002,6.985461e+001
9.969247e+002,7.337433e+001
9.978889e+002,7.820392e+001
9.988531e+002,8.397766e+001
9.998174e+002,8.946509e+001
1.000782e+003,9.563385e+001
1.001746e+003,1.013044e+002
1.002710e+003,1.043197e+002
1.003674e+003,1.038403e+002
1.004639e+003,1.013760e+002
1.005603e+003,9.971667e+001
1.006567e+003,9.873895e+001
1.007531e+003,9.514160e+001
1.008495e+003,8.752771e+001
1.009460e+003,8.035956e+001
1.010424e+003,7.636298e+001
1.011388e+003,7.518402e+001
1.012352e+003,7.515302e+001
1.013317e+003,7.646942e+001
1.014281e+003,7.755542e+001
1.015245e+003,7.907056e+001
1.016209e+003,7.886841e+001
1.017174e+003,7.483282e+001
1.018138e+003,6.757233e+001
1.019102e+003,5.960376e+001
1.020066e+003,5.294769e+001
1.021031e+003,4.782715e+001
1.021995e+003,4.452820e+001
1.022959e+003,4.217480e+001
1.023923e+003,3.878967e+001
1.024887e+003,3.318854e+001
1.025852e+003,2.698230e+001
1.026816e+003,2.319263e+001
1.027780e+003,2.289771e+001
1.028744e+003,2.176990e+001
1.029709e+003,1.890057e+001
1.030673e+003,1.563538e+001
1.031637e+003,1.175616e+001
1.032601e+003,7.656921e+000
1.033566e+003,3.748413e+000
1.034530e+003,3.438110e-001
1.035494e+003,-1.778564e+000
1.036458e+003,-1.834717e+000
1.037422e+003,-2.462158e-001
1.038387e+003,2.927673e+000
1.039351e+003,7.280273e+000
1.040315e+003,1.111438e+001
1.041279e+003,1.339410e+001
1.042244e+003,1.441241e+001
1.043208e+003,1.450995e+001
1.044172e+003,1.211426e+001
1.045136e+003,1.053485e+001
1.046101e+003,1.018658e+001
1.047065e+003,1.071631e+001
1.048029e+003,1.251453e+001
1.048993e+003,1.486115e+001
1.049958e+003,1.570685e+001
1.050922e+003,1.384692e+001
1.051886e+003,1.170654e+001
1.052850e+003,1.122284e+001
1.053814e+003,1.200348e+001
1.054779e+003,1.454504e+001
1.055743e+003,1.837964e+001
1.056707e+003,2.068414e+001
1.057671e+003,1.777979e+001
1.058636e+003,9.519775e+000
1.059600e+003,6.563721e+000
1.060564e+003,1.470264e+001
1.061528e+003,2.065692e+001
1.062493e+003,2.061902e+001
1.063457e+003,1.803290e+001
1.064421e+003,1.702185e+001
1.065385e+003,1.823657e+001
1.066349e+003,1.918658e+001
1.067314e+003,1.869336e+001
1.068278e+003,1.744067e+001
1.069242e+003,1.547205e+001
1.070206e+003,1.354517e+001
1.071171e+003,1.242493e+001
1.072135e+003,1.230084e+001
1.073099e+003,1.307764e+001
1.074063e+003,1.510608e+001
1.075028e+003,1.881494e+001
1.075992e+003,2.027802e+001
1.076956e+003,1.782080e+001
1.077920e+003,1.556610e+001
1.078885e+003,1.601648e+001
1.079849e+003,1.795270e+001
1.080813e+003,1.884900e+001
1.081777e+003,1.835938e+001
1.082741e+003,1.737775e+001
1.083706e+003,1.429370e+001
1.084670e+003,1.165753e+001
1.085634e+003,1.188293e+001
1.086598e+003,1.354877e+001
1.087563e+003,1.389331e+001
1.088527e+003,1.163147e+001
1.089491e+003,8.121582e+000
1.090455e+003,5.091736e+000
1.091420e+003,2.217041e+000
1.092384e+003,1.727478e+000
1.093348e+003,4.359802e+000
1.094312e+003,7.245056e+000
1.095276e+003,9.223022e+000
1.096241e+003,1.072937e+001
1.097205e+003,1.257599e+001
1.098169e+003,1.549200e+001
1.099133e+003,1.570233e+001
1.100098e+003,8.610596e+000
1.101062e+003,1.953857e+000
1.102026e+003,1.399780e+000
1.102990e+003,5.419373e+000
1.103955e+003,9.079590e+000
1.104919e+003,9.296875e+000
1.105883e+003,7.816528e+000
1.106847e+003,8.852722e+000
1.107812e+003,1.235034e+001
1.108776e+003,1.391229e+001
1.109740e+003,1.257831e+001
1.110704e+003,1.094067e+001
1.111668e+003,1.142096e+001
1.112633e+003,1.375684e+001
1.113597e+003,1.540002e+001
1.114561e+003,1.527118e+001
1.115525e+003,1.550317e+001
1.116490e+003,1.776385e+001
1.117454e+003,1.951349e+001
1.118418e+003,1.838123e+001
1.119382e+003,1.586621e+001
1.120347e+003,1.554395e+001
1.121311e+003,1.922369e+001
1.122275e+003,2.413025e+001
1.123239e+003,2.581342e+001
1.124203e+003,2.505109e+001
1.125168e+003,2.469440e+001
1.126132e+003,2.487531e+001
1.127096e+003,2.603412e+001
1.128060e+003,2.894891e+001
1.129025e+003,3.289899e+001
1.129989e+003,3.496832e+001
1.130953e+003,3.360736e+001
1.131917e+003,3.299573e+001
1.132882e+003,3.474512e+001
1.133846e+003,3.737140e+001
1.134810e+003,3.977307e+001
1.135774e+003,4.238159e+001
1.136739e+003,4.655457e+001
1.137703e+003,5.298126e+001
1.138667e+003,6.026605e+001
1.139631e+003,6.595673e+001
1.140595e+003,7.021484e+001
1.141560e+003,7.551654e+001
1.142524e+003,8.211029e+001
1.143488e+003,9.062213e+001
1.144452e+003,1.011763e+002
1.145417e+003,1.138000e+002
1.146381e+003,1.287142e+002
1.147345e+003,1.460308e+002
1.148309e+003,1.650222e+002
1.149274e+003,1.861674e+002
1.150238e+003,2.085571e+002
1.151202e+003,2.330742e+002
1.152166e+003,2.586703e+002
1.153130e+003,2.845383e+002
1.154095e+003,3.094606e+002
1.155059e+003,3.295515e+002
1.156023e+003,3.400864e+002
1.156987e+003,3.409552e+002
1.157952e+003,3.359275e+002
1.158916e+003,3.259707e+002
1.159880e+003,3.106337e+002
1.160844e+003,2.857202e+002
1.161809e+003,2.547368e+002
1.162773e+003,2.267238e+002
1.163737e+003,2.017763e+002
1.164701e+003,1.797742e+002
1.165666e+003,1.630643e+002
1.166630e+003,1.476102e+002
1.167594e+003,1.316451e+002
1.168558e+003,1.160352e+002
1.169522e+003,1.017521e+002
1.170487e+003,8.937610e+001
1.171451e+003,7.972467e+001
1.172415e+003,7.361523e+001
1.173379e+003,7.084613e+001
1.174344e+003,7.196832e+001
1.175308e+003,7.760663e+001
1.176272e+003,8.007239e+001
1.177236e+003,7.515344e+001
1.178201e+003,6.750281e+001
1.179165e+003,6.290393e+001
1.180129e+003,6.105823e+001
1.181093e+003,5.799005e+001
1.182057e+003,5.149243e+001
1.183022e+003,4.633313e+001
1.183986e+003,4.479834e+001
1.184950e+003,4.493701e+001
1.185914e+003,4.534686e+001
1.186879e+003,4.563647e+001
1.187843e+003,4.564624e+001
1.188807e+003,4.507574e+001
1.189771e+003,4.440399e+001
1.190736e+003,4.614264e+001
1.191700e+003,5.073572e+001
1.192664e+003,5.216156e+001
1.193628e+003,4.852429e+001
1.194593e+003,4.399744e+001
1.195557e+003,4.132123e+001
1.196521e+003,3.998737e+001
1.197485e+003,3.862433e+001
1.198449e+003,3.742133e+001
1.199414e+003,3.521118e+001
1.200378e+003,3.115088e+001
1.201342e+003,2.628973e+001
1.202306e+003,1.930914e+001
1.203271e+003,1.211798e+001
1.204235e+003,9.242432e+000
1.205199e+003,1.251227e+001
1.206163e+003,1.763208e+001
1.207128e+003,1.721259e+001
1.208092e+003,1.095215e+001
1.209056e+003,5.352295e+000
1.210020e+003,4.271851e-001
1.210984e+003,-3.960571e+000
1.211949e+003,-7.583801e+000
1.212913e+003,-1.105817e+001
1.213877e+003,-1.513818e+001
1.214841e+003,-1.972858e+001
1.215806e+003,-2.382513e+001
1.216770e+003,-2.696704e+001
1.217734e+003,-2.983728e+001
1.218698e+003,-3.377386e+001
1.219663e+003,-3.765704e+001
1.220627e+003,-3.925787e+001
1.221591e+003,-3.879449e+001
1.222555e+003,-3.931738e+001
1.223520e+003,-4.365381e+001
1.224484e+003,-5.063672e+001
1.225448e+003,-5.552563e+001
1.226412e+003,-5.794788e+001
1.227376e+003,-5.886017e+001
1.228341e+003,-5.725543e+001
1.229305e+003,-5.561737e+001
1.230269e+003,-5.485901e+001
1.231233e+003,-5.518634e+001
1.232198e+003,-5.714093e+001
1.233162e+003,-6.079779e+001
1.234126e+003,-6.383490e+001
1.235090e+003,-6.504480e+001
1.236055e+003,-6.482306e+001
1.237019e+003,-6.256482e+001
1.237983e+003,-5.945990e+001
1.238947e+003,-5.828058e+001
1.239911e+003,-5.997076e+001
1.240876e+003,-6.290540e+001
1.241840e+003,-6.502808e+001
1.242804e+003,-6.632111e+001
1.243768e+003,-6.673254e+001
1.244733e+003,-6.680402e+001
1.245697e+003,-6.499042e+001
1.246661e+003,-5.934528e+001
1.247625e+003,-5.414801e+001
1.248590e+003,-5.262823e+001
1.249554e+003,-5.391260e+001
1.250518e+003,-5.533264e+001
1.251482e+003,-5.597986e+001
1.252447e+003,-5.603558e+001
1.253411e+003,-5.534521e+001
1.254375e+003,-5.371808e+001
1.255339e+003,-5.070404e+001
1.256303e+003,-4.623578e+001
1.257268e+003,-4.235791e+001
1.258232e+003,-4.047095e+001
1.259196e+003,-4.047766e+001
1.260160e+003,-4.240210e+001
1.261125e+003,-4.676453e+001
1.262089e+003,-4.738867e+001
1.263053e+003,-3.957092e+001
1.264017e+003,-3.378992e+001
1.264982e+003,-3.410522e+001
1.265946e+003,-3.603259e+001
1.266910e+003,-3.493701e+001
1.267874e+003,-3.101563e+001
1.268839e+003,-2.740369e+001
1.269803e+003,-2.611823e+001
1.270767e+003,-2.730200e+001
1.271731e+003,-3.210016e+001
1.272695e+003,-4.008337e+001
1.273660e+003,-4.470081e+001
1.274624e+003,-4.552600e+001
1.275588e+003,-4.538367e+001
1.276552e+003,-4.519519e+001
1.277517e+003,-4.458917e+001
1.278481e+003,-4.290247e+001
1.279445e+003,-4.005701e+001
1.280409e+003,-3.865417e+001
1.281374e+003,-4.048505e+001
1.282338e+003,-4.259833e+001
1.283302e+003,-4.360248e+001
1.284266e+003,-4.404163e+001
1.285230e+003,-4.431934e+001
1.286195e+003,-4.475342e+001
1.287159e+003,-4.600287e+001
1.288123e+003,-4.846246e+001
1.289087e+003,-5.077679e+001
1.290052e+003,-4.929114e+001
1.291016e+003,-4.199249e+001
1.291980e+003,-3.956598e+001
1.292944e+003,-4.595947e+001
1.293909e+003,-5.232104e+001
1.294873e+003,-5.504004e+001
1.295837e+003,-5.530579e+001
1.296801e+003,-5.463593e+001
1.297766e+003,-5.336865e+001
1.298730e+003,-5.200775e+001
1.299694e+003,-5.081842e+001
1.300658e+003,-5.024969e+001
1.301622e+003,-5.082709e+001
1.302587e+003,-5.192737e+001
1.303551e+003,-5.299402e+001
1.304515e+003,-5.370477e+001
1.305479e+003,-5.335309e+001
1.306444e+003,-5.135205e+001
1.307408e+003,-4.849005e+001
1.308372e+003,-4.680750e+001
1.309336e+003,-4.630096e+001
1.310301e+003,-4.716125e+001
1.311265e+003,-5.060376e+001
1.312229e+003,-5.344000e+001
1.313193e+003,-5.542548e+001
1.314157e+003,-5.604504e+001
1.315122e+003,-5.347046e+001
1.316086e+003,-4.886261e+001
1.317050e+003,-4.723657e+001
1.318014e+003,-5.204083e+001
1.318979e+003,-5.835303e+001
1.319943e+003,-5.663708e+001
1.320907e+003,-4.791693e+001
1.321871e+003,-4.396368e+001
1.322836e+003,-4.715930e+001
1.323800e+003,-4.999286e+001
1.324764e+003,-4.755310e+001
1.325728e+003,-4.261066e+001
1.326693e+003,-3.998859e+001
1.327657e+003,-4.005908e+001
1.328621e+003,-4.087854e+001
1.329585e+003,-4.121393e+001
1.330549e+003,-4.133392e+001
1.331514e+003,-4.325592e+001
1.332478e+003,-4.526935e+001
1.333442e+003,-4.451935e+001
1.334406e+003,-4.166559e+001
1.335371e+003,-4.021777e+001
1.336335e+003,-4.225854e+001
1.337299e+003,-4.586261e+001
1.338263e+003,-4.752869e+001
1.339228e+003,-4.708673e+001
1.340192e+003,-4.611218e+001
1.341156e+003,-4.447443e+001
1.342120e+003,-4.257281e+001
1.343084e+003,-3.926868e+001
1.344049e+003,-3.746240e+001
1.345013e+003,-4.057874e+001
1.345977e+003,-4.670471e+001
1.346941e+003,-5.052466e+001
1.347906e+003,-5.015692e+001
1.348870e+003,-4.756189e+001
1.349834e+003,-4.308545e+001
1.350798e+003,-3.907532e+001
1.351763e+003,-4.011084e+001
1.352727e+003,-4.519910e+001
1.353691e+003,-4.912427e+001
1.354655e+003,-5.003326e+001
1.355620e+003,-4.893665e+001
1.356584e+003,-4.627148e+001
1.357548e+003,-4.220319e+001
1.358512e+003,-3.939642e+001
1.359476e+003,-3.856451e+001
1.360441e+003,-3.871149e+001
1.361405e+003,-4.070184e+001
1.362369e+003,-4.198071e+001
1.363333e+003,-4.023175e+001
1.364298e+003,-3.744757e+001
1.365262e+003,-3.672882e+001
1.366226e+003,-3.855304e+001
1.367190e+003,-4.070569e+001
1.368155e+003,-4.121820e+001
1.369119e+003,-4.053253e+001
1.370083e+003,-3.995325e+001
1.371047e+003,-3.941870e+001
1.372011e+003,-3.827899e+001
1.372976e+003,-3.638434e+001
1.373940e+003,-3.494305e+001
1.374904e+003,-3.452228e+001
1.375868e+003,-3.438043e+001
1.376833e+003,-3.351373e+001
1.377797e+003,-3.210626e+001
1.378761e+003,-3.151959e+001
1.379725e+003,-3.239270e+001
1.380690e+003,-3.367725e+001
1.381654e+003,-3.482184e+001
1.382618e+003,-3.525433e+001
1.383582e+003,-3.398010e+001
1.384547e+003,-3.111902e+001
1.385511e+003,-2.772424e+001
1.386475e+003,-2.428564e+001
1.387439e+003,-2.135620e+001
1.388403e+003,-1.984186e+001
1.389368e+003,-1.977985e+001
1.390332e+003,-1.971912e+001
1.391296e+003,-1.910223e+001
1.392260e+003,-1.903516e+001
1.393225e+003,-2.031799e+001
1.394189e+003,-2.174115e+001
1.395153e+003,-2.235089e+001
1.396117e+003,-2.273175e+001
1.397082e+003,-2.388513e+001
1.398046e+003,-2.591956e+001
1.399010e+003,-2.838330e+001
1.399974e+003,-3.115863e+001
1.400938e+003,-3.381775e+001
1.401903e+003,-3.358716e+001
1.402867e+003,-2.851477e+001
1.403831e+003,-2.422601e+001
1.404795e+003,-2.156836e+001
1.405760e+003,-1.945361e+001
1.406724e+003,-1.815948e+001
1.407688e+003,-1.805969e+001
1.408652e+003,-1.879596e+001
1.409617e+003,-1.999188e+001
1.410581e+003,-2.229645e+001
1.411545e+003,-2.640399e+001
1.412509e+003,-2.938135e+001
1.413474e+003,-2.742279e+001
1.414438e+003,-2.372992e+001
1.415402e+003,-2.295422e+001
1.416366e+003,-2.450470e+001
1.417330e+003,-2.625806e+001
1.418295e+003,-2.775873e+001
1.419259e+003,-2.778558e+001
1.420223e+003,-2.370325e+001
1.421187e+003,-1.685938e+001
1.422152e+003,-1.495044e+001
1.423116e+003,-1.980396e+001
1.424080e+003,-2.257489e+001
1.425044e+003,-1.880627e+001
1.426009e+003,-1.548566e+001
1.426973e+003,-1.643304e+001
1.427937e+003,-1.889496e+001
1.428901e+003,-1.946899e+001
1.429865e+003,-1.760352e+001
1.430830e+003,-1.444214e+001
1.431794e+003,-1.098248e+001
1.432758e+003,-8.216919e+000
1.433722e+003,-7.761536e+000
1.434687e+003,-9.328064e+000
1.435651e+003,-9.295349e+000
1.436615e+003,-9.037476e+000
1.437579e+003,-7.781738e+000
1.438544e+003,-3.656128e+000
1.439508e+003,5.981445e-003
1.440472e+003,7.811279e-001
1.441436e+003,3.491211e-002
1.442401e+003,4.160767e-001
1.443365e+003,2.331604e+000
1.444329e+003,3.740173e+000
1.445293e+003,3.182190e+000
1.446257e+003,1.651611e+000
1.447222e+003,7.733765e-001
1.448186e+003,3.247070e-001
1.449150e+003,-6.814575e-001
1.450114e+003,-2.710571e+000
1.451079e+003,-4.291687e+000
1.452043e+003,-3.785339e+000
1.453007e+003,-2.504150e+000
1.453971e+003,-2.803711e+000
1.454936e+003,-4.587646e+000
1.455900e+003,-5.689392e+000
1.456864e+003,-5.441040e+000
1.457828e+003,-4.506042e+000
1.458792e+003,-3.263428e+000
1.459757e+003,-1.968628e+000
1.460721e+003,-1.865845e-001
1.461685e+003,1.330566e+000
1.462649e+003,1.004333e+000
1.463614e+003,-1.290466e+000
1.464578e+003,-3.978577e+000
1.465542e+003,-5.979065e+000
1.466506e+003,-7.300293e+000
1.467471e+003,-7.463562e+000
1.468435e+003,-5.952271e+000
1.469399e+003,-3.528931e+000
1.470363e+003,1.397644e+000
1.471328e+003,3.824829e+000
1.472292e+003,-2.135620e-001
1.473256e+003,-5.073303e+000
1.474220e+003,-5.872131e+000
1.475184e+003,-3.675476e+000
1.476149e+003,-1.748840e+000
1.477113e+003,-1.523315e+000
1.478077e+003,-2.450317e+000
1.479041e+003,-3.778748e+000
1.480006e+003,-4.580078e+000
1.480970e+003,-2.426147e+000
1.481934e+003,3.263123e+000
1.482898e+003,7.735535e+000
1.483863e+003,1.057062e+001
1.484827e+003,1.272046e+001
1.485791e+003,1.447772e+001
1.486755e+003,1.626123e+001
1.487719e+003,1.855835e+001
1.488684e+003,2.073810e+001
1.489648e+003,2.101031e+001
1.490612e+003,1.911700e+001
1.491576e+003,1.857104e+001
1.492541e+003,2.237207e+001
1.493505e+003,2.859161e+001
1.494469e+003,3.306183e+001
1.495433e+003,3.576526e+001
1.496398e+003,3.939960e+001
1.497362e+003,4.516028e+001
1.498326e+003,5.116241e+001
1.499290e+003,5.576874e+001
1.500255e+003,6.038422e+001
1.501219e+003,6.648224e+001
1.502183e+003,7.404242e+001
1.503147e+003,8.357031e+001
1.504111e+003,9.556128e+001
1.505076e+003,1.073633e+002
1.506040e+003,1.157865e+002
1.507004e+003,1.254294e+002
1.507968e+003,1.416516e+002
1.508933e+003,1.620669e+002
1.509897e+003,1.820350e+002
1.510861e+003,2.012071e+002
1.511825e+003,2.208176e+002
1.512790e+003,2.406829e+002
1.513754e+003,2.619884e+002
1.514718e+003,2.884631e+002
1.515682e+003,3.196828e+002
1.516646e+003,3.496295e+002
1.517611e+003,3.797927e+002
1.518575e+003,4.051849e+002
1.519539e+003,4.225616e+002
1.520503e+003,4.373589e+002
1.521468e+003,4.533853e+002
1.522432e+003,4.676296e+002
1.523396e+003,4.768068e+002
1.524360e+003,4.796218e+002
1.525325e+003,4.751914e+002
1.526289e+003,4.630392e+002
1.527253e+003,4.453934e+002
1.528217e+003,4.258448e+002
1.529182e+003,4.047366e+002
1.530146e+003,3.814277e+002
1.531110e+003,3.552794e+002
1.532074e+003,3.271849e+002
1.533039e+003,2.953214e+002
1.534003e+003,2.622252e+002
1.534967e+003,2.285378e+002
1.535931e+003,1.961772e+002
1.536896e+003,1.660031e+002
1.537860e+003,1.390086e+002
1.538824e+003,1.168306e+002
1.539788e+003,9.998169e+001
1.540752e+003,8.663696e+001
1.541717e+003,7.471991e+001
1.542681e+003,6.450726e+001
1.543645e+003,5.614746e+001
1.544609e+003,5.026807e+001
1.545573e+003,4.608014e+001
1.546538e+003,4.363879e+001
1.547502e+003,4.157739e+001
1.548466e+003,3.911224e+001
1.549430e+003,3.804840e+001
1.550395e+003,4.116107e+001
1.551359e+003,4.668488e+001
1.552323e+003,4.993231e+001
1.553287e+003,4.934375e+001
1.554252e+003,4.705029e+001
1.555216e+003,4.489746e+001
1.556180e+003,4.210077e+001
1.557144e+003,3.611981e+001
1.558109e+003,2.701746e+001
1.559073e+003,2.153442e+001
1.560037e+003,2.034894e+001
1.561001e+003,2.036108e+001
1.561966e+003,2.272668e+001
1.562930e+003,2.493146e+001
1.563894e+003,2.316608e+001
1.564858e+003,1.923022e+001
1.565823e+003,1.833997e+001
1.566787e+003,2.128857e+001
1.567751e+003,2.386615e+001
1.568715e+003,2.357532e+001
1.569679e+003,2.297388e+001
1.570644e+003,2.593341e+001
1.571608e+003,3.042865e+001
1.572572e+003,3.074188e+001
1.573536e+003,2.684845e+001
1.574500e+003,2.495795e+001
1.575465e+003,2.773181e+001
1.576429e+003,3.174414e+001
1.577393e+003,3.440753e+001
1.578357e+003,3.604419e+001
1.579322e+003,3.773499e+001
1.580286e+003,3.959442e+001
1.581250e+003,4.040546e+001
1.582214e+003,3.948572e+001
1.583179e+003,3.857776e+001
1.584143e+003,3.902722e+001
1.585107e+003,3.969653e+001
1.586071e+003,3.959259e+001
1.587036e+003,3.924536e+001
1.588000e+003,3.845343e+001
1.588964e+003,3.671375e+001
1.589928e+003,3.702350e+001
1.590893e+003,4.371722e+001
1.591857e+003,5.144568e+001
1.592821e+003,5.031189e+001
1.593785e+003,4.244788e+001
1.594750e+003,4.061096e+001
1.595714e+003,4.715814e+001
1.596678e+003,5.312073e+001
1.597642e+003,5.473071e+001
1.598606e+003,5.506000e+001
1.599571e+003,5.615912e+001
1.600535e+003,5.802570e+001
1.601499e+003,6.123077e+001
1.602463e+003,6.515796e+001
1.603427e+003,6.730914e+001
1.604392e+003,6.658954e+001
1.605356e+003,6.485376e+001
1.606320e+003,6.357837e+001
1.607284e+003,6.290735e+001
1.608249e+003,6.349988e+001
1.609213e+003,6.542230e+001
1.610177e+003,6.637726e+001
1.611141e+003,6.538135e+001
1.612106e+003,6.495648e+001
1.613070e+003,6.795538e+001
1.614034e+003,7.033734e+001
1.614998e+003,6.768988e+001
1.615963e+003,6.302417e+001
1.616927e+003,6.162482e+001
1.617891e+003,6.401593e+001
1.618855e+003,6.714526e+001
1.619820e+003,6.921545e+001
1.620784e+003,6.990125e+001
1.621748e+003,6.867090e+001
1.622712e+003,6.660455e+001
1.623677e+003,6.767010e+001
1.624641e+003,7.286615e+001
1.625605e+003,7.553217e+001
1.626569e+003,7.118286e+001
1.627533e+003,6.720471e+001
1.628498e+003,6.779315e+001
1.629462e+003,7.059259e+001
1.630426e+003,7.485718e+001
1.631390e+003,7.921002e+001
1.632354e+003,8.088861e+001
1.633319e+003,7.947656e+001
1.634283e+003,7.795941e+001
1.635247e+003,7.860022e+001
1.636211e+003,7.996259e+001
1.637176e+003,7.938397e+001
1.638140e+003,7.723199e+001
1.639104e+003,7.667358e+001
1.640068e+003,7.833533e+001
1.641033e+003,7.869086e+001
1.641997e+003,7.597217e+001
1.642961e+003,7.348004e+001
1.643925e+003,7.265387e+001
1.644890e+003,7.287000e+001
1.645854e+003,7.379138e+001
1.646818e+003,7.503149e+001
1.647782e+003,7.579156e+001
1.648747e+003,7.587793e+001
1.649711e+003,7.664557e+001
1.650675e+003,7.992188e+001
1.651639e+003,8.384949e+001
1.652604e+003,8.330798e+001
1.653568e+003,7.831635e+001
1.654532e+003,7.602417e+001
1.655496e+003,7.799084e+001
1.656460e+003,7.836859e+001
1.657425e+003,7.463708e+001
1.658389e+003,7.043915e+001
1.659353e+003,6.697925e+001
1.660317e+003,6.457635e+001
1.661281e+003,6.438666e+001
1.662246e+003,6.533215e+001
1.663210e+003,6.445850e+001
1.664174e+003,6.099377e+001
1.665138e+003,5.735419e+001
1.666103e+003,5.523730e+001
1.667067e+003,5.426044e+001
1.668031e+003,5.424872e+001
1.668995e+003,5.518707e+001
1.669960e+003,5.525140e+001
1.670924e+003,5.398132e+001
1.671888e+003,5.383398e+001
1.672852e+003,5.662500e+001
1.673817e+003,5.873322e+001
1.674781e+003,5.723486e+001
1.675745e+003,5.432764e+001
1.676709e+003,5.203046e+001
1.677674e+003,5.048706e+001
1.678638e+003,4.952057e+001
1.679602e+003,4.908850e+001
1.680566e+003,4.871313e+001
1.681531e+003,4.842822e+001
1.682495e+003,4.794781e+001
1.683459e+003,4.581671e+001
1.684423e+003,4.229388e+001
1.685387e+003,4.089154e+001
1.686352e+003,4.245172e+001
1.687316e+003,4.271692e+001
1.688280e+003,3.965320e+001
1.689244e+003,3.622491e+001
1.690208e+003,3.408008e+001
1.691173e+003,3.292664e+001
1.692137e+003,3.299530e+001
1.693101e+003,3.422339e+001
1.694065e+003,3.593848e+001
1.695030e+003,3.771326e+001
1.695994e+003,3.804456e+001
1.696958e+003,3.562909e+001
1.697922e+003,3.216962e+001
1.698887e+003,2.931439e+001
1.699851e+003,2.730469e+001
1.700815e+003,2.693250e+001
1.701779e+003,2.803632e+001
1.702744e+003,2.849530e+001
1.703708e+003,2.802728e+001
1.704672e+003,2.694287e+001
1.705636e+003,2.445660e+001
1.706601e+003,2.146759e+001
1.707565e+003,1.994385e+001
1.708529e+003,1.979102e+001
1.709493e+003,2.016376e+001
1.710458e+003,2.103235e+001
1.711422e+003,2.122485e+001
1.712386e+003,2.007538e+001
1.713350e+003,1.888544e+001
1.714314e+003,1.853571e+001
1.715279e+003,1.824469e+001
1.716243e+003,1.665436e+001
1.717207e+003,1.415057e+001
1.718171e+003,1.281158e+001
1.719135e+003,1.328662e+001
1.720100e+003,1.440002e+001
1.721064e+003,1.547906e+001
1.722028e+003,1.593756e+001
1.722992e+003,1.495667e+001
1.723957e+003,1.325092e+001
1.724921e+003,1.283575e+001
1.725885e+003,1.328619e+001
1.726849e+003,1.357855e+001
1.727814e+003,1.492206e+001
1.728778e+003,1.556702e+001
1.729742e+003,1.372858e+001
1.730706e+003,1.152429e+001
1.731671e+003,1.074994e+001
1.732635e+003,1.066772e+001
1.733599e+003,1.005634e+001
1.734563e+003,9.184998e+000
1.735528e+003,9.479919e+000
1.736492e+003,1.152423e+001
1.737456e+003,1.366028e+001
1.738420e+003,1.387378e+001
1.739385e+003,1.252484e+001
1.740349e+003,1.207129e+001
1.741313e+003,1.322717e+001
1.742277e+003,1.299255e+001
1.743241e+003,1.102075e+001
1.744206e+003,8.913940e+000
1.745170e+003,5.325195e+000
1.746134e+003,3.048096e+000
1.747098e+003,4.742676e+000
1.748063e+003,7.674011e+000
1.749027e+003,9.081177e+000
1.749991e+003,8.777466e+000
1.750955e+003,6.885559e+000
1.751919e+003,3.918152e+000
1.752884e+003,2.525208e+000
1.753848e+003,4.972473e+000
1.754812e+003,8.535156e+000
1.755776e+003,7.666443e+000
1.756741e+003,2.869690e+000
1.757705e+003,6.633301e-001
1.758669e+003,1.381714e+000
1.759633e+003,2.915710e+000
1.760598e+003,5.975586e+000
1.761562e+003,7.962036e+000
1.762526e+003,8.146240e+000
1.763490e+003,7.652405e+000
1.764455e+003,7.533508e+000
1.765419e+003,7.235779e+000
1.766383e+003,4.665100e+000
1.767347e+003,3.515625e-001
1.768312e+003,-1.652283e+000
1.769276e+003,4.988403e-001
1.770240e+003,3.840576e+000
1.771204e+003,6.158875e+000
1.772168e+003,7.696411e+000
1.773133e+003,7.932129e+000
1.774097e+003,7.023621e+000
1.775061e+003,6.983582e+000
1.776025e+003,7.928650e+000
1.776990e+003,7.315369e+000
1.777954e+003,3.617188e+000
1.778918e+003,9.294434e-001
1.779882e+003,3.316223e+000
1.780846e+003,6.808838e+000
1.781811e+003,5.841003e+000
1.782775e+003,1.886780e+000
1.783739e+003,-4.455566e-001
1.784703e+003,-3.421021e-001
1.785668e+003,6.991577e-001
1.786632e+003,2.213928e+000
1.787596e+003,3.429321e+000
1.788560e+003,4.202881e+000
1.789525e+003,4.953064e+000
1.790489e+003,5.803284e+000
1.791453e+003,6.540527e+000
1.792417e+003,7.061523e+000
1.793382e+003,7.332947e+000
1.794346e+003,6.935669e+000
1.795310e+003,5.520691e+000
1.796274e+003,4.313965e+000
1.797239e+003,5.142395e+000
1.798203e+003,7.425171e+000
1.799167e+003,7.810059e+000
1.800131e+003,5.060181e+000
1.801095e+003,3.801331e+000
1.802060e+003,6.154907e+000
1.803024e+003,7.819763e+000
1.803988e+003,7.143372e+000
1.804952e+003,6.735779e+000
1.805917e+003,8.618042e+000
1.806881e+003,1.067365e+001
1.807845e+003,1.071503e+001
1.808809e+003,9.414124e+000
1.809773e+003,8.340149e+000
1.810738e+003,7.921814e+000
1.811702e+003,7.656250e+000
1.812666e+003,7.209045e+000
1.813630e+003,7.215210e+000
1.814595e+003,8.796509e+000
1.815559e+003,1.111127e+001
1.816523e+003,1.072589e+001
1.817487e+003,7.373474e+000
1.818452e+003,5.317566e+000
1.819416e+003,5.176086e+000
1.820380e+003,6.135559e+000
1.821344e+003,8.398499e+000
1.822309e+003,1.041449e+001
1.823273e+003,1.184155e+001
1.824237e+003,1.266290e+001
1.825201e+003,1.190491e+001
1.826166e+003,1.034546e+001
1.827130e+003,1.049304e+001
1.828094e+003,1.259149e+001
1.829058e+003,1.397253e+001
1.830022e+003,1.358215e+001
1.830987e+003,1.227112e+001
1.831951e+003,1.023578e+001
1.832915e+003,8.089172e+000
1.833879e+003,6.448486e+000
1.834844e+003,5.470764e+000
1.835808e+003,5.670471e+000
1.836772e+003,7.044067e+000
1.837736e+003,8.585999e+000
1.838700e+003,9.708191e+000
1.839665e+003,1.040912e+001
1.840629e+003,1.075018e+001
1.841593e+003,1.113647e+001
1.842557e+003,1.228015e+001
1.843522e+003,1.414209e+001
1.844486e+003,1.512427e+001
1.845450e+003,1.497302e+001
1.846414e+003,1.528571e+001
1.847379e+003,1.573553e+001
1.848343e+003,1.594940e+001
1.849307e+003,1.662915e+001
1.850271e+003,1.659314e+001
1.851236e+003,1.413031e+001
1.852200e+003,1.130219e+001
1.853164e+003,1.095117e+001
1.854128e+003,1.238446e+001
1.855093e+003,1.284192e+001
1.856057e+003,1.167023e+001
1.857021e+003,1.073682e+001
1.857985e+003,1.137604e+001
1.858949e+003,1.305194e+001
1.859914e+003,1.553882e+001
1.860878e+003,1.853229e+001
1.861842e+003,1.939038e+001
1.862806e+003,1.791382e+001
1.863771e+003,1.742657e+001
1.864735e+003,1.852228e+001
1.865699e+003,1.969611e+001
1.866663e+003,2.062006e+001
1.867627e+003,2.144897e+001
1.868592e+003,2.227417e+001
1.869556e+003,2.246051e+001
1.870520e+003,2.097437e+001
1.871484e+003,1.815070e+001
1.872449e+003,1.654333e+001
1.873413e+003,1.752441e+001
1.874377e+003,1.923260e+001
1.875341e+003,2.033661e+001
1.876306e+003,2.139008e+001
1.877270e+003,2.322626e+001
1.878234e+003,2.444543e+001
1.879198e+003,2.329706e+001
1.880163e+003,2.089099e+001
1.881127e+003,1.915497e+001
1.882091e+003,1.849457e+001
1.883055e+003,1.854919e+001
1.884020e+003,1.908423e+001
1.884984e+003,1.988531e+001
1.885948e+003,2.076422e+001
1.886912e+003,2.206262e+001
1.887876e+003,2.490289e+001
1.888841e+003,2.897345e+001
1.889805e+003,2.917572e+001
1.890769e+003,2.423914e+001
1.891733e+003,2.267529e+001
1.892698e+003,2.713776e+001
1.893662e+003,2.970844e+001
1.894626e+003,2.631226e+001
1.895590e+003,2.236487e+001
1.896554e+003,2.172070e+001
1.897519e+003,2.282794e+001
1.898483e+003,2.378204e+001
1.899447e+003,2.434119e+001
1.900411e+003,2.510962e+001
1.901376e+003,2.634277e+001
1.902340e+003,2.713068e+001
1.903304e+003,2.671216e+001
1.904268e+003,2.629602e+001
1.905233e+003,2.652325e+001
1.906197e+003,2.745392e+001
1.907161e+003,2.995612e+001
1.908125e+003,3.293707e+001
1.909090e+003,3.410034e+001
1.910054e+003,3.332428e+001
1.911018e+003,3.201831e+001
1.911982e+003,3.089069e+001
1.912947e+003,2.975964e+001
1.913911e+003,2.838318e+001
1.914875e+003,2.728491e+001
1.915839e+003,2.715289e+001
1.916803e+003,2.771381e+001
1.917768e+003,2.913690e+001
1.918732e+003,3.196960e+001
1.919696e+003,3.372095e+001
1.920660e+003,3.462915e+001
1.921625e+003,3.407568e+001
1.922589e+003,2.969421e+001
1.923553e+003,2.696820e+001
1.924517e+003,3.113940e+001
1.925481e+003,3.622925e+001
1.926446e+003,3.699475e+001
1.927410e+003,3.490985e+001
1.928374e+003,3.230188e+001
1.929338e+003,2.939667e+001
1.930303e+003,2.791113e+001
1.931267e+003,2.907916e+001
1.932231e+003,3.076636e+001
1.933195e+003,3.148322e+001
1.934160e+003,3.228094e+001
1.935124e+003,3.505145e+001
1.936088e+003,3.723920e+001
1.937052e+003,3.470978e+001
1.938017e+003,2.998169e+001
1.938981e+003,2.875519e+001
1.939945e+003,3.144427e+001
1.940909e+003,3.461542e+001
1.941874e+003,3.648175e+001
1.942838e+003,3.717810e+001
1.943802e+003,3.704938e+001
1.944766e+003,3.708051e+001
1.945730e+003,3.890649e+001
1.946695e+003,4.188226e+001
1.947659e+003,4.211420e+001
1.948623e+003,3.911395e+001
1.949587e+003,3.837933e+001
1.950552e+003,4.168353e+001
1.951516e+003,4.289691e+001
1.952480e+003,3.884631e+001
1.953444e+003,3.458508e+001
1.954408e+003,3.281891e+001
1.955373e+003,3.316339e+001
1.956337e+003,3.708435e+001
1.957301e+003,4.327539e+001
1.958265e+003,4.529993e+001
1.959230e+003,4.236584e+001
1.960194e+003,4.130322e+001
1.961158e+003,4.446844e+001
1.962122e+003,4.624915e+001
1.963087e+003,4.363318e+001
1.964051e+003,4.137415e+001
1.965015e+003,4.313208e+001
1.965979e+003,4.636584e+001
1.966944e+003,4.855426e+001
1.967908e+003,4.939514e+001
1.968872e+003,4.890405e+001
1.969836e+003,4.766217e+001
1.970801e+003,4.734052e+001
1.971765e+003,4.856781e+001
1.972729e+003,4.928601e+001
1.973693e+003,4.738049e+001
1.974657e+003,4.502094e+001
1.975622e+003,4.541528e+001
1.976586e+003,4.769379e+001
1.977550e+003,5.030463e+001
1.978514e+003,5.310663e+001
1.979479e+003,5.530902e+001
1.980443e+003,5.663489e+001
1.981407e+003,5.547681e+001
1.982371e+003,5.116962e+001
1.983335e+003,4.827740e+001
1.984300e+003,5.026312e+001
1.985264e+003,5.414154e+001
1.986228e+003,5.558337e+001
1.987192e+003,5.508911e+001
1.988157e+003,5.541235e+001
1.989121e+003,5.728870e+001
1.990085e+003,5.668097e+001
1.991049e+003,5.099115e+001
1.992014e+003,4.848785e+001
1.992978e+003,5.224969e+001
1.993942e+003,5.609021e+001
1.994906e+003,5.898840e+001
1.995871e+003,6.015808e+001
1.996835e+003,5.729053e+001
1.997799e+003,5.357202e+001
1.998763e+003,5.345258e+001
1.999728e+003,5.653625e+001
