5.003444e+002,3.541583e+001
5.013087e+002,3.524756e+001
5.022729e+002,3.512131e+001
5.032371e+002,3.499152e+001
5.042014e+002,3.392526e+001
5.051656e+002,3.213971e+001
5.061298e+002,3.058786e+001
5.070941e+002,3.017212e+001
5.080583e+002,3.118668e+001
5.090225e+002,3.099597e+001
5.099868e+002,2.840979e+001
5.109510e+002,2.621948e+001
5.119152e+002,2.623413e+001
5.128795e+002,2.870010e+001
5.138437e+002,3.059003e+001
5.148079e+002,3.099054e+001
5.157722e+002,3.061887e+001
5.167364e+002,2.902353e+001
5.177006e+002,2.652643e+001
5.186649e+002,2.436642e+001
5.196291e+002,2.459344e+001
5.205933e+002,2.612271e+001
5.215576e+002,2.781015e+001
5.225218e+002,2.922507e+001
5.234860e+002,2.998834e+001
5.244503e+002,2.960852e+001
5.254145e+002,2.792990e+001
5.263787e+002,2.620337e+001
5.273430e+002,2.425565e+001
5.283072e+002,2.236795e+001
5.292714e+002,2.083267e+001
5.302357e+002,1.933197e+001
5.311999e+002,1.843588e+001
5.321641e+002,1.866882e+001
5.331284e+002,1.943860e+001
5.340926e+002,2.049619e+001
5.350568e+002,2.173065e+001
5.360211e+002,2.206442e+001
5.369853e+002,1.969391e+001
5.379495e+002,1.689157e+001
5.389138e+002,1.568954e+001
5.398780e+002,1.672110e+001
5.408422e+002,1.888089e+001
5.418065e+002,1.911761e+001
5.427707e+002,1.771399e+001
5.437349e+002,1.647858e+001
5.446992e+002,1.578363e+001
5.456634e+002,1.556519e+001
5.466276e+002,1.567044e+001
5.475919e+002,1.662228e+001
5.485561e+002,1.742294e+001
5.495203e+002,1.829309e+001
5.504846e+002,1.876404e+001
5.514488e+002,1.809946e+001
5.524130e+002,1.560986e+001
5.533773e+002,1.317883e+001
5.543415e+002,1.167502e+001
5.553057e+002,1.076654e+001
5.562700e+002,1.006943e+001
5.572342e+002,9.325928e+000
5.581984e+002,8.718933e+000
5.591627e+002,9.207550e+000
5.601269e+002,1.037491e+001
5.610911e+002,1.093646e+001
5.620554e+002,1.010162e+001
5.630196e+002,8.078400e+000
5.639838e+002,7.430450e+000
5.649481e+002,9.514862e+000
5.659123e+002,1.101102e+001
5.668765e+002,1.149734e+001
5.678408e+002,1.126102e+001
5.688050e+002,1.077850e+001
5.697692e+002,9.512909e+000
5.707335e+002,8.329865e+000
5.716977e+002,7.452606e+000
5.726619e+002,6.955200e+000
5.736262e+002,7.107269e+000
5.745904e+002,8.296814e+000
5.755546e+002,9.480347e+000
5.765189e+002,8.411255e+000
5.774831e+002,6.028229e+000
5.784473e+002,4.301727e+000
5.794116e+002,4.641266e+000
5.803758e+002,6.889709e+000
5.813400e+002,7.452759e+000
5.823043e+002,5.549377e+000
5.832685e+002,3.879089e+000
5.842327e+002,3.745422e+000
5.851970e+002,4.991150e+000
5.861612e+002,5.833374e+000
5.871254e+002,5.065643e+000
5.880897e+002,4.728485e+000
5.890539e+002,6.108643e+000
5.900181e+002,7.909363e+000
5.909824e+002,7.716278e+000
5.919466e+002,3.194305e+000
5.929108e+002,-1.708191e+000
5.938751e+002,-3.051453e+000
5.948393e+002,-1.931549e+000
5.958035e+002,4.453430e-001
5.967678e+002,3.172668e+000
5.977320e+002,6.032928e+000
5.986962e+002,6.109283e+000
5.996605e+002,3.097809e+000
6.006247e+002,8.889465e-001
6.015889e+002,2.020264e+000
6.025532e+002,6.173401e+000
6.035174e+002,8.287170e+000
6.044816e+002,6.092224e+000
6.054459e+002,4.170135e+000
6.064101e+002,3.252655e+000
6.073743e+002,3.005463e+000
6.083386e+002,2.674194e+000
6.093028e+002,1.800690e+000
6.102670e+002,1.064362e+000
6.112313e+002,8.114929e-001
6.121955e+002,9.680481e-001
6.131597e+002,1.565613e+000
6.141240e+002,2.599457e+000
6.150882e+002,3.811554e+000
6.160524e+002,4.154510e+000
6.170167e+002,3.868286e+000
6.179809e+002,3.403534e+000
6.189451e+002,2.856445e+000
6.199094e+002,2.137543e+000
6.208736e+002,1.198242e+000
6.218378e+002,-9.405823e-001
6.228021e+002,-1.695709e+000
6.237663e+002,4.498291e-001
6.247305e+002,3.851563e+000
6.256948e+002,5.630524e+000
6.266590e+002,3.830780e+000
6.276232e+002,1.792145e+000
6.285875e+002,1.955231e+000
6.295517e+002,3.095123e+000
6.305159e+002,3.896698e+000
6.314802e+002,3.593353e+000
6.324444e+002,2.575897e+000
6.334086e+002,2.148041e+000
6.343729e+002,2.228241e+000
6.353371e+002,2.278107e+000
6.363013e+002,2.108856e+000
6.372656e+002,1.634186e+000
6.382298e+002,6.704712e-001
6.391940e+002,-1.528778e+000
6.401583e+002,-3.375336e+000
6.411225e+002,-4.624054e+000
6.420867e+002,-5.289703e+000
6.430510e+002,-5.470520e+000
6.440152e+002,-5.242188e+000
6.449794e+002,-4.910797e+000
6.459437e+002,-4.350372e+000
6.469079e+002,-3.944794e+000
6.478721e+002,-4.032867e+000
6.488364e+002,-4.652924e+000
6.498006e+002,-5.443970e+000
6.507648e+002,-5.965790e+000
6.517291e+002,-6.257690e+000
6.526933e+002,-6.205048e+000
6.536575e+002,-5.781433e+000
6.546218e+002,-5.140076e+000
6.555860e+002,-4.540802e+000
6.565502e+002,-3.884186e+000
6.575145e+002,-3.618835e+000
6.584787e+002,-3.730377e+000
6.594429e+002,-4.150238e+000
6.604072e+002,-5.204163e+000
6.613714e+002,-7.104370e+000
6.623356e+002,-7.853760e+000
6.632999e+002,-5.391602e+000
6.642641e+002,-2.732941e+000
6.652283e+002,-1.020325e+000
6.661926e+002,-4.816284e-001
6.671568e+002,-9.479675e-001
6.681210e+002,-2.833618e+000
6.690853e+002,-5.245941e+000
6.700495e+002,-5.558441e+000
6.710137e+002,-3.833069e+000
6.719780e+002,-1.695313e+000
6.729422e+002,-9.356079e-001
6.739064e+002,-2.015533e+000
6.748707e+002,-2.108734e+000
6.758349e+002,-2.581482e-001
6.767991e+002,1.121460e+000
6.777634e+002,8.743591e-001
6.787276e+002,-6.781921e-001
6.796918e+002,-1.783936e+000
6.806561e+002,-1.366974e+000
6.816203e+002,-1.222076e+000
6.825845e+002,-2.704407e+000
6.835488e+002,-4.793915e+000
6.845130e+002,-5.632233e+000
6.854772e+002,-3.683044e+000
6.864415e+002,-2.575989e-001
6.874057e+002,1.577087e+000
6.883699e+002,2.007233e+000
6.893342e+002,1.674438e+000
6.902984e+002,9.376526e-001
6.912626e+002,-1.184998e-001
6.922269e+002,-1.277222e+000
6.931911e+002,-3.178619e+000
6.941553e+002,-3.768585e+000
6.951196e+002,-1.955078e+000
6.960838e+002,6.675110e-001
6.970480e+002,1.499603e+000
6.980123e+002,-7.500916e-001
6.989765e+002,-2.638916e+000
6.999407e+002,-2.377502e+000
7.009050e+002,-1.559479e+000
7.018692e+002,-1.557892e+000
7.028334e+002,-2.787201e+000
7.037977e+002,-4.349731e+000
7.047619e+002,-4.616852e+000
7.057261e+002,-4.004181e+000
7.066904e+002,-3.677856e+000
7.076546e+002,-3.829559e+000
7.086188e+002,-4.000946e+000
7.095831e+002,-3.416992e+000
7.105473e+002,-1.684509e+000
7.115115e+002,-7.817383e-001
7.124758e+002,-9.673462e-001
7.134400e+002,-1.624359e+000
7.144042e+002,-2.651947e+000
7.153685e+002,-3.918488e+000
7.163327e+002,-4.436554e+000
7.172969e+002,-2.619934e+000
7.182612e+002,-9.423523e-001
7.192254e+002,-7.944031e-001
7.201896e+002,-1.672943e+000
7.211539e+002,-2.148071e+000
7.221181e+002,-8.638306e-001
7.230823e+002,1.010345e+000
7.240466e+002,-2.717590e-001
7.250108e+002,-3.744629e+000
7.259750e+002,-5.876495e+000
7.269393e+002,-4.457520e+000
7.279035e+002,-3.083801e-001
7.288677e+002,1.113373e+000
7.298320e+002,-3.065369e+000
7.307962e+002,-5.807861e+000
7.317604e+002,-6.192047e+000
7.327247e+002,-5.043457e+000
7.336889e+002,-3.443939e+000
7.346531e+002,-1.656311e+000
7.356174e+002,-4.927368e-001
7.365816e+002,1.025696e-001
7.375458e+002,2.590637e-001
7.385101e+002,-3.121338e-001
7.394743e+002,-1.469299e+000
7.404385e+002,-2.459229e+000
7.414028e+002,-2.016541e+000
7.423670e+002,-8.187866e-001
7.433312e+002,-6.980286e-001
7.442955e+002,-1.636139e+000
7.452597e+002,-2.363251e+000
7.462239e+002,-1.255035e+000
7.471882e+002,2.501190e+000
7.481524e+002,4.074829e+000
7.491166e+002,1.152679e+000
7.500809e+002,-1.390930e+000
7.510451e+002,-1.290802e+000
7.520093e+002,8.313293e-001
7.529736e+002,2.400238e+000
7.539378e+002,2.359589e+000
7.549020e+002,1.619293e+000
7.558663e+002,1.291809e-001
7.568306e+002,-1.398254e+000
7.577948e+002,-1.832520e+000
7.587590e+002,-6.338196e-001
7.597233e+002,1.216461e+000
7.606875e+002,6.709900e-001
7.616517e+002,-1.792419e+000
7.626160e+002,-2.894653e+000
7.635802e+002,-1.232910e+000
7.645444e+002,1.716461e+000
7.655087e+002,2.590027e+000
7.664729e+002,-4.688110e-001
7.674371e+002,-1.588715e+000
7.684014e+002,1.190277e+000
7.693656e+002,4.167511e+000
7.703298e+002,5.007416e+000
7.712941e+002,3.489380e+000
7.722583e+002,1.170227e+000
7.732225e+002,-2.264130e+000
7.741868e+002,-4.585083e+000
7.751510e+002,-2.726105e+000
7.761152e+002,1.790771e+000
7.770795e+002,4.943634e+000
7.780437e+002,3.117249e+000
7.790079e+002,-2.766479e+000
7.799722e+002,-3.642944e+000
7.809364e+002,7.437439e-001
7.819006e+002,4.680664e+000
7.828649e+002,6.066864e+000
7.838291e+002,5.550781e+000
7.847933e+002,5.035522e+000
7.857576e+002,4.667755e+000
7.867218e+002,3.514496e+000
7.876860e+002,5.072327e-001
7.886503e+002,-2.280670e+000
7.896145e+002,-2.657166e+000
7.905787e+002,-2.477417e-001
7.915430e+002,2.278168e+000
7.925072e+002,1.193390e+000
7.934714e+002,-1.114868e+000
7.944357e+002,-1.598755e+000
7.953999e+002,-1.644897e-001
7.963641e+002,1.434235e+000
7.973284e+002,1.097748e+000
7.982926e+002,-1.385986e+000
7.992568e+002,-1.477753e+000
8.002211e+002,1.544586e+000
8.011853e+002,4.228455e+000
8.021495e+002,5.699677e+000
8.031138e+002,6.325928e+000
8.040780e+002,6.669891e+000
8.050422e+002,6.468414e+000
8.060065e+002,6.000366e+000
8.069707e+002,4.654541e+000
8.079349e+002,3.332581e+000
8.088992e+002,3.419922e+000
8.098634e+002,5.265137e+000
8.108276e+002,7.162567e+000
8.117919e+002,5.883484e+000
8.127561e+002,2.724030e+000
8.137203e+002,1.057434e+000
8.146846e+002,1.423828e+000
8.156488e+002,2.451019e+000
8.166130e+002,2.307526e+000
8.175773e+002,6.421814e-001
8.185415e+002,-3.779907e-001
8.195057e+002,-1.202972e+000
8.204700e+002,-1.327118e+000
8.214342e+002,-1.038208e-001
8.223984e+002,1.964539e+000
8.233627e+002,3.605042e+000
8.243269e+002,4.435699e+000
8.252911e+002,4.775238e+000
8.262554e+002,4.294617e+000
8.272196e+002,3.812317e+000
8.281838e+002,4.454346e+000
8.291481e+002,6.433044e+000
8.301123e+002,8.650055e+000
8.310765e+002,9.072540e+000
8.320408e+002,7.759613e+000
8.330050e+002,6.954895e+000
8.339692e+002,6.996002e+000
8.349335e+002,6.996246e+000
8.358977e+002,5.696167e+000
8.368619e+002,2.752686e+000
8.378262e+002,1.805695e+000
8.387904e+002,5.525940e+000
8.397546e+002,7.994659e+000
8.407189e+002,6.746338e+000
8.416831e+002,3.528900e+000
8.426473e+002,1.597168e+000
8.436116e+002,2.598145e+000
8.445758e+002,4.409149e+000
8.455400e+002,4.365601e+000
8.465043e+002,3.603302e+000
8.474685e+002,4.031433e+000
8.484327e+002,6.065094e+000
8.493970e+002,8.134308e+000
8.503612e+002,7.290253e+000
8.513254e+002,2.723541e+000
8.522897e+002,5.242310e-001
8.532539e+002,1.429169e+000
8.542181e+002,3.149506e+000
8.551824e+002,4.646240e+000
8.561466e+002,6.127869e+000
8.571108e+002,8.070526e+000
8.580751e+002,1.116492e+001
8.590393e+002,1.298453e+001
8.600035e+002,1.215652e+001
8.609678e+002,1.033411e+001
8.619320e+002,9.009796e+000
8.628962e+002,8.864410e+000
8.638605e+002,1.002469e+001
8.648247e+002,1.395926e+001
8.657889e+002,1.892291e+001
8.667532e+002,2.092078e+001
8.677174e+002,1.942941e+001
8.686816e+002,1.658542e+001
8.696459e+002,1.464612e+001
8.706101e+002,1.363782e+001
8.715743e+002,1.426099e+001
8.725386e+002,1.892456e+001
8.735028e+002,2.207300e+001
8.744670e+002,2.088895e+001
8.754313e+002,1.733249e+001
8.763955e+002,1.542273e+001
8.773597e+002,1.690970e+001
8.783240e+002,1.891623e+001
8.792882e+002,1.945959e+001
8.802524e+002,1.929312e+001
8.812167e+002,1.882092e+001
8.821809e+002,1.830573e+001
8.831451e+002,1.804550e+001
8.841094e+002,1.846896e+001
8.850736e+002,1.969489e+001
8.860378e+002,2.105676e+001
8.870021e+002,2.245773e+001
8.879663e+002,2.391284e+001
8.889305e+002,2.580020e+001
8.898948e+002,2.776694e+001
8.908590e+002,2.813913e+001
8.918232e+002,2.583047e+001
8.927875e+002,2.373010e+001
8.937517e+002,2.190460e+001
8.947159e+002,2.089200e+001
8.956802e+002,2.125443e+001
8.966444e+002,2.288022e+001
8.976086e+002,2.488968e+001
8.985729e+002,2.684076e+001
8.995371e+002,2.854733e+001
9.005013e+002,2.967859e+001
9.014656e+002,3.028506e+001
9.024298e+002,3.025345e+001
9.033940e+002,2.930011e+001
9.043583e+002,2.749100e+001
9.053225e+002,2.640866e+001
9.062867e+002,2.533655e+001
9.072510e+002,2.596048e+001
9.082152e+002,3.102002e+001
9.091794e+002,3.637271e+001
9.101437e+002,3.707004e+001
9.111079e+002,3.225568e+001
9.120721e+002,2.817340e+001
9.130364e+002,3.013727e+001
9.140006e+002,3.216196e+001
9.149648e+002,2.957233e+001
9.159291e+002,2.456918e+001
9.168933e+002,2.240222e+001
9.178575e+002,2.659189e+001
9.188218e+002,3.457312e+001
9.197860e+002,3.752563e+001
9.207502e+002,3.531836e+001
9.217145e+002,3.329590e+001
9.226787e+002,3.263422e+001
9.236429e+002,3.275696e+001
9.246072e+002,3.295511e+001
9.255714e+002,3.326190e+001
9.265356e+002,3.275351e+001
9.274999e+002,3.076654e+001
9.284641e+002,2.836636e+001
9.294283e+002,2.513660e+001
9.303926e+002,2.205389e+001
9.313568e+002,2.079419e+001
9.323210e+002,2.229602e+001
9.332853e+002,2.480936e+001
9.342495e+002,2.586758e+001
9.352137e+002,2.590979e+001
9.361780e+002,2.527805e+001
9.371422e+002,2.421008e+001
9.381064e+002,2.343109e+001
9.390707e+002,2.387665e+001
9.400349e+002,2.571295e+001
9.409991e+002,2.639905e+001
9.419634e+002,2.492322e+001
9.429276e+002,2.367499e+001
9.438918e+002,2.323688e+001
9.448561e+002,2.349344e+001
9.458203e+002,2.453235e+001
9.467845e+002,2.675031e+001
9.477488e+002,2.816031e+001
9.487130e+002,2.623993e+001
9.496772e+002,2.356006e+001
9.506415e+002,2.183893e+001
9.516057e+002,2.136459e+001
9.525699e+002,2.185419e+001
9.535342e+002,2.303583e+001
9.544984e+002,2.468430e+001
9.554626e+002,2.535587e+001
9.564269e+002,2.527069e+001
9.573911e+002,2.484915e+001
9.583553e+002,2.343549e+001
9.593196e+002,2.196683e+001
9.602838e+002,2.240024e+001
9.612480e+002,2.547568e+001
9.622123e+002,2.733899e+001
9.631765e+002,2.615866e+001
9.641407e+002,2.440964e+001
9.651050e+002,2.266162e+001
9.660692e+002,2.121582e+001
9.670334e+002,2.045169e+001
9.679977e+002,2.070908e+001
9.689619e+002,2.169037e+001
9.699261e+002,2.247562e+001
9.708904e+002,2.306320e+001
9.718546e+002,2.401129e+001
9.728188e+002,2.550165e+001
9.737831e+002,2.682095e+001
9.747473e+002,2.670114e+001
9.757115e+002,2.457397e+001
9.766758e+002,2.448648e+001
9.776400e+002,2.847400e+001
9.786042e+002,3.230255e+001
9.795685e+002,3.578378e+001
9.805327e+002,3.795413e+001
9.814969e+002,3.733850e+001
9.824612e+002,3.352863e+001
9.834254e+002,2.925598e+001
9.843896e+002,2.660443e+001
9.853539e+002,2.503400e+001
9.863181e+002,2.483878e+001
9.872823e+002,2.539804e+001
9.882466e+002,2.453787e+001
9.892108e+002,2.045529e+001
9.901750e+002,1.421063e+001
9.911393e+002,1.213635e+001
9.921035e+002,1.747565e+001
9.930677e+002,2.099188e+001
9.940320e+002,2.103387e+001
9.949962e+002,2.047205e+001
9.959604e+002,2.224796e+001
9.969247e+002,2.648544e+001
9.978889e+002,3.004150e+001
9.988531e+002,3.041016e+001
9.998174e+002,3.048505e+001
1.000782e+003,3.276074e+001
1.001746e+003,3.595331e+001
1.002710e+003,3.778372e+001
1.003674e+003,3.737460e+001
1.004639e+003,3.621460e+001
1.005603e+003,3.708133e+001
1.006567e+003,4.014819e+001
1.007531e+003,4.110144e+001
1.008495e+003,3.920963e+001
1.009460e+003,3.688599e+001
1.010424e+003,3.506900e+001
1.011388e+003,3.397449e+001
1.012352e+003,3.469647e+001
1.013317e+003,3.893661e+001
1.014281e+003,4.149811e+001
1.015245e+003,4.005371e+001
1.016209e+003,3.725073e+001
1.017174e+003,3.497049e+001
1.018138e+003,3.339456e+001
1.019102e+003,3.145328e+001
1.020066e+003,2.821368e+001
1.021031e+003,2.446603e+001
1.021995e+003,2.253967e+001
1.022959e+003,2.184775e+001
1.023923e+003,2.028448e+001
1.024887e+003,1.687350e+001
1.025852e+003,1.271539e+001
1.026816e+003,9.406525e+000
1.027780e+003,6.959564e+000
1.028744e+003,5.973145e+000
1.029709e+003,8.532349e+000
1.030673e+003,1.008072e+001
1.031637e+003,8.295532e+000
1.032601e+003,4.981567e+000
1.033566e+003,2.856812e+000
1.034530e+003,2.902649e+000
1.035494e+003,3.601501e+000
1.036458e+003,2.885193e+000
1.037422e+003,1.923950e+000
1.038387e+003,3.140778e+000
1.039351e+003,6.306854e+000
1.040315e+003,9.124786e+000
1.041279e+003,9.885986e+000
1.042244e+003,9.107239e+000
1.043208e+003,9.032074e+000
1.044172e+003,1.031946e+001
1.045136e+003,1.083133e+001
1.046101e+003,1.035397e+001
1.047065e+003,9.489410e+000
1.048029e+003,8.454926e+000
1.048993e+003,7.290405e+000
1.049958e+003,5.961761e+000
1.050922e+003,4.232605e+000
1.051886e+003,3.206390e+000
1.052850e+003,4.304993e+000
1.053814e+003,6.467590e+000
1.054779e+003,8.561310e+000
1.055743e+003,1.022272e+001
1.056707e+003,1.154773e+001
1.057671e+003,1.274286e+001
1.058636e+003,1.377759e+001
1.059600e+003,1.262292e+001
1.060564e+003,6.202057e+000
1.061528e+003,2.544220e+000
1.062493e+003,4.250427e+000
1.063457e+003,7.918427e+000
1.064421e+003,1.016428e+001
1.065385e+003,1.064108e+001
1.066349e+003,1.050836e+001
1.067314e+003,1.000851e+001
1.068278e+003,9.459778e+000
1.069242e+003,9.230011e+000
1.070206e+003,9.146240e+000
1.071171e+003,8.840912e+000
1.072135e+003,8.102692e+000
1.073099e+003,7.007172e+000
1.074063e+003,5.796600e+000
1.075028e+003,4.508911e+000
1.075992e+003,3.396118e+000
1.076956e+003,1.402863e+000
1.077920e+003,9.137878e-001
1.078885e+003,4.705170e+000
1.079849e+003,1.012109e+001
1.080813e+003,1.161249e+001
1.081777e+003,7.653961e+000
1.082741e+003,4.343567e+000
1.083706e+003,5.395660e+000
1.084670e+003,7.080536e+000
1.085634e+003,7.538727e+000
1.086598e+003,7.020050e+000
1.087563e+003,6.554535e+000
1.088527e+003,6.760132e+000
1.089491e+003,7.141174e+000
1.090455e+003,6.283722e+000
1.091420e+003,3.878021e+000
1.092384e+003,3.933044e+000
1.093348e+003,7.912109e+000
1.094312e+003,1.140677e+001
1.095276e+003,1.168707e+001
1.096241e+003,9.722290e+000
1.097205e+003,8.147491e+000
1.098169e+003,7.277924e+000
1.099133e+003,6.357941e+000
1.100098e+003,4.860382e+000
1.101062e+003,3.583832e+000
1.102026e+003,2.846130e+000
1.102990e+003,2.800842e+000
1.103955e+003,3.827545e+000
1.104919e+003,6.088715e+000
1.105883e+003,8.576843e+000
1.106847e+003,9.094574e+000
1.107812e+003,7.557587e+000
1.108776e+003,6.418793e+000
1.109740e+003,5.639923e+000
1.110704e+003,5.553375e+000
1.111668e+003,7.024170e+000
1.112633e+003,9.665192e+000
1.113597e+003,1.132751e+001
1.114561e+003,1.157233e+001
1.115525e+003,1.101050e+001
1.116490e+003,8.430115e+000
1.117454e+003,6.483185e+000
1.118418e+003,7.681458e+000
1.119382e+003,1.115378e+001
1.120347e+003,1.423563e+001
1.121311e+003,1.517017e+001
1.122275e+003,1.453793e+001
1.123239e+003,1.362076e+001
1.124203e+003,1.272266e+001
1.125168e+003,1.282831e+001
1.126132e+003,1.428162e+001
1.127096e+003,1.617911e+001
1.128060e+003,1.794720e+001
1.129025e+003,1.949628e+001
1.129989e+003,2.063553e+001
1.130953e+003,2.122922e+001
1.131917e+003,2.148550e+001
1.132882e+003,2.093515e+001
1.133846e+003,2.075406e+001
1.134810e+003,2.174359e+001
1.135774e+003,2.373209e+001
1.136739e+003,2.631973e+001
1.137703e+003,2.923694e+001
1.138667e+003,3.186234e+001
1.139631e+003,3.269482e+001
1.140595e+003,3.212421e+001
1.141560e+003,3.376285e+001
1.142524e+003,3.823929e+001
1.143488e+003,4.372876e+001
1.144452e+003,4.939209e+001
1.145417e+003,5.504263e+001
1.146381e+003,5.964136e+001
1.147345e+003,6.194580e+001
1.148309e+003,6.644348e+001
1.149274e+003,7.528705e+001
1.150238e+003,8.545801e+001
1.151202e+003,9.628540e+001
1.152166e+003,1.072579e+002
1.153130e+003,1.179222e+002
1.154095e+003,1.278752e+002
1.155059e+003,1.366956e+002
1.156023e+003,1.444075e+002
1.156987e+003,1.505168e+002
1.157952e+003,1.527336e+002
1.158916e+003,1.511649e+002
1.159880e+003,1.473366e+002
1.160844e+003,1.411547e+002
1.161809e+003,1.328982e+002
1.162773e+003,1.234208e+002
1.163737e+003,1.123143e+002
1.164701e+003,1.019511e+002
1.165666e+003,9.346756e+001
1.166630e+003,8.555453e+001
1.167594e+003,7.744965e+001
1.168558e+003,6.969577e+001
1.169522e+003,6.290079e+001
1.170487e+003,5.736841e+001
1.171451e+003,5.352795e+001
1.172415e+003,5.204593e+001
1.173379e+003,5.233557e+001
1.174344e+003,5.136920e+001
1.175308e+003,4.915121e+001
1.176272e+003,4.718967e+001
1.177236e+003,4.604071e+001
1.178201e+003,4.543225e+001
1.179165e+003,4.514566e+001
1.180129e+003,4.507599e+001
1.181093e+003,4.411212e+001
1.182057e+003,4.102817e+001
1.183022e+003,3.871863e+001
1.183986e+003,3.935593e+001
1.184950e+003,4.043359e+001
1.185914e+003,3.889279e+001
1.186879e+003,3.512195e+001
1.187843e+003,3.245670e+001
1.188807e+003,3.360092e+001
1.189771e+003,3.712256e+001
1.190736e+003,3.900247e+001
1.191700e+003,3.907718e+001
1.192664e+003,3.872089e+001
1.193628e+003,3.780164e+001
1.194593e+003,3.699011e+001
1.195557e+003,3.682623e+001
1.196521e+003,3.710406e+001
1.197485e+003,3.727097e+001
1.198449e+003,3.742838e+001
1.199414e+003,3.697482e+001
1.200378e+003,3.534686e+001
1.201342e+003,3.332047e+001
1.202306e+003,3.080188e+001
1.203271e+003,2.826813e+001
1.204235e+003,2.685217e+001
1.205199e+003,2.699176e+001
1.206163e+003,2.738809e+001
1.207128e+003,2.572159e+001
1.208092e+003,2.185629e+001
1.209056e+003,1.936938e+001
1.210020e+003,1.898233e+001
1.210984e+003,1.830121e+001
1.211949e+003,1.669373e+001
1.212913e+003,1.432660e+001
1.213877e+003,1.114719e+001
1.214841e+003,7.259674e+000
1.215806e+003,3.960388e+000
1.216770e+003,1.437256e+000
1.217734e+003,1.394043e-001
1.218698e+003,1.456360e+000
1.219663e+003,3.182434e+000
1.220627e+003,1.830475e+000
1.221591e+003,-2.515564e+000
1.222555e+003,-6.054016e+000
1.223520e+003,-5.166504e+000
1.224484e+003,-9.353638e-001
1.225448e+003,1.166321e+000
1.226412e+003,3.384094e-001
1.227376e+003,-1.259460e+000
1.228341e+003,-4.874695e+000
1.229305e+003,-7.938324e+000
1.230269e+003,-8.986664e+000
1.231233e+003,-8.526428e+000
1.232198e+003,-7.287079e+000
1.233162e+003,-5.306793e+000
1.234126e+003,-3.894806e+000
1.235090e+003,-4.578827e+000
1.236055e+003,-5.969696e+000
1.237019e+003,-6.539398e+000
1.237983e+003,-6.545929e+000
1.238947e+003,-6.687042e+000
1.239911e+003,-7.185181e+000
1.240876e+003,-7.720398e+000
1.241840e+003,-7.870636e+000
1.242804e+003,-7.597839e+000
1.243768e+003,-7.486359e+000
1.244733e+003,-7.857269e+000
1.245697e+003,-7.939423e+000
1.246661e+003,-7.653442e+000
1.247625e+003,-7.343262e+000
1.248590e+003,-7.147827e+000
1.249554e+003,-6.986267e+000
1.250518e+003,-6.737274e+000
1.251482e+003,-6.409332e+000
1.252447e+003,-6.241852e+000
1.253411e+003,-6.731628e+000
1.254375e+003,-7.250702e+000
1.255339e+003,-6.466339e+000
1.256303e+003,-4.312988e+000
1.257268e+003,-1.951599e+000
1.258232e+003,-6.933594e-002
1.259196e+003,1.335663e+000
1.260160e+003,2.558167e+000
1.261125e+003,3.789368e+000
1.262089e+003,4.404083e+000
1.263053e+003,3.576355e+000
1.264017e+003,2.759216e+000
1.264982e+003,2.121674e+000
1.265946e+003,1.871674e+000
1.266910e+003,2.386475e+000
1.267874e+003,3.473480e+000
1.268839e+003,4.692596e+000
1.269803e+003,5.783508e+000
1.270767e+003,6.091278e+000
1.271731e+003,3.745209e+000
1.272695e+003,-9.675598e-001
1.273660e+003,-2.555969e+000
1.274624e+003,1.335144e-001
1.275588e+003,2.606110e+000
1.276552e+003,2.382599e+000
1.277517e+003,6.422729e-001
1.278481e+003,-5.702820e-001
1.279445e+003,-1.142181e+000
1.280409e+003,-1.962097e+000
1.281374e+003,-3.643677e+000
1.282338e+003,-5.117126e+000
1.283302e+003,-6.290466e+000
1.284266e+003,-6.745605e+000
1.285230e+003,-5.324860e+000
1.286195e+003,-2.513275e+000
1.287159e+003,-5.472717e-001
1.288123e+003,-1.218719e+000
1.289087e+003,-3.680389e+000
1.290052e+003,-5.659668e+000
1.291016e+003,-7.377563e+000
1.291980e+003,-8.023376e+000
1.292944e+003,-7.305359e+000
1.293909e+003,-6.256989e+000
1.294873e+003,-4.746094e+000
1.295837e+003,-3.212494e+000
1.296801e+003,-2.128296e+000
1.297766e+003,-1.622009e+000
1.298730e+003,-2.219025e+000
1.299694e+003,-4.757324e+000
1.300658e+003,-7.694580e+000
1.301622e+003,-9.401062e+000
1.302587e+003,-1.020969e+001
1.303551e+003,-1.061691e+001
1.304515e+003,-1.067264e+001
1.305479e+003,-1.019229e+001
1.306444e+003,-9.034149e+000
1.307408e+003,-7.427460e+000
1.308372e+003,-5.899261e+000
1.309336e+003,-4.307587e+000
1.310301e+003,-3.297394e+000
1.311265e+003,-2.830597e+000
1.312229e+003,-2.860962e+000
1.313193e+003,-3.876251e+000
1.314157e+003,-5.124573e+000
1.315122e+003,-5.692322e+000
1.316086e+003,-5.664154e+000
1.317050e+003,-5.882324e+000
1.318014e+003,-6.827148e+000
1.318979e+003,-8.407593e+000
1.319943e+003,-1.134015e+001
1.320907e+003,-1.499289e+001
1.321871e+003,-1.448468e+001
1.322836e+003,-8.469788e+000
1.323800e+003,-3.058380e+000
1.324764e+003,-1.837738e+000
1.325728e+003,-2.989960e+000
1.326693e+003,-3.409302e+000
1.327657e+003,-3.057129e+000
1.328621e+003,-3.865479e+000
1.329585e+003,-7.127472e+000
1.330549e+003,-9.511261e+000
1.331514e+003,-9.521118e+000
1.332478e+003,-8.430878e+000
1.333442e+003,-6.914673e+000
1.334406e+003,-5.296906e+000
1.335371e+003,-4.002869e+000
1.336335e+003,-3.292328e+000
1.337299e+003,-3.025818e+000
1.338263e+003,-3.001740e+000
1.339228e+003,-3.246246e+000
1.340192e+003,-3.437012e+000
1.341156e+003,-3.696716e+000
1.342120e+003,-3.744049e+000
1.343084e+003,-3.261078e+000
1.344049e+003,-3.037292e+000
1.345013e+003,-3.901520e+000
1.345977e+003,-5.396240e+000
1.346941e+003,-6.266724e+000
1.347906e+003,-6.066589e+000
1.348870e+003,-5.373505e+000
1.349834e+003,-4.471649e+000
1.350798e+003,-3.737305e+000
1.351763e+003,-3.848724e+000
1.352727e+003,-4.610748e+000
1.353691e+003,-4.986511e+000
1.354655e+003,-4.433502e+000
1.355620e+003,-3.904297e+000
1.356584e+003,-4.903137e+000
1.357548e+003,-7.096710e+000
1.358512e+003,-7.740509e+000
1.359476e+003,-6.357361e+000
1.360441e+003,-4.898834e+000
1.361405e+003,-2.677429e+000
1.362369e+003,-1.608978e+000
1.363333e+003,-4.086060e+000
1.364298e+003,-7.616333e+000
1.365262e+003,-8.161194e+000
1.366226e+003,-5.279633e+000
1.367190e+003,-2.609070e+000
1.368155e+003,-3.428375e+000
1.369119e+003,-6.380707e+000
1.370083e+003,-7.087677e+000
1.371047e+003,-4.636810e+000
1.372011e+003,-3.490540e+000
1.372976e+003,-4.958160e+000
1.373940e+003,-6.228149e+000
1.374904e+003,-5.827515e+000
1.375868e+003,-4.837799e+000
1.376833e+003,-4.776978e+000
1.377797e+003,-5.684204e+000
1.378761e+003,-6.442261e+000
1.379725e+003,-6.538666e+000
1.380690e+003,-6.369781e+000
1.381654e+003,-6.430023e+000
1.382618e+003,-6.364502e+000
1.383582e+003,-5.619507e+000
1.384547e+003,-4.230133e+000
1.385511e+003,-2.594025e+000
1.386475e+003,-8.484192e-001
1.387439e+003,5.969849e-001
1.388403e+003,1.246094e+000
1.389368e+003,1.083130e+000
1.390332e+003,-3.622742e-001
1.391296e+003,-4.725616e+000
1.392260e+003,-6.821869e+000
1.393225e+003,-3.586578e+000
1.394189e+003,-1.530762e-001
1.395153e+003,4.075012e-001
1.396117e+003,-6.908264e-001
1.397082e+003,-1.170868e+000
1.398046e+003,-4.248657e-001
1.399010e+003,4.146729e-001
1.399974e+003,2.257385e-001
1.400938e+003,-8.018494e-001
1.401903e+003,-1.663605e+000
1.402867e+003,-2.037476e+000
1.403831e+003,-1.862579e+000
1.404795e+003,-1.061707e+000
1.405760e+003,-1.902466e-001
1.406724e+003,4.391785e-001
1.407688e+003,6.729126e-001
1.408652e+003,5.615234e-001
1.409617e+003,2.771912e-001
1.410581e+003,-7.720947e-002
1.411545e+003,-4.932861e-001
1.412509e+003,-8.566895e-001
1.413474e+003,-1.432617e+000
1.414438e+003,-1.835052e+000
1.415402e+003,-5.952148e-001
1.416366e+003,1.973145e+000
1.417330e+003,3.086792e+000
1.418295e+003,1.362549e+000
1.419259e+003,-1.004822e+000
1.420223e+003,-1.518768e+000
1.421187e+003,-5.362244e-001
1.422152e+003,2.975464e-001
1.423116e+003,1.173279e+000
1.424080e+003,1.659729e+000
1.425044e+003,1.556213e+000
1.426009e+003,8.004150e-001
1.426973e+003,-1.567932e+000
1.427937e+003,-4.066986e+000
1.428901e+003,-4.774170e+000
1.429865e+003,-3.630951e+000
1.430830e+003,-1.896759e+000
1.431794e+003,-4.907532e-001
1.432758e+003,5.396118e-001
1.433722e+003,1.251343e+000
1.434687e+003,1.822906e+000
1.435651e+003,2.445862e+000
1.436615e+003,2.832855e+000
1.437579e+003,2.768280e+000
1.438544e+003,1.656128e+000
1.439508e+003,7.982788e-001
1.440472e+003,1.356842e+000
1.441436e+003,2.873291e+000
1.442401e+003,4.305725e+000
1.443365e+003,5.343994e+000
1.444329e+003,6.324097e+000
1.445293e+003,7.594086e+000
1.446257e+003,8.839294e+000
1.447222e+003,9.415558e+000
1.448186e+003,9.332642e+000
1.449150e+003,8.503754e+000
1.450114e+003,6.595642e+000
1.451079e+003,5.065369e+000
1.452043e+003,4.828461e+000
1.453007e+003,5.446899e+000
1.453971e+003,6.621460e+000
1.454936e+003,8.098328e+000
1.455900e+003,8.393555e+000
1.456864e+003,6.904694e+000
1.457828e+003,5.522400e+000
1.458792e+003,5.352722e+000
1.459757e+003,5.549194e+000
1.460721e+003,5.797211e+000
1.461685e+003,5.787720e+000
1.462649e+003,4.818207e+000
1.463614e+003,2.866058e+000
1.464578e+003,9.317627e-001
1.465542e+003,-2.767639e-001
1.466506e+003,-6.683655e-001
1.467471e+003,5.399170e-001
1.468435e+003,4.108307e+000
1.469399e+003,6.245026e+000
1.470363e+003,5.210388e+000
1.471328e+003,4.562744e+000
1.472292e+003,4.914124e+000
1.473256e+003,5.780884e+000
1.474220e+003,7.765717e+000
1.475184e+003,9.975342e+000
1.476149e+003,1.043466e+001
1.477113e+003,8.680054e+000
1.478077e+003,6.497864e+000
1.479041e+003,5.710297e+000
1.480006e+003,6.235748e+000
1.480970e+003,7.687500e+000
1.481934e+003,1.064609e+001
1.482898e+003,1.123944e+001
1.483863e+003,7.188477e+000
1.484827e+003,4.190521e+000
1.485791e+003,4.091827e+000
1.486755e+003,5.586151e+000
1.487719e+003,7.907654e+000
1.488684e+003,1.054523e+001
1.489648e+003,1.287915e+001
1.490612e+003,1.476636e+001
1.491576e+003,1.613245e+001
1.492541e+003,1.674933e+001
1.493505e+003,1.692587e+001
1.494469e+003,1.725204e+001
1.495433e+003,1.759833e+001
1.496398e+003,1.817947e+001
1.497362e+003,1.919409e+001
1.498326e+003,2.065201e+001
1.499290e+003,2.234946e+001
1.500255e+003,2.459006e+001
1.501219e+003,2.808850e+001
1.502183e+003,3.253192e+001
1.503147e+003,3.612051e+001
1.504111e+003,3.815820e+001
1.505076e+003,4.089755e+001
1.506040e+003,4.588773e+001
1.507004e+003,5.203015e+001
1.507968e+003,5.829364e+001
1.508933e+003,6.473807e+001
1.509897e+003,7.139789e+001
1.510861e+003,7.853995e+001
1.511825e+003,8.672708e+001
1.512790e+003,9.615961e+001
1.513754e+003,1.067412e+002
1.514718e+003,1.187895e+002
1.515682e+003,1.321408e+002
1.516646e+003,1.452250e+002
1.517611e+003,1.582951e+002
1.518575e+003,1.705849e+002
1.519539e+003,1.828337e+002
1.520503e+003,1.935307e+002
1.521468e+003,2.017534e+002
1.522432e+003,2.078474e+002
1.523396e+003,2.127930e+002
1.524360e+003,2.163164e+002
1.525325e+003,2.166860e+002
1.526289e+003,2.127915e+002
1.527253e+003,2.064215e+002
1.528217e+003,2.008009e+002
1.529182e+003,1.960970e+002
1.530146e+003,1.890682e+002
1.531110e+003,1.792798e+002
1.532074e+003,1.675160e+002
1.533039e+003,1.527673e+002
1.534003e+003,1.368989e+002
1.534967e+003,1.203666e+002
1.535931e+003,1.040570e+002
1.536896e+003,8.820084e+001
1.537860e+003,7.341293e+001
1.538824e+003,6.081094e+001
1.539788e+003,5.085944e+001
1.540752e+003,4.280768e+001
1.541717e+003,3.572620e+001
1.542681e+003,2.982037e+001
1.543645e+003,2.573340e+001
1.544609e+003,2.464963e+001
1.545573e+003,2.282578e+001
1.546538e+003,1.899298e+001
1.547502e+003,1.569510e+001
1.548466e+003,1.388046e+001
1.549430e+003,1.336090e+001
1.550395e+003,1.438480e+001
1.551359e+003,1.624438e+001
1.552323e+003,1.745660e+001
1.553287e+003,1.751187e+001
1.554252e+003,1.681201e+001
1.555216e+003,1.558621e+001
1.556180e+003,1.408914e+001
1.557144e+003,1.287625e+001
1.558109e+003,1.202274e+001
1.559073e+003,1.165668e+001
1.560037e+003,1.200070e+001
1.561001e+003,1.189917e+001
1.561966e+003,1.088037e+001
1.562930e+003,9.733643e+000
1.563894e+003,8.826324e+000
1.564858e+003,8.275177e+000
1.565823e+003,8.430298e+000
1.566787e+003,9.314514e+000
1.567751e+003,1.066580e+001
1.568715e+003,1.271887e+001
1.569679e+003,1.418829e+001
1.570644e+003,1.270294e+001
1.571608e+003,9.394989e+000
1.572572e+003,8.024567e+000
1.573536e+003,8.835205e+000
1.574500e+003,9.364532e+000
1.575465e+003,8.561493e+000
1.576429e+003,7.536804e+000
1.577393e+003,6.758850e+000
1.578357e+003,6.476837e+000
1.579322e+003,7.808807e+000
1.580286e+003,1.063907e+001
1.581250e+003,1.208649e+001
1.582214e+003,1.086978e+001
1.583179e+003,9.661133e+000
1.584143e+003,1.072452e+001
1.585107e+003,1.243945e+001
1.586071e+003,1.286887e+001
1.587036e+003,1.239465e+001
1.588000e+003,1.146478e+001
1.588964e+003,9.982269e+000
1.589928e+003,9.394653e+000
1.590893e+003,1.144308e+001
1.591857e+003,1.421857e+001
1.592821e+003,1.444711e+001
1.593785e+003,1.270255e+001
1.594750e+003,1.226022e+001
1.595714e+003,1.359158e+001
1.596678e+003,1.536877e+001
1.597642e+003,1.770285e+001
1.598606e+003,1.940082e+001
1.599571e+003,1.919928e+001
1.600535e+003,1.813644e+001
1.601499e+003,1.720139e+001
1.602463e+003,1.658359e+001
1.603427e+003,1.680212e+001
1.604392e+003,1.819202e+001
1.605356e+003,1.954355e+001
1.606320e+003,1.969818e+001
1.607284e+003,1.886661e+001
1.608249e+003,1.719958e+001
1.609213e+003,1.463242e+001
1.610177e+003,1.373523e+001
1.611141e+003,1.562042e+001
1.612106e+003,1.748254e+001
1.613070e+003,1.807590e+001
1.614034e+003,1.800296e+001
1.614998e+003,1.738791e+001
1.615963e+003,1.653299e+001
1.616927e+003,1.583432e+001
1.617891e+003,1.533875e+001
1.618855e+003,1.496176e+001
1.619820e+003,1.463269e+001
1.620784e+003,1.409622e+001
1.621748e+003,1.294788e+001
1.622712e+003,1.158972e+001
1.623677e+003,1.164346e+001
1.624641e+003,1.349710e+001
1.625605e+003,1.456204e+001
1.626569e+003,1.328168e+001
1.627533e+003,1.213940e+001
1.628498e+003,1.298080e+001
1.629462e+003,1.421231e+001
1.630426e+003,1.400656e+001
1.631390e+003,1.315897e+001
1.632354e+003,1.405548e+001
1.633319e+003,1.699582e+001
1.634283e+003,1.906030e+001
1.635247e+003,1.784705e+001
1.636211e+003,1.520300e+001
1.637176e+003,1.454056e+001
1.638140e+003,1.579227e+001
1.639104e+003,1.717178e+001
1.640068e+003,1.895959e+001
1.641033e+003,1.926804e+001
1.641997e+003,1.612164e+001
1.642961e+003,1.370178e+001
1.643925e+003,1.497714e+001
1.644890e+003,1.714636e+001
1.645854e+003,1.732144e+001
1.646818e+003,1.595218e+001
1.647782e+003,1.482101e+001
1.648747e+003,1.450815e+001
1.649711e+003,1.474664e+001
1.650675e+003,1.554385e+001
1.651639e+003,1.650583e+001
1.652604e+003,1.663013e+001
1.653568e+003,1.586609e+001
1.654532e+003,1.461404e+001
1.655496e+003,1.244580e+001
1.656460e+003,1.145682e+001
1.657425e+003,1.330551e+001
1.658389e+003,1.515460e+001
1.659353e+003,1.553149e+001
1.660317e+003,1.507617e+001
1.661281e+003,1.411969e+001
1.662246e+003,1.295123e+001
1.663210e+003,1.218286e+001
1.664174e+003,1.206094e+001
1.665138e+003,1.242984e+001
1.666103e+003,1.336047e+001
1.667067e+003,1.418661e+001
1.668031e+003,1.326749e+001
1.668995e+003,1.082263e+001
1.669960e+003,9.769745e+000
1.670924e+003,1.079068e+001
1.671888e+003,1.129892e+001
1.672852e+003,9.847870e+000
1.673817e+003,8.501923e+000
1.674781e+003,8.852905e+000
1.675745e+003,9.750061e+000
1.676709e+003,9.970764e+000
1.677674e+003,9.586853e+000
1.678638e+003,9.248840e+000
1.679602e+003,9.158051e+000
1.680566e+003,8.670105e+000
1.681531e+003,6.818329e+000
1.682495e+003,5.077576e+000
1.683459e+003,6.756927e+000
1.684423e+003,1.092886e+001
1.685387e+003,1.164862e+001
1.686352e+003,7.949036e+000
1.687316e+003,4.806458e+000
1.688280e+003,3.662659e+000
1.689244e+003,3.677582e+000
1.690208e+003,5.402039e+000
1.691173e+003,7.101288e+000
1.692137e+003,6.471008e+000
1.693101e+003,4.284149e+000
1.694065e+003,2.872894e+000
1.695030e+003,2.689758e+000
1.695994e+003,3.109009e+000
1.696958e+003,4.302368e+000
1.697922e+003,5.359863e+000
1.698887e+003,4.883820e+000
1.699851e+003,3.418579e+000
1.700815e+003,2.446106e+000
1.701779e+003,2.043427e+000
1.702744e+003,1.984467e+000
1.703708e+003,2.371124e+000
1.704672e+003,2.997040e+000
1.705636e+003,3.668243e+000
1.706601e+003,4.176758e+000
1.707565e+003,4.496674e+000
1.708529e+003,4.672668e+000
1.709493e+003,4.571747e+000
1.710458e+003,4.186218e+000
1.711422e+003,3.249451e+000
1.712386e+003,7.398987e-001
1.713350e+003,-1.066925e+000
1.714314e+003,2.742004e-001
1.715279e+003,2.911224e+000
1.716243e+003,3.940735e+000
1.717207e+003,3.359253e+000
1.718171e+003,2.089020e+000
1.719135e+003,4.162598e-001
1.720100e+003,-7.015991e-002
1.721064e+003,2.053467e+000
1.722028e+003,4.621429e+000
1.722992e+003,4.369598e+000
1.723957e+003,2.043610e+000
1.724921e+003,1.346588e+000
1.725885e+003,2.391449e+000
1.726849e+003,2.786041e+000
1.727814e+003,1.944153e+000
1.728778e+003,1.154877e+000
1.729742e+003,8.449402e-001
1.730706e+003,8.528137e-001
1.731671e+003,1.037018e+000
1.732635e+003,1.165558e+000
1.733599e+003,1.304443e+000
1.734563e+003,1.416565e+000
1.735528e+003,6.213684e-001
1.736492e+003,-1.597397e+000
1.737456e+003,-3.921509e+000
1.738420e+003,-4.832611e+000
1.739385e+003,-4.563599e+000
1.740349e+003,-3.482880e+000
1.741313e+003,-1.082916e+000
1.742277e+003,-1.098633e-002
1.743241e+003,-1.142120e+000
1.744206e+003,-1.926590e+000
1.745170e+003,-1.810547e+000
1.746134e+003,-1.686859e+000
1.747098e+003,-2.432205e+000
1.748063e+003,-3.176544e+000
1.749027e+003,-2.413284e+000
1.749991e+003,-7.552948e-001
1.750955e+003,-5.001526e-001
1.751919e+003,-2.139404e+000
1.752884e+003,-3.189880e+000
1.753848e+003,-1.568771e+000
1.754812e+003,1.243713e+000
1.755776e+003,2.386078e+000
1.756741e+003,2.004181e+000
1.757705e+003,1.133850e+000
1.758669e+003,-6.835938e-001
1.759633e+003,-1.942398e+000
1.760598e+003,-2.579147e+000
1.761562e+003,-2.665848e+000
1.762526e+003,-1.447540e+000
1.763490e+003,-2.673645e-001
1.764455e+003,-2.789307e-002
1.765419e+003,-4.446106e-001
1.766383e+003,-1.253860e+000
1.767347e+003,-2.292099e+000
1.768312e+003,-3.068329e+000
1.769276e+003,-3.382935e+000
1.770240e+003,-3.618896e+000
1.771204e+003,-4.122223e+000
1.772168e+003,-4.517517e+000
1.773133e+003,-4.097183e+000
1.774097e+003,-2.951721e+000
1.775061e+003,-1.925079e+000
1.776025e+003,-1.210892e+000
1.776990e+003,-6.304169e-001
1.777954e+003,3.067017e-001
1.778918e+003,5.669861e-001
1.779882e+003,-1.319626e+000
1.780846e+003,-3.973083e+000
1.781811e+003,-5.856232e+000
1.782775e+003,-6.764771e+000
1.783739e+003,-5.709778e+000
1.784703e+003,-2.275192e+000
1.785668e+003,3.467102e-001
1.786632e+003,3.660431e-001
1.787596e+003,-4.857025e-001
1.788560e+003,-1.170227e+000
1.789525e+003,-1.477448e+000
1.790489e+003,-1.074463e+000
1.791453e+003,-2.718048e-001
1.792417e+003,2.327881e-001
1.793382e+003,2.744446e-001
1.794346e+003,-1.944885e-001
1.795310e+003,-1.265579e+000
1.796274e+003,-2.284210e+000
1.797239e+003,-2.363342e+000
1.798203e+003,-1.729324e+000
1.799167e+003,-1.561157e+000
1.800131e+003,-2.155762e+000
1.801095e+003,-2.985565e+000
1.802060e+003,-4.431107e+000
1.803024e+003,-5.003189e+000
1.803988e+003,-3.780579e+000
1.804952e+003,-2.791443e+000
1.805917e+003,-3.343933e+000
1.806881e+003,-4.301193e+000
1.807845e+003,-4.436920e+000
1.808809e+003,-3.943329e+000
1.809773e+003,-3.655075e+000
1.810738e+003,-3.672821e+000
1.811702e+003,-3.258331e+000
1.812666e+003,-1.973526e+000
1.813630e+003,-3.126984e-001
1.814595e+003,1.262161e+000
1.815559e+003,2.363205e+000
1.816523e+003,1.078690e+000
1.817487e+003,-2.901947e+000
1.818452e+003,-5.397568e+000
1.819416e+003,-6.108917e+000
1.820380e+003,-5.179382e+000
1.821344e+003,-1.106354e+000
1.822309e+003,2.155136e+000
1.823273e+003,1.995361e+000
1.824237e+003,3.607788e-001
1.825201e+003,-1.582932e+000
1.826166e+003,-3.338257e+000
1.827130e+003,-3.613922e+000
1.828094e+003,-2.289719e+000
1.829058e+003,-1.316483e+000
1.830022e+003,-1.704178e+000
1.830987e+003,-2.310974e+000
1.831951e+003,-1.682175e+000
1.832915e+003,-1.062012e+000
1.833879e+003,-3.366623e+000
1.834844e+003,-7.117188e+000
1.835808e+003,-6.978210e+000
1.836772e+003,-2.611847e+000
1.837736e+003,6.003571e-001
1.838700e+003,2.453613e-001
1.839665e+003,-1.498520e+000
1.840629e+003,-2.841217e+000
1.841593e+003,-3.471985e+000
1.842557e+003,-2.575684e+000
1.843522e+003,-2.010803e-001
1.844486e+003,4.366455e-001
1.845450e+003,-2.540527e+000
1.846414e+003,-3.285034e+000
1.847379e+003,4.142914e-001
1.848343e+003,2.879044e+000
1.849307e+003,1.477051e+000
1.850271e+003,-5.499725e-001
1.851236e+003,-5.855713e-001
1.852200e+003,2.143097e-001
1.853164e+003,-6.936951e-001
1.854128e+003,-2.819214e+000
1.855093e+003,-2.852585e+000
1.856057e+003,2.335358e-001
1.857021e+003,2.883728e+000
1.857985e+003,1.973358e+000
1.858949e+003,-6.666565e-001
1.859914e+003,-1.861664e+000
1.860878e+003,-1.882858e+000
1.861842e+003,-2.732086e+000
1.862806e+003,-4.502914e+000
1.863771e+003,-4.943069e+000
1.864735e+003,-3.576050e+000
1.865699e+003,-1.400162e+000
1.866663e+003,2.126740e+000
1.867627e+003,4.654633e+000
1.868592e+003,2.993851e+000
1.869556e+003,-5.592957e-001
1.870520e+003,-1.010559e+000
1.871484e+003,1.025726e+000
1.872449e+003,1.363525e+000
1.873413e+003,-5.760803e-001
1.874377e+003,-2.136017e+000
1.875341e+003,-2.898056e+000
1.876306e+003,-3.277084e+000
1.877270e+003,-3.710220e+000
1.878234e+003,-3.737442e+000
1.879198e+003,-2.249832e+000
1.880163e+003,-2.214966e-001
1.881127e+003,3.843384e-001
1.882091e+003,-3.605347e-001
1.883055e+003,-8.297577e-001
1.884020e+003,-3.720856e-001
1.884984e+003,2.110138e-001
1.885948e+003,2.076111e-001
1.886912e+003,-2.808380e-001
1.887876e+003,-1.163834e+000
1.888841e+003,-2.336761e+000
1.889805e+003,-2.628525e+000
1.890769e+003,-1.984253e+000
1.891733e+003,-6.000366e-001
1.892698e+003,2.122482e+000
1.893662e+003,3.821564e+000
1.894626e+003,3.164368e+000
1.895590e+003,2.026611e+000
1.896554e+003,1.770279e+000
1.897519e+003,1.826447e+000
1.898483e+003,1.236877e+000
1.899447e+003,1.792908e-001
1.900411e+003,-2.133026e-001
1.901376e+003,3.316345e-001
1.902340e+003,7.054291e-001
1.903304e+003,2.006378e-001
1.904268e+003,-1.629944e-001
1.905233e+003,4.488678e-001
1.906197e+003,1.389435e+000
1.907161e+003,2.260803e+000
1.908125e+003,2.880463e+000
1.909090e+003,2.732666e+000
1.910054e+003,1.928055e+000
1.911018e+003,1.251511e+000
1.911982e+003,1.014481e+000
1.912947e+003,8.294067e-001
1.913911e+003,3.734589e-001
1.914875e+003,6.143188e-002
1.915839e+003,5.688629e-001
1.916803e+003,1.561981e+000
1.917768e+003,1.724106e+000
1.918732e+003,9.519958e-001
1.919696e+003,6.000214e-001
1.920660e+003,9.095459e-001
1.921625e+003,1.182083e+000
1.922589e+003,8.217926e-001
1.923553e+003,9.546356e-001
1.924517e+003,3.105515e+000
1.925481e+003,5.203522e+000
1.926446e+003,4.913361e+000
1.927410e+003,3.462051e+000
1.928374e+003,3.425812e+000
1.929338e+003,4.797058e+000
1.930303e+003,5.648407e+000
1.931267e+003,5.640533e+000
1.932231e+003,5.255173e+000
1.933195e+003,4.369949e+000
1.934160e+003,3.309143e+000
1.935124e+003,1.998444e+000
1.936088e+003,8.271484e-001
1.937052e+003,4.974518e-001
1.938017e+003,7.934875e-001
1.938981e+003,1.029755e+000
1.939945e+003,1.101028e+000
1.940909e+003,1.550919e+000
1.941874e+003,2.495819e+000
1.942838e+003,2.729340e+000
1.943802e+003,1.135040e+000
1.944766e+003,-8.677673e-001
1.945730e+003,-4.952087e-001
1.946695e+003,1.824585e+000
1.947659e+003,3.223785e+000
1.948623e+003,3.612305e+000
1.949587e+003,3.795364e+000
1.950552e+003,3.927673e+000
1.951516e+003,3.799713e+000
1.952480e+003,3.189911e+000
1.953444e+003,2.599640e+000
1.954408e+003,2.219925e+000
1.955373e+003,2.066071e+000
1.956337e+003,2.788696e+000
1.957301e+003,3.973694e+000
1.958265e+003,3.286346e+000
1.959230e+003,2.865906e-001
1.960194e+003,-1.028214e+000
1.961158e+003,5.846100e-001
1.962122e+003,2.461914e+000
1.963087e+003,4.604553e+000
1.964051e+003,6.075897e+000
1.965015e+003,6.563766e+000
1.965979e+003,6.151398e+000
1.966944e+003,3.644073e+000
1.967908e+003,7.141113e-001
1.968872e+003,8.378143e-001
1.969836e+003,3.780594e+000
1.970801e+003,6.093369e+000
1.971765e+003,6.297638e+000
1.972729e+003,5.470795e+000
1.973693e+003,4.243408e+000
1.974657e+003,3.285934e+000
1.975622e+003,3.950226e+000
1.976586e+003,5.470383e+000
1.977550e+003,5.710175e+000
1.978514e+003,4.956039e+000
1.979479e+003,5.040115e+000
1.980443e+003,6.131073e+000
1.981407e+003,6.463257e+000
1.982371e+003,5.361481e+000
1.983335e+003,4.801224e+000
1.984300e+003,6.308517e+000
1.985264e+003,8.578018e+000
1.986228e+003,9.811218e+000
1.987192e+003,9.963409e+000
1.988157e+003,8.672089e+000
1.989121e+003,5.456482e+000
1.990085e+003,3.579361e+000
1.991049e+003,3.765793e+000
1.992014e+003,3.957520e+000
1.992978e+003,3.531509e+000
1.993942e+003,3.480804e+000
1.994906e+003,3.999527e+000
1.995871e+003,5.154541e+000
1.996835e+003,7.810364e+000
1.997799e+003,1.072423e+001
1.998763e+003,1.202808e+001
1.999728e+003,1.176797e+001
