5.003444e+002,3.890993e+001
5.013087e+002,3.934431e+001
5.022729e+002,3.683945e+001
5.032371e+002,3.271213e+001
5.042014e+002,3.093408e+001
5.051656e+002,3.121513e+001
5.061298e+002,3.226077e+001
5.070941e+002,3.299271e+001
5.080583e+002,3.345999e+001
5.090225e+002,3.254393e+001
5.099868e+002,2.883128e+001
5.109510e+002,2.562228e+001
5.119152e+002,2.505469e+001
5.128795e+002,2.741261e+001
5.138437e+002,2.911070e+001
5.148079e+002,2.790857e+001
5.157722e+002,2.680075e+001
5.167364e+002,2.753314e+001
5.177006e+002,2.987843e+001
5.186649e+002,3.167287e+001
5.196291e+002,2.954160e+001
5.205933e+002,2.615485e+001
5.215576e+002,2.403651e+001
5.225218e+002,2.345766e+001
5.234860e+002,2.412155e+001
5.244503e+002,2.576273e+001
5.254145e+002,2.912045e+001
5.263787e+002,3.051741e+001
5.273430e+002,2.878001e+001
5.283072e+002,2.589255e+001
5.292714e+002,2.455032e+001
5.302357e+002,2.537321e+001
5.311999e+002,2.605730e+001
5.321641e+002,2.659009e+001
5.331284e+002,2.705371e+001
5.340926e+002,2.776654e+001
5.350568e+002,2.885698e+001
5.360211e+002,2.868752e+001
5.369853e+002,2.438348e+001
5.379495e+002,1.935226e+001
5.389138e+002,1.654424e+001
5.398780e+002,1.696156e+001
5.408422e+002,1.924155e+001
5.418065e+002,1.974667e+001
5.427707e+002,1.874356e+001
5.437349e+002,1.801732e+001
5.446992e+002,1.803548e+001
5.456634e+002,1.857962e+001
5.466276e+002,1.893845e+001
5.475919e+002,1.904836e+001
5.485561e+002,1.913637e+001
5.495203e+002,1.938147e+001
5.504846e+002,1.943243e+001
5.514488e+002,1.878732e+001
5.524130e+002,1.710710e+001
5.533773e+002,1.527811e+001
5.543415e+002,1.335263e+001
5.553057e+002,1.174646e+001
5.562700e+002,1.104436e+001
5.572342e+002,1.156917e+001
5.581984e+002,1.258499e+001
5.591627e+002,1.239685e+001
5.601269e+002,1.148778e+001
5.610911e+002,1.050154e+001
5.620554e+002,9.701508e+000
5.630196e+002,9.039459e+000
5.639838e+002,8.631958e+000
5.649481e+002,8.213043e+000
5.659123e+002,8.427643e+000
5.668765e+002,1.046228e+001
5.678408e+002,1.347806e+001
5.688050e+002,1.471635e+001
5.697692e+002,1.167937e+001
5.707335e+002,8.741135e+000
5.716977e+002,7.149277e+000
5.726619e+002,6.595276e+000
5.736262e+002,6.687042e+000
5.745904e+002,7.312668e+000
5.755546e+002,8.016953e+000
5.765189e+002,7.491562e+000
5.774831e+002,6.367310e+000
5.784473e+002,6.304214e+000
5.794116e+002,8.473557e+000
5.803758e+002,1.256866e+001
5.813400e+002,1.296320e+001
5.823043e+002,8.138046e+000
5.832685e+002,4.206406e+000
5.842327e+002,4.118317e+000
5.851970e+002,7.259949e+000
5.861612e+002,8.959427e+000
5.871254e+002,6.258728e+000
5.880897e+002,4.457428e+000
5.890539e+002,5.481903e+000
5.900181e+002,7.820511e+000
5.909824e+002,8.777359e+000
5.919466e+002,6.286072e+000
5.929108e+002,2.868683e+000
5.938751e+002,9.235077e-001
5.948393e+002,1.484833e-001
5.958035e+002,3.311310e-001
5.967678e+002,1.304916e+000
5.977320e+002,2.923294e+000
5.986962e+002,3.367493e+000
5.996605e+002,2.420776e+000
6.006247e+002,1.827759e+000
6.015889e+002,2.752716e+000
6.025532e+002,5.054657e+000
6.035174e+002,6.388962e+000
6.044816e+002,5.693512e+000
6.054459e+002,5.136978e+000
6.064101e+002,5.285599e+000
6.073743e+002,5.718140e+000
6.083386e+002,5.502380e+000
6.093028e+002,3.713715e+000
6.102670e+002,2.227737e+000
6.112313e+002,2.711029e+000
6.121955e+002,4.174652e+000
6.131597e+002,5.350159e+000
6.141240e+002,5.363403e+000
6.150882e+002,4.491913e+000
6.160524e+002,3.820419e+000
6.170167e+002,3.386154e+000
6.179809e+002,3.464600e+000
6.189451e+002,4.290146e+000
6.199094e+002,5.643707e+000
6.208736e+002,6.361130e+000
6.218378e+002,6.606033e+000
6.228021e+002,6.180984e+000
6.237663e+002,4.325012e+000
6.247305e+002,2.014847e+000
6.256948e+002,8.343201e-001
6.266590e+002,1.695648e+000
6.276232e+002,2.748795e+000
6.285875e+002,3.156418e+000
6.295517e+002,3.147614e+000
6.305159e+002,2.888031e+000
6.314802e+002,2.432816e+000
6.324444e+002,1.692429e+000
6.334086e+002,1.142120e-001
6.343729e+002,-1.802444e+000
6.353371e+002,-2.599014e+000
6.363013e+002,-1.581879e+000
6.372656e+002,5.509186e-001
6.382298e+002,1.395035e+000
6.391940e+002,-9.240875e-001
6.401583e+002,-2.213562e+000
6.411225e+002,-1.614807e+000
6.420867e+002,-9.667969e-002
6.430510e+002,1.183167e+000
6.440152e+002,1.865967e+000
6.449794e+002,1.992416e+000
6.459437e+002,1.674210e+000
6.469079e+002,9.329071e-001
6.478721e+002,-4.154663e-001
6.488364e+002,-2.287033e+000
6.498006e+002,-4.139725e+000
6.507648e+002,-5.176956e+000
6.517291e+002,-5.504578e+000
6.526933e+002,-4.948120e+000
6.536575e+002,-3.412018e+000
6.546218e+002,-1.662613e+000
6.555860e+002,-1.211578e+000
6.565502e+002,-3.072968e+000
6.575145e+002,-4.160706e+000
6.584787e+002,-3.905502e+000
6.594429e+002,-3.418961e+000
6.604072e+002,-3.658722e+000
6.613714e+002,-4.836319e+000
6.623356e+002,-5.816513e+000
6.632999e+002,-6.126480e+000
6.642641e+002,-6.231003e+000
6.652283e+002,-6.103073e+000
6.661926e+002,-5.806274e+000
6.671568e+002,-5.610214e+000
6.681210e+002,-6.161224e+000
6.690853e+002,-6.860031e+000
6.700495e+002,-5.972900e+000
6.710137e+002,-3.550018e+000
6.719780e+002,-7.482605e-001
6.729422e+002,1.289291e+000
6.739064e+002,2.544632e+000
6.748707e+002,2.497559e+000
6.758349e+002,1.190186e-002
6.767991e+002,-2.133942e+000
6.777634e+002,-2.476089e+000
6.787276e+002,-1.128998e+000
6.796918e+002,2.619171e-001
6.806561e+002,1.530914e+000
6.816203e+002,1.890945e+000
6.825845e+002,2.416687e-001
6.835488e+002,-2.337997e+000
6.845130e+002,-4.099960e+000
6.854772e+002,-3.667679e+000
6.864415e+002,-1.891479e+000
6.874057e+002,-7.103729e-001
6.883699e+002,-1.920624e-001
6.893342e+002,-3.937073e-001
6.902984e+002,-1.372574e+000
6.912626e+002,-2.926773e+000
6.922269e+002,-3.955994e+000
6.931911e+002,-4.255051e+000
6.941553e+002,-3.863968e+000
6.951196e+002,-2.187134e+000
6.960838e+002,-2.426300e-001
6.970480e+002,1.952515e-001
6.980123e+002,-2.077591e+000
6.989765e+002,-3.471420e+000
6.999407e+002,-1.765472e+000
7.009050e+002,6.398621e-001
7.018692e+002,1.781433e+000
7.028334e+002,1.025558e+000
7.037977e+002,-5.444794e-001
7.047619e+002,-1.206879e+000
7.057261e+002,-1.248413e+000
7.066904e+002,-1.503860e+000
7.076546e+002,-2.109268e+000
7.086188e+002,-2.801453e+000
7.095831e+002,-3.199722e+000
7.105473e+002,-3.461670e+000
7.115115e+002,-2.988159e+000
7.124758e+002,-7.796021e-001
7.134400e+002,9.594727e-001
7.144042e+002,5.432587e-001
7.153685e+002,-1.953705e+000
7.163327e+002,-3.855820e+000
7.172969e+002,-3.349838e+000
7.182612e+002,-2.465759e+000
7.192254e+002,-1.903442e+000
7.201896e+002,-1.693176e+000
7.211539e+002,-1.625717e+000
7.221181e+002,-1.524475e+000
7.230823e+002,-1.389130e+000
7.240466e+002,-1.284821e+000
7.250108e+002,-1.070587e+000
7.259750e+002,-4.836273e-001
7.269393e+002,6.169281e-001
7.279035e+002,1.940033e+000
7.288677e+002,2.243271e+000
7.298320e+002,1.087616e+000
7.307962e+002,-6.428528e-002
7.317604e+002,-1.676697e+000
7.327247e+002,-2.988159e+000
7.336889e+002,-2.753769e+000
7.346531e+002,-2.813110e-001
7.356174e+002,1.569092e+000
7.365816e+002,7.086487e-001
7.375458e+002,-4.777222e-001
7.385101e+002,2.572021e-001
7.394743e+002,3.164612e+000
7.404385e+002,6.232544e+000
7.414028e+002,6.092178e+000
7.423670e+002,3.154419e+000
7.433312e+002,1.165787e+000
7.442955e+002,5.936890e-001
7.452597e+002,8.711700e-001
7.462239e+002,1.359650e+000
7.471882e+002,2.132584e+000
7.481524e+002,2.464859e+000
7.491166e+002,1.410583e+000
7.500809e+002,6.652374e-001
7.510451e+002,1.243942e+000
7.520093e+002,2.750458e+000
7.529736e+002,3.713638e+000
7.539378e+002,3.475601e+000
7.549020e+002,2.779373e+000
7.558663e+002,1.542328e+000
7.568306e+002,3.729095e-001
7.577948e+002,2.967377e-001
7.587590e+002,1.794113e+000
7.597233e+002,3.913498e+000
7.606875e+002,3.810547e+000
7.616517e+002,1.880295e+000
7.626160e+002,2.276306e-001
7.635802e+002,-7.254486e-001
7.645444e+002,-9.617310e-001
7.655087e+002,-2.674713e-001
7.664729e+002,2.320145e+000
7.674371e+002,3.530228e+000
7.684014e+002,2.174210e+000
7.693656e+002,5.293884e-001
7.703298e+002,1.775360e-001
7.712941e+002,1.249573e+000
7.722583e+002,2.391006e+000
7.732225e+002,2.758316e+000
7.741868e+002,2.606522e+000
7.751510e+002,1.836197e+000
7.761152e+002,7.421722e-001
7.770795e+002,-2.397919e-001
7.780437e+002,-7.501221e-001
7.790079e+002,-7.548065e-001
7.799722e+002,9.782715e-001
7.809364e+002,4.730789e+000
7.819006e+002,7.455933e+000
7.828649e+002,7.434814e+000
7.838291e+002,5.622665e+000
7.847933e+002,5.141220e+000
7.857576e+002,7.370346e+000
7.867218e+002,8.241440e+000
7.876860e+002,6.194946e+000
7.886503e+002,3.588287e+000
7.896145e+002,2.513000e+000
7.905787e+002,3.452225e+000
7.915430e+002,4.725891e+000
7.925072e+002,3.986374e+000
7.934714e+002,2.730392e+000
7.944357e+002,3.208420e+000
7.953999e+002,5.328918e+000
7.963641e+002,7.238678e+000
7.973284e+002,6.727371e+000
7.982926e+002,3.562683e+000
7.992568e+002,2.632507e+000
8.002211e+002,5.147507e+000
8.011853e+002,6.642624e+000
8.021495e+002,4.643875e+000
8.031138e+002,5.709839e-001
8.040780e+002,-9.592285e-001
8.050422e+002,2.165054e+000
8.060065e+002,5.537689e+000
8.069707e+002,8.223740e+000
8.079349e+002,9.971191e+000
8.088992e+002,1.031918e+001
8.098634e+002,9.318878e+000
8.108276e+002,8.064468e+000
8.117919e+002,8.334808e+000
8.127561e+002,9.020065e+000
8.137203e+002,8.005814e+000
8.146846e+002,5.244781e+000
8.156488e+002,2.461884e+000
8.166130e+002,1.771194e+000
8.175773e+002,3.627472e+000
8.185415e+002,4.588699e+000
8.195057e+002,3.754227e+000
8.204700e+002,3.055252e+000
8.214342e+002,3.564835e+000
8.223984e+002,4.703644e+000
8.233627e+002,4.687775e+000
8.243269e+002,2.059814e+000
8.252911e+002,9.176636e-002
8.262554e+002,6.880493e-001
8.272196e+002,2.646088e+000
8.281838e+002,5.205780e+000
8.291481e+002,7.796631e+000
8.301123e+002,9.713516e+000
8.310765e+002,9.381683e+000
8.320408e+002,6.996964e+000
8.330050e+002,5.937485e+000
8.339692e+002,6.646851e+000
8.349335e+002,7.960846e+000
8.358977e+002,8.986740e+000
8.368619e+002,9.899902e+000
8.378262e+002,9.813293e+000
8.387904e+002,7.444931e+000
8.397546e+002,5.307785e+000
8.407189e+002,3.853439e+000
8.416831e+002,3.110443e+000
8.426473e+002,3.012024e+000
8.436116e+002,3.587433e+000
8.445758e+002,4.689499e+000
8.455400e+002,6.255676e+000
8.465043e+002,7.866760e+000
8.474685e+002,9.558411e+000
8.484327e+002,1.126045e+001
8.493970e+002,1.222652e+001
8.503612e+002,1.088924e+001
8.513254e+002,6.515594e+000
8.522897e+002,5.184723e+000
8.532539e+002,8.728165e+000
8.542181e+002,1.234186e+001
8.551824e+002,1.294415e+001
8.561466e+002,1.110005e+001
8.571108e+002,1.054126e+001
8.580751e+002,1.330956e+001
8.590393e+002,1.498578e+001
8.600035e+002,1.334360e+001
8.609678e+002,1.059129e+001
8.619320e+002,9.415207e+000
8.628962e+002,1.079715e+001
8.638605e+002,1.283472e+001
8.648247e+002,1.218111e+001
8.657889e+002,1.021593e+001
8.667532e+002,1.018907e+001
8.677174e+002,1.251601e+001
8.686816e+002,1.551822e+001
8.696459e+002,1.730762e+001
8.706101e+002,1.774356e+001
8.715743e+002,1.848518e+001
8.725386e+002,1.999876e+001
8.735028e+002,2.123387e+001
8.744670e+002,2.192830e+001
8.754313e+002,2.196432e+001
8.763955e+002,2.099849e+001
8.773597e+002,1.850700e+001
8.783240e+002,1.675523e+001
8.792882e+002,1.826007e+001
8.802524e+002,2.045799e+001
8.812167e+002,2.067780e+001
8.821809e+002,1.877994e+001
8.831451e+002,1.701970e+001
8.841094e+002,1.845221e+001
8.850736e+002,2.301051e+001
8.860378e+002,2.583160e+001
8.870021e+002,2.669865e+001
8.879663e+002,2.673587e+001
8.889305e+002,2.609174e+001
8.898948e+002,2.492357e+001
8.908590e+002,2.433067e+001
8.918232e+002,2.499428e+001
8.927875e+002,2.547842e+001
8.937517e+002,2.480371e+001
8.947159e+002,2.432695e+001
8.956802e+002,2.545377e+001
8.966444e+002,2.818649e+001
8.976086e+002,3.084656e+001
8.985729e+002,3.185364e+001
8.995371e+002,3.186537e+001
9.005013e+002,3.176802e+001
9.014656e+002,3.172388e+001
9.024298e+002,3.208493e+001
9.033940e+002,3.311655e+001
9.043583e+002,3.452046e+001
9.053225e+002,3.478864e+001
9.062867e+002,3.293652e+001
9.072510e+002,3.089590e+001
9.082152e+002,2.794325e+001
9.091794e+002,2.564876e+001
9.101437e+002,2.616266e+001
9.111079e+002,2.985132e+001
9.120721e+002,3.279631e+001
9.130364e+002,3.139357e+001
9.140006e+002,2.940424e+001
9.149648e+002,2.922174e+001
9.159291e+002,3.039520e+001
9.168933e+002,3.142049e+001
9.178575e+002,3.117979e+001
9.188218e+002,2.995712e+001
9.197860e+002,2.869846e+001
9.207502e+002,2.726619e+001
9.217145e+002,2.720100e+001
9.226787e+002,3.000494e+001
9.236429e+002,3.350021e+001
9.246072e+002,3.433554e+001
9.255714e+002,3.178163e+001
9.265356e+002,2.988760e+001
9.274999e+002,2.992911e+001
9.284641e+002,2.993994e+001
9.294283e+002,2.918898e+001
9.303926e+002,2.804140e+001
9.313568e+002,2.736317e+001
9.323210e+002,2.763879e+001
9.332853e+002,2.792451e+001
9.342495e+002,2.601663e+001
9.352137e+002,2.319748e+001
9.361780e+002,2.177844e+001
9.371422e+002,2.233437e+001
9.381064e+002,2.357228e+001
9.390707e+002,2.355846e+001
9.400349e+002,2.182378e+001
9.409991e+002,2.107306e+001
9.419634e+002,2.195802e+001
9.429276e+002,2.277267e+001
9.438918e+002,2.332690e+001
9.448561e+002,2.350806e+001
9.458203e+002,2.311948e+001
9.467845e+002,2.207799e+001
9.477488e+002,2.082872e+001
9.487130e+002,1.857182e+001
9.496772e+002,1.697675e+001
9.506415e+002,1.810379e+001
9.516057e+002,2.152188e+001
9.525699e+002,2.497313e+001
9.535342e+002,2.624263e+001
9.544984e+002,2.552646e+001
9.554626e+002,2.495937e+001
9.564269e+002,2.497960e+001
9.573911e+002,2.429834e+001
9.583553e+002,2.161035e+001
9.593196e+002,1.835373e+001
9.602838e+002,1.712982e+001
9.612480e+002,1.852541e+001
9.622123e+002,1.968695e+001
9.631765e+002,1.949632e+001
9.641407e+002,1.928433e+001
9.651050e+002,1.961348e+001
9.660692e+002,2.033829e+001
9.670334e+002,2.130121e+001
9.679977e+002,2.251140e+001
9.689619e+002,2.347633e+001
9.699261e+002,2.231001e+001
9.708904e+002,1.963399e+001
9.718546e+002,1.717238e+001
9.728188e+002,1.503398e+001
9.737831e+002,1.404405e+001
9.747473e+002,1.574820e+001
9.757115e+002,2.088107e+001
9.766758e+002,2.498192e+001
9.776400e+002,2.801857e+001
9.786042e+002,3.027493e+001
9.795685e+002,3.165170e+001
9.805327e+002,3.211957e+001
9.814969e+002,3.173830e+001
9.824612e+002,3.061299e+001
9.834254e+002,2.878821e+001
9.843896e+002,2.536612e+001
9.853539e+002,2.154527e+001
9.863181e+002,1.861519e+001
9.872823e+002,1.656757e+001
9.882466e+002,1.496690e+001
9.892108e+002,1.357803e+001
9.901750e+002,1.262813e+001
9.911393e+002,1.253946e+001
9.921035e+002,1.373053e+001
9.930677e+002,1.439671e+001
9.940320e+002,1.413783e+001
9.949962e+002,1.384637e+001
9.959604e+002,1.449301e+001
9.969247e+002,1.611845e+001
9.978889e+002,1.751068e+001
9.988531e+002,1.764651e+001
9.998174e+002,1.756770e+001
1.000782e+003,1.770155e+001
1.001746e+003,1.834166e+001
1.002710e+003,2.010324e+001
1.003674e+003,2.305568e+001
1.004639e+003,2.620074e+001
1.005603e+003,2.779387e+001
1.006567e+003,2.759837e+001
1.007531e+003,2.681635e+001
1.008495e+003,2.517780e+001
1.009460e+003,2.356673e+001
1.010424e+003,2.265520e+001
1.011388e+003,2.227629e+001
1.012352e+003,2.162328e+001
1.013317e+003,2.040312e+001
1.014281e+003,1.912784e+001
1.015245e+003,1.768370e+001
1.016209e+003,1.636006e+001
1.017174e+003,1.547084e+001
1.018138e+003,1.498804e+001
1.019102e+003,1.467610e+001
1.020066e+003,1.441997e+001
1.021031e+003,1.413774e+001
1.021995e+003,1.334648e+001
1.022959e+003,1.200298e+001
1.023923e+003,1.019446e+001
1.024887e+003,7.709305e+000
1.025852e+003,5.129349e+000
1.026816e+003,3.294968e+000
1.027780e+003,2.219635e+000
1.028744e+003,2.349991e+000
1.029709e+003,5.629028e+000
1.030673e+003,7.819504e+000
1.031637e+003,7.010605e+000
1.032601e+003,4.537430e+000
1.033566e+003,2.187103e+000
1.034530e+003,6.554413e-001
1.035494e+003,-2.007446e-001
1.036458e+003,-7.340088e-001
1.037422e+003,-5.752106e-001
1.038387e+003,1.583664e+000
1.039351e+003,5.375046e+000
1.040315e+003,8.077682e+000
1.041279e+003,7.587158e+000
1.042244e+003,4.629532e+000
1.043208e+003,2.485260e+000
1.044172e+003,1.216232e+000
1.045136e+003,5.780029e-001
1.046101e+003,1.031479e+000
1.047065e+003,1.714996e+000
1.048029e+003,2.096786e+000
1.048993e+003,2.160919e+000
1.049958e+003,2.154602e+000
1.050922e+003,2.216171e+000
1.051886e+003,2.401108e+000
1.052850e+003,2.471710e+000
1.053814e+003,2.754639e+000
1.054779e+003,3.928299e+000
1.055743e+003,5.999481e+000
1.056707e+003,8.172180e+000
1.057671e+003,9.529373e+000
1.058636e+003,1.004074e+001
1.059600e+003,9.729767e+000
1.060564e+003,7.755234e+000
1.061528e+003,6.539398e+000
1.062493e+003,7.061035e+000
1.063457e+003,7.820038e+000
1.064421e+003,7.083740e+000
1.065385e+003,4.736145e+000
1.066349e+003,2.457932e+000
1.067314e+003,6.453247e-001
1.068278e+003,-2.080688e-001
1.069242e+003,6.710968e-001
1.070206e+003,2.545380e+000
1.071171e+003,4.412216e+000
1.072135e+003,5.701126e+000
1.073099e+003,6.182083e+000
1.074063e+003,5.446609e+000
1.075028e+003,3.319382e+000
1.075992e+003,3.295929e+000
1.076956e+003,7.157959e+000
1.077920e+003,9.616608e+000
1.078885e+003,7.790924e+000
1.079849e+003,3.822403e+000
1.080813e+003,1.528351e+000
1.081777e+003,1.606110e+000
1.082741e+003,2.385315e+000
1.083706e+003,3.757248e+000
1.084670e+003,4.738327e+000
1.085634e+003,4.371002e+000
1.086598e+003,3.243896e+000
1.087563e+003,2.822540e+000
1.088527e+003,3.868988e+000
1.089491e+003,5.159195e+000
1.090455e+003,3.834671e+000
1.091420e+003,-5.740814e-001
1.092384e+003,-2.266922e+000
1.093348e+003,-7.835388e-002
1.094312e+003,2.421173e+000
1.095276e+003,3.211731e+000
1.096241e+003,2.871933e+000
1.097205e+003,3.047852e+000
1.098169e+003,4.244675e+000
1.099133e+003,4.720932e+000
1.100098e+003,2.547104e+000
1.101062e+003,7.778931e-001
1.102026e+003,2.344345e+000
1.102990e+003,5.880737e+000
1.103955e+003,7.538757e+000
1.104919e+003,5.013840e+000
1.105883e+003,7.941895e-001
1.106847e+003,4.927673e-001
1.107812e+003,4.190063e+000
1.108776e+003,6.609772e+000
1.109740e+003,7.540314e+000
1.110704e+003,7.187729e+000
1.111668e+003,4.873093e+000
1.112633e+003,1.389389e+000
1.113597e+003,1.609802e-001
1.114561e+003,2.594849e+000
1.115525e+003,4.495560e+000
1.116490e+003,4.333466e+000
1.117454e+003,3.500244e+000
1.118418e+003,2.536804e+000
1.119382e+003,1.853317e+000
1.120347e+003,1.873169e+000
1.121311e+003,2.757355e+000
1.122275e+003,4.015732e+000
1.123239e+003,5.105347e+000
1.124203e+003,6.126755e+000
1.125168e+003,6.556702e+000
1.126132e+003,6.119278e+000
1.127096e+003,5.803497e+000
1.128060e+003,6.341614e+000
1.129025e+003,7.546555e+000
1.129989e+003,8.876480e+000
1.130953e+003,1.079770e+001
1.131917e+003,1.148578e+001
1.132882e+003,8.858139e+000
1.133846e+003,6.678284e+000
1.134810e+003,8.090851e+000
1.135774e+003,1.182518e+001
1.136739e+003,1.432243e+001
1.137703e+003,1.359329e+001
1.138667e+003,1.160519e+001
1.139631e+003,1.192146e+001
1.140595e+003,1.425708e+001
1.141560e+003,1.560422e+001
1.142524e+003,1.546585e+001
1.143488e+003,1.601547e+001
1.144452e+003,1.886375e+001
1.145417e+003,2.353435e+001
1.146381e+003,2.836327e+001
1.147345e+003,3.335054e+001
1.148309e+003,3.824593e+001
1.149274e+003,4.274289e+001
1.150238e+003,4.751181e+001
1.151202e+003,5.301920e+001
1.152166e+003,5.916005e+001
1.153130e+003,6.615541e+001
1.154095e+003,7.379126e+001
1.155059e+003,8.010764e+001
1.156023e+003,8.245276e+001
1.156987e+003,8.089928e+001
1.157952e+003,7.746390e+001
1.158916e+003,7.197513e+001
1.159880e+003,6.689981e+001
1.160844e+003,6.436705e+001
1.161809e+003,6.247145e+001
1.162773e+003,5.649634e+001
1.163737e+003,4.497968e+001
1.164701e+003,3.601907e+001
1.165666e+003,3.396516e+001
1.166630e+003,3.266702e+001
1.167594e+003,3.006340e+001
1.168558e+003,2.673347e+001
1.169522e+003,2.343549e+001
1.170487e+003,2.061696e+001
1.171451e+003,1.895160e+001
1.172415e+003,1.943433e+001
1.173379e+003,2.134581e+001
1.174344e+003,2.067891e+001
1.175308e+003,1.732574e+001
1.176272e+003,1.479482e+001
1.177236e+003,1.474393e+001
1.178201e+003,1.572876e+001
1.179165e+003,1.605330e+001
1.180129e+003,1.563763e+001
1.181093e+003,1.418279e+001
1.182057e+003,1.001077e+001
1.183022e+003,7.410812e+000
1.183986e+003,9.349228e+000
1.184950e+003,1.244427e+001
1.185914e+003,1.327275e+001
1.186879e+003,1.176100e+001
1.187843e+003,1.032414e+001
1.188807e+003,1.090532e+001
1.189771e+003,1.270360e+001
1.190736e+003,1.337834e+001
1.191700e+003,1.274181e+001
1.192664e+003,1.285007e+001
1.193628e+003,1.459811e+001
1.194593e+003,1.632758e+001
1.195557e+003,1.698631e+001
1.196521e+003,1.664215e+001
1.197485e+003,1.550346e+001
1.198449e+003,1.345461e+001
1.199414e+003,1.113625e+001
1.200378e+003,8.218658e+000
1.201342e+003,5.708038e+000
1.202306e+003,4.188843e+000
1.203271e+003,3.560181e+000
1.204235e+003,3.762054e+000
1.205199e+003,4.659561e+000
1.206163e+003,5.562485e+000
1.207128e+003,5.228470e+000
1.208092e+003,3.582657e+000
1.209056e+003,2.506927e+000
1.210020e+003,2.410522e+000
1.210984e+003,1.994659e+000
1.211949e+003,6.550446e-001
1.212913e+003,-1.107910e+000
1.213877e+003,-2.628174e+000
1.214841e+003,-3.830475e+000
1.215806e+003,-5.003510e+000
1.216770e+003,-6.388382e+000
1.217734e+003,-7.607819e+000
1.218698e+003,-8.591949e+000
1.219663e+003,-9.295029e+000
1.220627e+003,-9.372162e+000
1.221591e+003,-8.970901e+000
1.222555e+003,-8.983612e+000
1.223520e+003,-1.025500e+001
1.224484e+003,-1.233064e+001
1.225448e+003,-1.324655e+001
1.226412e+003,-1.253552e+001
1.227376e+003,-1.160922e+001
1.228341e+003,-1.001947e+001
1.229305e+003,-8.796783e+000
1.230269e+003,-8.695313e+000
1.231233e+003,-9.319519e+000
1.232198e+003,-9.840515e+000
1.233162e+003,-1.000063e+001
1.234126e+003,-9.974777e+000
1.235090e+003,-9.717697e+000
1.236055e+003,-9.663208e+000
1.237019e+003,-1.087740e+001
1.237983e+003,-1.263750e+001
1.238947e+003,-1.242918e+001
1.239911e+003,-9.204132e+000
1.240876e+003,-5.916473e+000
1.241840e+003,-7.463058e+000
1.242804e+003,-1.427861e+001
1.243768e+003,-1.776497e+001
1.244733e+003,-1.503604e+001
1.245697e+003,-1.253195e+001
1.246661e+003,-1.048685e+001
1.247625e+003,-9.212906e+000
1.248590e+003,-9.045822e+000
1.249554e+003,-9.693359e+000
1.250518e+003,-1.056815e+001
1.251482e+003,-1.149580e+001
1.252447e+003,-1.239871e+001
1.253411e+003,-1.334201e+001
1.254375e+003,-1.391780e+001
1.255339e+003,-1.325595e+001
1.256303e+003,-1.131967e+001
1.257268e+003,-8.976944e+000
1.258232e+003,-6.441223e+000
1.259196e+003,-4.421005e+000
1.260160e+003,-4.554337e+000
1.261125e+003,-7.250946e+000
1.262089e+003,-8.938858e+000
1.263053e+003,-8.816498e+000
1.264017e+003,-8.338165e+000
1.264982e+003,-7.576340e+000
1.265946e+003,-6.739273e+000
1.266910e+003,-6.015228e+000
1.267874e+003,-5.395920e+000
1.268839e+003,-4.580704e+000
1.269803e+003,-3.350967e+000
1.270767e+003,-2.345123e+000
1.271731e+003,-3.059631e+000
1.272695e+003,-5.361710e+000
1.273660e+003,-6.448944e+000
1.274624e+003,-5.956085e+000
1.275588e+003,-5.496292e+000
1.276552e+003,-6.053101e+000
1.277517e+003,-6.976135e+000
1.278481e+003,-6.957993e+000
1.279445e+003,-5.854355e+000
1.280409e+003,-5.431488e+000
1.281374e+003,-6.912781e+000
1.282338e+003,-8.276794e+000
1.283302e+003,-7.903534e+000
1.284266e+003,-7.219772e+000
1.285230e+003,-8.316086e+000
1.286195e+003,-1.106566e+001
1.287159e+003,-1.321982e+001
1.288123e+003,-1.287590e+001
1.289087e+003,-1.097191e+001
1.290052e+003,-1.065181e+001
1.291016e+003,-1.293921e+001
1.291980e+003,-1.327437e+001
1.292944e+003,-9.270325e+000
1.293909e+003,-6.736420e+000
1.294873e+003,-9.241287e+000
1.295837e+003,-1.358511e+001
1.296801e+003,-1.514987e+001
1.297766e+003,-1.346237e+001
1.298730e+003,-1.171761e+001
1.299694e+003,-1.151801e+001
1.300658e+003,-1.216405e+001
1.301622e+003,-1.340067e+001
1.302587e+003,-1.460587e+001
1.303551e+003,-1.460985e+001
1.304515e+003,-1.326569e+001
1.305479e+003,-1.160988e+001
1.306444e+003,-1.044957e+001
1.307408e+003,-9.792465e+000
1.308372e+003,-9.625732e+000
1.309336e+003,-1.023820e+001
1.310301e+003,-1.046938e+001
1.311265e+003,-9.744278e+000
1.312229e+003,-9.166229e+000
1.313193e+003,-9.113831e+000
1.314157e+003,-9.373398e+000
1.315122e+003,-9.729645e+000
1.316086e+003,-1.016348e+001
1.317050e+003,-1.081847e+001
1.318014e+003,-1.177553e+001
1.318979e+003,-1.267384e+001
1.319943e+003,-1.292412e+001
1.320907e+003,-1.251462e+001
1.321871e+003,-1.189394e+001
1.322836e+003,-1.112384e+001
1.323800e+003,-1.045122e+001
1.324764e+003,-9.767731e+000
1.325728e+003,-9.343445e+000
1.326693e+003,-1.003262e+001
1.327657e+003,-1.193944e+001
1.328621e+003,-1.285304e+001
1.329585e+003,-1.132138e+001
1.330549e+003,-9.608841e+000
1.331514e+003,-9.312927e+000
1.332478e+003,-9.510269e+000
1.333442e+003,-8.872345e+000
1.334406e+003,-7.702789e+000
1.335371e+003,-7.816971e+000
1.336335e+003,-1.023122e+001
1.337299e+003,-1.316898e+001
1.338263e+003,-1.313913e+001
1.339228e+003,-9.617218e+000
1.340192e+003,-8.047501e+000
1.341156e+003,-1.004176e+001
1.342120e+003,-1.147472e+001
1.343084e+003,-1.201433e+001
1.344049e+003,-1.175244e+001
1.345013e+003,-9.822510e+000
1.345977e+003,-7.065948e+000
1.346941e+003,-6.318008e+000
1.347906e+003,-8.741989e+000
1.348870e+003,-1.098509e+001
1.349834e+003,-9.316315e+000
1.350798e+003,-6.025925e+000
1.351763e+003,-5.587936e+000
1.352727e+003,-7.561798e+000
1.353691e+003,-9.477341e+000
1.354655e+003,-1.057385e+001
1.355620e+003,-1.083560e+001
1.356584e+003,-9.954330e+000
1.357548e+003,-8.048340e+000
1.358512e+003,-6.425949e+000
1.359476e+003,-5.098526e+000
1.360441e+003,-4.498657e+000
1.361405e+003,-5.015503e+000
1.362369e+003,-5.845551e+000
1.363333e+003,-6.951492e+000
1.364298e+003,-7.951187e+000
1.365262e+003,-8.223572e+000
1.366226e+003,-7.765625e+000
1.367190e+003,-7.405075e+000
1.368155e+003,-7.902405e+000
1.369119e+003,-8.742661e+000
1.370083e+003,-8.182678e+000
1.371047e+003,-5.529739e+000
1.372011e+003,-4.284241e+000
1.372976e+003,-5.928116e+000
1.373940e+003,-7.174835e+000
1.374904e+003,-6.563675e+000
1.375868e+003,-4.980392e+000
1.376833e+003,-2.978088e+000
1.377797e+003,-9.916534e-001
1.378761e+003,-1.041702e+000
1.379725e+003,-4.656876e+000
1.380690e+003,-8.266983e+000
1.381654e+003,-7.513107e+000
1.382618e+003,-4.723175e+000
1.383582e+003,-2.824280e+000
1.384547e+003,-2.009201e+000
1.385511e+003,-1.772964e+000
1.386475e+003,-1.986847e+000
1.387439e+003,-2.430618e+000
1.388403e+003,-2.739136e+000
1.389368e+003,-2.923416e+000
1.390332e+003,-3.178268e+000
1.391296e+003,-3.374008e+000
1.392260e+003,-3.790604e+000
1.393225e+003,-4.702957e+000
1.394189e+003,-5.645142e+000
1.395153e+003,-6.789017e+000
1.396117e+003,-7.588181e+000
1.397082e+003,-6.895615e+000
1.398046e+003,-4.716309e+000
1.399010e+003,-2.715424e+000
1.399974e+003,-2.509735e+000
1.400938e+003,-3.515045e+000
1.401903e+003,-3.516663e+000
1.402867e+003,-1.835709e+000
1.403831e+003,-9.038239e-001
1.404795e+003,-1.433853e+000
1.405760e+003,-1.968796e+000
1.406724e+003,-1.918091e+000
1.407688e+003,-2.019867e+000
1.408652e+003,-3.209763e+000
1.409617e+003,-5.184570e+000
1.410581e+003,-6.620117e+000
1.411545e+003,-6.992920e+000
1.412509e+003,-6.759125e+000
1.413474e+003,-6.321426e+000
1.414438e+003,-5.704437e+000
1.415402e+003,-4.407486e+000
1.416366e+003,-2.590240e+000
1.417330e+003,-1.756607e+000
1.418295e+003,-2.640411e+000
1.419259e+003,-4.119522e+000
1.420223e+003,-4.960846e+000
1.421187e+003,-5.344742e+000
1.422152e+003,-6.202148e+000
1.423116e+003,-7.943512e+000
1.424080e+003,-8.478043e+000
1.425044e+003,-5.720535e+000
1.426009e+003,-3.474396e+000
1.426973e+003,-4.180527e+000
1.427937e+003,-5.762375e+000
1.428901e+003,-5.440598e+000
1.429865e+003,-3.161728e+000
1.430830e+003,-8.573761e-001
1.431794e+003,1.295319e-001
1.432758e+003,-3.308105e-002
1.433722e+003,-1.012756e+000
1.434687e+003,-2.843002e+000
1.435651e+003,-3.112030e+000
1.436615e+003,-3.679047e-001
1.437579e+003,1.066345e+000
1.438544e+003,1.223907e-001
1.439508e+003,-1.433365e+000
1.440472e+003,-2.686905e+000
1.441436e+003,-3.459854e+000
1.442401e+003,-3.804871e+000
1.443365e+003,-3.742920e+000
1.444329e+003,-2.921387e+000
1.445293e+003,-8.343964e-001
1.446257e+003,1.606400e+000
1.447222e+003,2.596436e+000
1.448186e+003,2.302231e+000
1.449150e+003,1.434082e+000
1.450114e+003,-2.206421e-001
1.451079e+003,-1.497192e+000
1.452043e+003,-1.317932e+000
1.453007e+003,-6.291351e-001
1.453971e+003,-8.305206e-001
1.454936e+003,-1.878036e+000
1.455900e+003,-3.105942e+000
1.456864e+003,-4.606491e+000
1.457828e+003,-5.266754e+000
1.458792e+003,-3.651627e+000
1.459757e+003,-1.755386e+000
1.460721e+003,-1.535706e+000
1.461685e+003,-2.202499e+000
1.462649e+003,-1.688095e+000
1.463614e+003,4.271545e-001
1.464578e+003,2.125076e+000
1.465542e+003,1.492844e+000
1.466506e+003,-7.452698e-001
1.467471e+003,-2.494873e+000
1.468435e+003,-3.736496e+000
1.469399e+003,-4.028748e+000
1.470363e+003,-3.035965e+000
1.471328e+003,-1.711700e+000
1.472292e+003,3.013916e-001
1.473256e+003,1.827621e+000
1.474220e+003,1.815216e+000
1.475184e+003,9.761200e-001
1.476149e+003,6.816406e-001
1.477113e+003,1.265656e+000
1.478077e+003,1.796524e+000
1.479041e+003,1.424164e+000
1.480006e+003,7.247467e-001
1.480970e+003,1.514221e+000
1.481934e+003,4.468216e+000
1.482898e+003,5.467010e+000
1.483863e+003,2.808533e+000
1.484827e+003,7.694550e-001
1.485791e+003,7.535248e-001
1.486755e+003,1.742386e+000
1.487719e+003,2.918808e+000
1.488684e+003,4.141617e+000
1.489648e+003,5.669373e+000
1.490612e+003,7.597794e+000
1.491576e+003,8.987991e+000
1.492541e+003,8.807251e+000
1.493505e+003,7.928207e+000
1.494469e+003,8.372269e+000
1.495433e+003,9.814346e+000
1.496398e+003,1.106761e+001
1.497362e+003,1.216083e+001
1.498326e+003,1.310216e+001
1.499290e+003,1.354979e+001
1.500255e+003,1.405255e+001
1.501219e+003,1.518153e+001
1.502183e+003,1.696176e+001
1.503147e+003,1.985246e+001
1.504111e+003,2.429807e+001
1.505076e+003,2.802853e+001
1.506040e+003,2.914252e+001
1.507004e+003,2.960382e+001
1.507968e+003,3.089790e+001
1.508933e+003,3.318449e+001
1.509897e+003,3.706154e+001
1.510861e+003,4.267847e+001
1.511825e+003,4.877673e+001
1.512790e+003,5.442862e+001
1.513754e+003,5.977423e+001
1.514718e+003,6.520609e+001
1.515682e+003,7.063464e+001
1.516646e+003,7.604373e+001
1.517611e+003,8.146242e+001
1.518575e+003,8.710312e+001
1.519539e+003,9.375247e+001
1.520503e+003,1.000868e+002
1.521468e+003,1.065853e+002
1.522432e+003,1.116252e+002
1.523396e+003,1.129679e+002
1.524360e+003,1.105095e+002
1.525325e+003,1.053472e+002
1.526289e+003,9.825505e+001
1.527253e+003,9.124997e+001
1.528217e+003,8.820868e+001
1.529182e+003,8.928894e+001
1.530146e+003,8.786955e+001
1.531110e+003,8.333231e+001
1.532074e+003,7.713580e+001
1.533039e+003,6.792221e+001
1.534003e+003,5.859105e+001
1.534967e+003,5.039366e+001
1.535931e+003,4.317505e+001
1.536896e+003,3.652699e+001
1.537860e+003,3.050900e+001
1.538824e+003,2.554736e+001
1.539788e+003,2.176595e+001
1.540752e+003,1.852487e+001
1.541717e+003,1.498764e+001
1.542681e+003,1.145477e+001
1.543645e+003,9.450439e+000
1.544609e+003,9.683609e+000
1.545573e+003,1.003862e+001
1.546538e+003,1.117805e+001
1.547502e+003,1.127415e+001
1.548466e+003,8.559937e+000
1.549430e+003,5.649719e+000
1.550395e+003,5.359482e+000
1.551359e+003,7.122772e+000
1.552323e+003,8.973648e+000
1.553287e+003,1.012891e+001
1.554252e+003,1.006296e+001
1.555216e+003,8.065933e+000
1.556180e+003,5.140610e+000
1.557144e+003,3.601486e+000
1.558109e+003,3.560928e+000
1.559073e+003,3.994034e+000
1.560037e+003,5.226624e+000
1.561001e+003,5.851852e+000
1.561966e+003,4.923660e+000
1.562930e+003,3.938171e+000
1.563894e+003,4.582153e+000
1.564858e+003,6.068787e+000
1.565823e+003,6.303421e+000
1.566787e+003,4.932083e+000
1.567751e+003,3.521164e+000
1.568715e+003,2.967865e+000
1.569679e+003,2.789993e+000
1.570644e+003,2.168182e+000
1.571608e+003,1.412842e+000
1.572572e+003,1.808182e+000
1.573536e+003,3.491669e+000
1.574500e+003,4.602371e+000
1.575465e+003,3.953430e+000
1.576429e+003,3.390503e+000
1.577393e+003,4.798370e+000
1.578357e+003,7.087418e+000
1.579322e+003,8.009613e+000
1.580286e+003,7.566284e+000
1.581250e+003,7.747345e+000
1.582214e+003,9.462494e+000
1.583179e+003,1.069246e+001
1.584143e+003,9.122528e+000
1.585107e+003,6.908554e+000
1.586071e+003,7.621201e+000
1.587036e+003,1.029314e+001
1.588000e+003,1.136803e+001
1.588964e+003,9.930176e+000
1.589928e+003,8.234299e+000
1.590893e+003,7.655594e+000
1.591857e+003,7.799789e+000
1.592821e+003,8.278091e+000
1.593785e+003,9.018417e+000
1.594750e+003,9.465561e+000
1.595714e+003,9.467438e+000
1.596678e+003,9.373383e+000
1.597642e+003,9.048523e+000
1.598606e+003,9.115891e+000
1.599571e+003,1.038519e+001
1.600535e+003,1.218271e+001
1.601499e+003,1.391634e+001
1.602463e+003,1.532776e+001
1.603427e+003,1.564053e+001
1.604392e+003,1.443947e+001
1.605356e+003,1.297264e+001
1.606320e+003,1.256271e+001
1.607284e+003,1.285332e+001
1.608249e+003,1.268968e+001
1.609213e+003,1.204143e+001
1.610177e+003,1.203905e+001
1.611141e+003,1.317604e+001
1.612106e+003,1.421022e+001
1.613070e+003,1.481380e+001
1.614034e+003,1.479301e+001
1.614998e+003,1.370891e+001
1.615963e+003,1.202054e+001
1.616927e+003,9.943314e+000
1.617891e+003,7.835876e+000
1.618855e+003,7.618225e+000
1.619820e+003,1.073625e+001
1.620784e+003,1.437541e+001
1.621748e+003,1.422890e+001
1.622712e+003,1.117043e+001
1.623677e+003,9.869583e+000
1.624641e+003,1.063470e+001
1.625605e+003,1.169176e+001
1.626569e+003,1.306223e+001
1.627533e+003,1.348566e+001
1.628498e+003,1.130904e+001
1.629462e+003,9.123093e+000
1.630426e+003,9.161697e+000
1.631390e+003,1.090231e+001
1.632354e+003,1.339635e+001
1.633319e+003,1.612857e+001
1.634283e+003,1.753548e+001
1.635247e+003,1.620113e+001
1.636211e+003,1.363788e+001
1.637176e+003,1.258318e+001
1.638140e+003,1.299599e+001
1.639104e+003,1.355927e+001
1.640068e+003,1.426187e+001
1.641033e+003,1.484476e+001
1.641997e+003,1.534785e+001
1.642961e+003,1.566731e+001
1.643925e+003,1.591652e+001
1.644890e+003,1.583968e+001
1.645854e+003,1.470085e+001
1.646818e+003,1.306323e+001
1.647782e+003,1.253682e+001
1.648747e+003,1.352847e+001
1.649711e+003,1.459148e+001
1.650675e+003,1.458655e+001
1.651639e+003,1.397215e+001
1.652604e+003,1.340999e+001
1.653568e+003,1.286098e+001
1.654532e+003,1.298122e+001
1.655496e+003,1.418205e+001
1.656460e+003,1.470576e+001
1.657425e+003,1.387195e+001
1.658389e+003,1.255551e+001
1.659353e+003,1.047505e+001
1.660317e+003,8.731216e+000
1.661281e+003,8.815720e+000
1.662246e+003,1.023280e+001
1.663210e+003,1.135944e+001
1.664174e+003,1.169768e+001
1.665138e+003,1.188058e+001
1.666103e+003,1.236871e+001
1.667067e+003,1.304666e+001
1.668031e+003,1.407210e+001
1.668995e+003,1.535713e+001
1.669960e+003,1.500096e+001
1.670924e+003,1.234116e+001
1.671888e+003,1.043719e+001
1.672852e+003,1.064557e+001
1.673817e+003,1.111375e+001
1.674781e+003,1.022330e+001
1.675745e+003,9.258484e+000
1.676709e+003,1.025668e+001
1.677674e+003,1.242041e+001
1.678638e+003,1.278677e+001
1.679602e+003,1.045888e+001
1.680566e+003,7.993164e+000
1.681531e+003,7.504501e+000
1.682495e+003,7.980713e+000
1.683459e+003,7.326981e+000
1.684423e+003,5.824020e+000
1.685387e+003,5.987213e+000
1.686352e+003,8.396408e+000
1.687316e+003,9.633972e+000
1.688280e+003,7.797638e+000
1.689244e+003,6.082214e+000
1.690208e+003,7.849106e+000
1.691173e+003,1.024257e+001
1.692137e+003,9.847305e+000
1.693101e+003,7.452484e+000
1.694065e+003,5.728836e+000
1.695030e+003,5.244720e+000
1.695994e+003,5.079376e+000
1.696958e+003,4.692047e+000
1.697922e+003,4.411896e+000
1.698887e+003,4.991913e+000
1.699851e+003,5.985672e+000
1.700815e+003,5.709335e+000
1.701779e+003,4.017075e+000
1.702744e+003,2.737625e+000
1.703708e+003,2.592163e+000
1.704672e+003,2.796265e+000
1.705636e+003,2.688843e+000
1.706601e+003,2.465469e+000
1.707565e+003,2.398163e+000
1.708529e+003,2.646957e+000
1.709493e+003,4.000687e+000
1.710458e+003,6.831772e+000
1.711422e+003,7.923843e+000
1.712386e+003,4.643906e+000
1.713350e+003,9.000549e-001
1.714314e+003,-6.427612e-001
1.715279e+003,-5.424500e-001
1.716243e+003,1.206268e+000
1.717207e+003,3.901138e+000
1.718171e+003,4.268417e+000
1.719135e+003,1.430542e+000
1.720100e+003,-8.854065e-001
1.721064e+003,-7.008362e-002
1.722028e+003,1.964722e+000
1.722992e+003,2.680069e+000
1.723957e+003,2.350372e+000
1.724921e+003,2.043091e+000
1.725885e+003,1.642578e+000
1.726849e+003,1.003540e+000
1.727814e+003,-6.338196e-001
1.728778e+003,-1.185150e+000
1.729742e+003,1.663498e+000
1.730706e+003,4.655197e+000
1.731671e+003,4.047211e+000
1.732635e+003,1.108658e+000
1.733599e+003,-1.048462e+000
1.734563e+003,-1.710999e+000
1.735528e+003,-1.583542e+000
1.736492e+003,-1.094238e+000
1.737456e+003,-9.245148e-001
1.738420e+003,-1.992142e+000
1.739385e+003,-3.841644e+000
1.740349e+003,-4.541229e+000
1.741313e+003,-3.925156e+000
1.742277e+003,-2.635666e+000
1.743241e+003,3.462830e-001
1.744206e+003,2.510590e+000
1.745170e+003,3.078110e+000
1.746134e+003,3.195297e+000
1.747098e+003,3.645462e+000
1.748063e+003,3.865723e+000
1.749027e+003,2.979599e+000
1.749991e+003,1.282089e+000
1.750955e+003,-5.590057e-001
1.751919e+003,-2.136917e+000
1.752884e+003,-2.738983e+000
1.753848e+003,-1.749344e+000
1.754812e+003,-3.512573e-002
1.755776e+003,7.884369e-001
1.756741e+003,8.035736e-001
1.757705e+003,-9.625244e-002
1.758669e+003,-2.664185e+000
1.759633e+003,-4.139221e+000
1.760598e+003,-3.861877e+000
1.761562e+003,-3.108734e+000
1.762526e+003,-1.512726e+000
1.763490e+003,-1.837463e-001
1.764455e+003,-8.909607e-002
1.765419e+003,-6.527100e-001
1.766383e+003,-9.496918e-001
1.767347e+003,-9.552612e-001
1.768312e+003,-1.253540e+000
1.769276e+003,-2.150284e+000
1.770240e+003,-3.267807e+000
1.771204e+003,-4.287781e+000
1.772168e+003,-4.922638e+000
1.773133e+003,-4.475586e+000
1.774097e+003,-3.090317e+000
1.775061e+003,-2.337509e+000
1.776025e+003,-2.610855e+000
1.776990e+003,-2.222046e+000
1.777954e+003,4.656982e-002
1.778918e+003,1.931992e+000
1.779882e+003,1.381943e+000
1.780846e+003,-3.118286e-001
1.781811e+003,-1.765717e+000
1.782775e+003,-2.726685e+000
1.783739e+003,-2.102478e+000
1.784703e+003,4.870300e-001
1.785668e+003,2.341400e+000
1.786632e+003,2.231445e+000
1.787596e+003,9.925995e-001
1.788560e+003,-1.738510e+000
1.789525e+003,-4.307907e+000
1.790489e+003,-4.000702e+000
1.791453e+003,-1.665848e+000
1.792417e+003,-8.523560e-002
1.793382e+003,1.290283e-001
1.794346e+003,-4.229279e-001
1.795310e+003,-1.516678e+000
1.796274e+003,-2.148056e+000
1.797239e+003,-8.232727e-001
1.798203e+003,1.452454e+000
1.799167e+003,8.448792e-001
1.800131e+003,-3.636887e+000
1.801095e+003,-5.561935e+000
1.802060e+003,-2.438385e+000
1.803024e+003,-6.510468e-001
1.803988e+003,-2.602325e+000
1.804952e+003,-3.919418e+000
1.805917e+003,-1.301758e+000
1.806881e+003,1.892685e+000
1.807845e+003,1.883087e+000
1.808809e+003,-1.688843e-001
1.809773e+003,-1.180893e+000
1.810738e+003,-5.162964e-001
1.811702e+003,2.919617e-001
1.812666e+003,2.700348e-001
1.813630e+003,-1.113434e-001
1.814595e+003,-1.554413e-001
1.815559e+003,-1.328278e-001
1.816523e+003,-1.265991e+000
1.817487e+003,-3.708359e+000
1.818452e+003,-5.329239e+000
1.819416e+003,-6.073273e+000
1.820380e+003,-5.553177e+000
1.821344e+003,-2.648956e+000
1.822309e+003,-7.464600e-002
1.823273e+003,3.209229e-001
1.824237e+003,-3.239441e-002
1.825201e+003,4.794922e-001
1.826166e+003,1.336990e+000
1.827130e+003,6.626740e-001
1.828094e+003,-1.817459e+000
1.829058e+003,-3.244873e+000
1.830022e+003,-1.630737e+000
1.830987e+003,2.164612e-001
1.831951e+003,-4.350891e-001
1.832915e+003,-1.965195e+000
1.833879e+003,-1.818024e+000
1.834844e+003,-5.239868e-001
1.835808e+003,-2.563477e-003
1.836772e+003,-5.158234e-001
1.837736e+003,-1.352325e+000
1.838700e+003,-2.265884e+000
1.839665e+003,-2.946594e+000
1.840629e+003,-3.073792e+000
1.841593e+003,-2.693085e+000
1.842557e+003,-1.831573e+000
1.843522e+003,-5.133972e-001
1.844486e+003,-1.905518e-001
1.845450e+003,-2.059006e+000
1.846414e+003,-2.361191e+000
1.847379e+003,1.045135e+000
1.848343e+003,2.761490e+000
1.849307e+003,-4.766388e-001
1.850271e+003,-4.066788e+000
1.851236e+003,-4.780060e+000
1.852200e+003,-3.601822e+000
1.853164e+003,-1.951691e+000
1.854128e+003,-3.842621e-001
1.855093e+003,9.670563e-001
1.856057e+003,2.061066e+000
1.857021e+003,2.466064e+000
1.857985e+003,1.713394e+000
1.858949e+003,3.204346e-001
1.859914e+003,-1.076935e+000
1.860878e+003,-2.306000e+000
1.861842e+003,-2.399628e+000
1.862806e+003,-1.357895e+000
1.863771e+003,-2.445526e-001
1.864735e+003,8.020172e-001
1.865699e+003,1.623245e+000
1.866663e+003,2.283478e+000
1.867627e+003,2.598206e+000
1.868592e+003,2.142624e+000
1.869556e+003,1.230820e+000
1.870520e+003,6.528168e-001
1.871484e+003,3.293152e-001
1.872449e+003,-3.323669e-001
1.873413e+003,-1.455093e+000
1.874377e+003,-1.708832e+000
1.875341e+003,-1.234741e-001
1.876306e+003,1.235855e+000
1.877270e+003,1.057541e+000
1.878234e+003,2.699280e-001
1.879198e+003,-4.019775e-001
1.880163e+003,-7.868347e-001
1.881127e+003,-4.748077e-001
1.882091e+003,2.742920e-001
1.883055e+003,2.466888e-001
1.884020e+003,-9.640503e-001
1.884984e+003,-2.174316e+000
1.885948e+003,-2.322845e+000
1.886912e+003,-1.497177e+000
1.887876e+003,3.673401e-001
1.888841e+003,3.104355e+000
1.889805e+003,4.264465e+000
1.890769e+003,3.433960e+000
1.891733e+003,3.342834e+000
1.892698e+003,4.665222e+000
1.893662e+003,5.540359e+000
1.894626e+003,5.329269e+000
1.895590e+003,4.565750e+000
1.896554e+003,3.407272e+000
1.897519e+003,2.151230e+000
1.898483e+003,6.938477e-001
1.899447e+003,-6.708374e-001
1.900411e+003,-5.037994e-001
1.901376e+003,1.579926e+000
1.902340e+003,3.024338e+000
1.903304e+003,2.630615e+000
1.904268e+003,1.718903e+000
1.905233e+003,6.085358e-001
1.906197e+003,-1.124268e-001
1.907161e+003,5.011749e-001
1.908125e+003,1.812469e+000
1.909090e+003,2.610474e+000
1.910054e+003,2.783951e+000
1.911018e+003,2.874069e+000
1.911982e+003,3.104645e+000
1.912947e+003,3.274582e+000
1.913911e+003,3.212219e+000
1.914875e+003,2.915268e+000
1.915839e+003,2.225281e+000
1.916803e+003,1.413452e+000
1.917768e+003,2.643372e+000
1.918732e+003,6.697952e+000
1.919696e+003,7.796127e+000
1.920660e+003,4.475784e+000
1.921625e+003,2.347473e+000
1.922589e+003,3.326981e+000
1.923553e+003,4.410797e+000
1.924517e+003,3.710587e+000
1.925481e+003,2.746521e+000
1.926446e+003,2.994034e+000
1.927410e+003,3.900024e+000
1.928374e+003,4.301743e+000
1.929338e+003,4.096512e+000
1.930303e+003,3.910385e+000
1.931267e+003,4.031326e+000
1.932231e+003,4.175186e+000
1.933195e+003,3.888443e+000
1.934160e+003,3.776733e+000
1.935124e+003,4.451508e+000
1.936088e+003,5.363785e+000
1.937052e+003,6.189606e+000
1.938017e+003,6.703079e+000
1.938981e+003,6.562531e+000
1.939945e+003,5.656998e+000
1.940909e+003,3.544159e+000
1.941874e+003,2.346802e-001
1.942838e+003,-2.242249e+000
1.943802e+003,-1.903946e+000
1.944766e+003,2.218475e-001
1.945730e+003,2.147507e+000
1.946695e+003,3.729111e+000
1.947659e+003,4.031113e+000
1.948623e+003,2.882477e+000
1.949587e+003,2.106567e+000
1.950552e+003,1.853714e+000
1.951516e+003,2.458359e+000
1.952480e+003,4.720215e+000
1.953444e+003,6.333832e+000
1.954408e+003,4.913467e+000
1.955373e+003,2.631866e+000
1.956337e+003,3.023026e+000
1.957301e+003,5.272034e+000
1.958265e+003,6.107803e+000
1.959230e+003,5.298218e+000
1.960194e+003,4.557220e+000
1.961158e+003,3.718048e+000
1.962122e+003,3.295654e+000
1.963087e+003,3.517380e+000
1.964051e+003,4.122528e+000
1.965015e+003,5.633438e+000
1.965979e+003,7.020050e+000
1.966944e+003,6.718246e+000
1.967908e+003,5.609787e+000
1.968872e+003,5.713501e+000
1.969836e+003,7.034653e+000
1.970801e+003,7.920624e+000
1.971765e+003,7.671463e+000
1.972729e+003,6.866241e+000
1.973693e+003,5.806931e+000
1.974657e+003,4.988083e+000
1.975622e+003,5.233902e+000
1.976586e+003,6.215424e+000
1.977550e+003,7.383148e+000
1.978514e+003,8.600113e+000
1.979479e+003,8.963196e+000
1.980443e+003,8.376617e+000
1.981407e+003,7.911591e+000
1.982371e+003,8.005295e+000
1.983335e+003,8.123138e+000
1.984300e+003,7.787094e+000
1.985264e+003,7.342056e+000
1.986228e+003,7.401672e+000
1.987192e+003,7.847198e+000
1.988157e+003,8.084030e+000
1.989121e+003,8.150223e+000
1.990085e+003,7.952576e+000
1.991049e+003,7.182632e+000
1.992014e+003,6.873093e+000
1.992978e+003,7.390945e+000
1.993942e+003,7.959473e+000
1.994906e+003,8.662277e+000
1.995871e+003,8.977890e+000
1.996835e+003,7.860779e+000
1.997799e+003,6.561600e+000
1.998763e+003,7.357712e+000
1.999728e+003,9.665039e+000
