5.003444e+002,3.439352e+001
5.013087e+002,3.367508e+001
5.022729e+002,3.447882e+001
5.032371e+002,3.629764e+001
5.042014e+002,3.660535e+001
5.051656e+002,3.566504e+001
5.061298e+002,3.446179e+001
5.070941e+002,3.385007e+001
5.080583e+002,3.391913e+001
5.090225e+002,3.347110e+001
5.099868e+002,3.192300e+001
5.109510e+002,3.060605e+001
5.119152e+002,3.043216e+001
5.128795e+002,3.153726e+001
5.138437e+002,3.227881e+001
5.148079e+002,3.240381e+001
5.157722e+002,3.188699e+001
5.167364e+002,3.009818e+001
5.177006e+002,2.726248e+001
5.186649e+002,2.450848e+001
5.196291e+002,2.320877e+001
5.205933e+002,2.327673e+001
5.215576e+002,2.503284e+001
5.225218e+002,2.802936e+001
5.234860e+002,3.089093e+001
5.244503e+002,3.134027e+001
5.254145e+002,2.874854e+001
5.263787e+002,2.608490e+001
5.273430e+002,2.211621e+001
5.283072e+002,1.886243e+001
5.292714e+002,1.968173e+001
5.302357e+002,2.765463e+001
5.311999e+002,3.238861e+001
5.321641e+002,3.178729e+001
5.331284e+002,2.926984e+001
5.340926e+002,2.723486e+001
5.350568e+002,2.647839e+001
5.360211e+002,2.564984e+001
5.369853e+002,2.297769e+001
5.379495e+002,2.028409e+001
5.389138e+002,1.930151e+001
5.398780e+002,2.053204e+001
5.408422e+002,2.295679e+001
5.418065e+002,2.405399e+001
5.427707e+002,2.393121e+001
5.437349e+002,2.275351e+001
5.446992e+002,2.012759e+001
5.456634e+002,1.666302e+001
5.466276e+002,1.456995e+001
5.475919e+002,1.521692e+001
5.485561e+002,1.591937e+001
5.495203e+002,1.663812e+001
5.504846e+002,1.718732e+001
5.514488e+002,1.744806e+001
5.524130e+002,1.758173e+001
5.533773e+002,1.713828e+001
5.543415e+002,1.545551e+001
5.553057e+002,1.346326e+001
5.562700e+002,1.209366e+001
5.572342e+002,1.189056e+001
5.581984e+002,1.236401e+001
5.591627e+002,1.269241e+001
5.601269e+002,1.294119e+001
5.610911e+002,1.288815e+001
5.620554e+002,1.234204e+001
5.630196e+002,1.130850e+001
5.639838e+002,1.044833e+001
5.649481e+002,9.483704e+000
5.659123e+002,9.095947e+000
5.668765e+002,9.865173e+000
5.678408e+002,1.155130e+001
5.688050e+002,1.326740e+001
5.697692e+002,1.508395e+001
5.707335e+002,1.584622e+001
5.716977e+002,1.464584e+001
5.726619e+002,1.259271e+001
5.736262e+002,1.113644e+001
5.745904e+002,1.133035e+001
5.755546e+002,1.235059e+001
5.765189e+002,1.282385e+001
5.774831e+002,1.276550e+001
5.784473e+002,1.241803e+001
5.794116e+002,1.201816e+001
5.803758e+002,1.163031e+001
5.813400e+002,1.047736e+001
5.823043e+002,7.904846e+000
5.832685e+002,5.772949e+000
5.842327e+002,5.122040e+000
5.851970e+002,5.822632e+000
5.861612e+002,6.282471e+000
5.871254e+002,4.909119e+000
5.880897e+002,4.703674e+000
5.890539e+002,7.766541e+000
5.900181e+002,1.199524e+001
5.909824e+002,1.368384e+001
5.919466e+002,9.638702e+000
5.929108e+002,4.456848e+000
5.938751e+002,3.033722e+000
5.948393e+002,4.012848e+000
5.958035e+002,5.485260e+000
5.967678e+002,6.065521e+000
5.977320e+002,5.981812e+000
5.986962e+002,6.648865e+000
5.996605e+002,7.923004e+000
6.006247e+002,8.804932e+000
6.015889e+002,8.887909e+000
6.025532e+002,8.211670e+000
6.035174e+002,7.122101e+000
6.044816e+002,5.232574e+000
6.054459e+002,3.350800e+000
6.064101e+002,6.580200e-001
6.073743e+002,-1.816132e+000
6.083386e+002,-1.977234e+000
6.093028e+002,2.462311e+000
6.102670e+002,7.165436e+000
6.112313e+002,8.714966e+000
6.121955e+002,8.363037e+000
6.131597e+002,7.888733e+000
6.141240e+002,8.478088e+000
6.150882e+002,9.475220e+000
6.160524e+002,7.266632e+000
6.170167e+002,2.537811e+000
6.179809e+002,-8.605042e-001
6.189451e+002,-1.073364e+000
6.199094e+002,1.440155e+000
6.208736e+002,3.734253e+000
6.218378e+002,7.065765e+000
6.228021e+002,8.910431e+000
6.237663e+002,8.138092e+000
6.247305e+002,6.025269e+000
6.256948e+002,4.488037e+000
6.266590e+002,4.124146e+000
6.276232e+002,4.366180e+000
6.285875e+002,5.641144e+000
6.295517e+002,6.997131e+000
6.305159e+002,7.111481e+000
6.314802e+002,5.300720e+000
6.324444e+002,2.511810e+000
6.334086e+002,1.673065e+000
6.343729e+002,2.335876e+000
6.353371e+002,3.337219e+000
6.363013e+002,4.317169e+000
6.372656e+002,5.150665e+000
6.382298e+002,5.542114e+000
6.391940e+002,5.515961e+000
6.401583e+002,4.713257e+000
6.411225e+002,2.588928e+000
6.420867e+002,3.134460e-001
6.430510e+002,-6.285400e-001
6.440152e+002,5.268555e-001
6.449794e+002,1.086731e+000
6.459437e+002,-1.352081e+000
6.469079e+002,-4.143372e+000
6.478721e+002,-4.847870e+000
6.488364e+002,-2.780731e+000
6.498006e+002,2.446289e-001
6.507648e+002,7.325745e-001
6.517291e+002,-4.246216e-001
6.526933e+002,-9.004822e-001
6.536575e+002,-2.424927e-001
6.546218e+002,9.165955e-001
6.555860e+002,1.342224e+000
6.565502e+002,3.782654e-001
6.575145e+002,4.501343e-002
6.584787e+002,8.319397e-001
6.594429e+002,1.795441e+000
6.604072e+002,2.186615e+000
6.613714e+002,1.867676e+000
6.623356e+002,1.458588e+000
6.632999e+002,1.031525e+000
6.642641e+002,5.681763e-001
6.652283e+002,1.069031e-001
6.661926e+002,-2.315063e-001
6.671568e+002,-2.648315e-001
6.681210e+002,2.454834e-001
6.690853e+002,9.981079e-001
6.700495e+002,1.308899e+000
6.710137e+002,1.206696e+000
6.719780e+002,1.198822e+000
6.729422e+002,1.908691e+000
6.739064e+002,3.638184e+000
6.748707e+002,3.721771e+000
6.758349e+002,1.275635e+000
6.767991e+002,-1.327118e+000
6.777634e+002,-3.363556e+000
6.787276e+002,-4.620758e+000
6.796918e+002,-4.618439e+000
6.806561e+002,-1.786346e+000
6.816203e+002,5.356140e-001
6.825845e+002,7.917175e-001
6.835488e+002,-2.839355e-001
6.845130e+002,-1.513184e+000
6.854772e+002,-2.072754e+000
6.864415e+002,-1.753265e+000
6.874057e+002,9.133911e-002
6.883699e+002,2.686951e+000
6.893342e+002,4.328583e+000
6.902984e+002,4.037354e+000
6.912626e+002,2.201447e+000
6.922269e+002,1.172699e+000
6.931911e+002,2.220703e+000
6.941553e+002,2.810974e+000
6.951196e+002,2.135284e+000
6.960838e+002,8.146667e-001
6.970480e+002,-1.327209e-001
6.980123e+002,-5.549927e-001
6.989765e+002,-1.132202e-001
6.999407e+002,2.610046e+000
7.009050e+002,5.111908e+000
7.018692e+002,4.813721e+000
7.028334e+002,1.148468e+000
7.037977e+002,-3.496948e+000
7.047619e+002,-5.483215e+000
7.057261e+002,-5.290070e+000
7.066904e+002,-3.630310e+000
7.076546e+002,-6.224060e-001
7.086188e+002,2.585968e+000
7.095831e+002,4.141571e+000
7.105473e+002,3.432953e+000
7.115115e+002,2.443909e+000
7.124758e+002,8.052368e-001
7.134400e+002,-7.971497e-001
7.144042e+002,-1.907410e+000
7.153685e+002,-2.447083e+000
7.163327e+002,-2.705414e+000
7.172969e+002,-2.895599e+000
7.182612e+002,-2.647369e+000
7.192254e+002,-1.437317e+000
7.201896e+002,2.418823e-001
7.211539e+002,1.486145e+000
7.221181e+002,1.532867e+000
7.230823e+002,7.777405e-001
7.240466e+002,3.077393e-001
7.250108e+002,2.052917e-001
7.259750e+002,3.767090e-001
7.269393e+002,6.553345e-001
7.279035e+002,8.530579e-001
7.288677e+002,7.975159e-001
7.298320e+002,8.974609e-001
7.307962e+002,8.645325e-001
7.317604e+002,3.204651e-001
7.327247e+002,-1.861572e-001
7.336889e+002,2.529907e-002
7.346531e+002,1.025482e+000
7.356174e+002,2.086334e+000
7.365816e+002,3.465729e+000
7.375458e+002,4.819214e+000
7.385101e+002,6.075684e+000
7.394743e+002,7.061462e+000
7.404385e+002,7.266144e+000
7.414028e+002,5.331238e+000
7.423670e+002,1.690582e+000
7.433312e+002,4.589844e-002
7.442955e+002,1.002838e+000
7.452597e+002,3.126526e+000
7.462239e+002,4.805359e+000
7.471882e+002,5.958008e+000
7.481524e+002,6.548523e+000
7.491166e+002,5.449127e+000
7.500809e+002,4.685547e+000
7.510451e+002,5.793152e+000
7.520093e+002,8.026917e+000
7.529736e+002,8.626221e+000
7.539378e+002,5.504791e+000
7.549020e+002,2.038879e+000
7.558663e+002,-1.550598e-001
7.568306e+002,-1.167480e+000
7.577948e+002,-9.691772e-001
7.587590e+002,3.190002e-001
7.597233e+002,2.047546e+000
7.606875e+002,2.330231e+000
7.616517e+002,1.498718e+000
7.626160e+002,1.668549e+000
7.635802e+002,3.945374e+000
7.645444e+002,6.992859e+000
7.655087e+002,7.761993e+000
7.664729e+002,4.590973e+000
7.674371e+002,2.611969e+000
7.684014e+002,2.097260e+000
7.693656e+002,2.597107e+000
7.703298e+002,4.506592e+000
7.712941e+002,7.575134e+000
7.722583e+002,9.856018e+000
7.732225e+002,9.064453e+000
7.741868e+002,7.660339e+000
7.751510e+002,7.933624e+000
7.761152e+002,9.321259e+000
7.770795e+002,9.951172e+000
7.780437e+002,8.125183e+000
7.790079e+002,4.283905e+000
7.799722e+002,2.949188e+000
7.809364e+002,4.281982e+000
7.819006e+002,5.267395e+000
7.828649e+002,4.333130e+000
7.838291e+002,2.333618e+000
7.847933e+002,2.097687e+000
7.857576e+002,5.547974e+000
7.867218e+002,7.014191e+000
7.876860e+002,3.963776e+000
7.886503e+002,2.442627e-001
7.896145e+002,-5.990295e-001
7.905787e+002,2.208374e+000
7.915430e+002,5.559204e+000
7.925072e+002,5.935272e+000
7.934714e+002,4.792297e+000
7.944357e+002,3.601440e+000
7.953999e+002,2.722137e+000
7.963641e+002,2.216125e+000
7.973284e+002,2.090424e+000
7.982926e+002,2.358337e+000
7.992568e+002,2.957794e+000
8.002211e+002,4.025970e+000
8.011853e+002,4.421234e+000
8.021495e+002,3.776611e+000
8.031138e+002,2.557831e+000
8.040780e+002,1.599854e+000
8.050422e+002,3.724365e-001
8.060065e+002,1.992493e-001
8.069707e+002,1.880554e+000
8.079349e+002,4.212616e+000
8.088992e+002,6.584656e+000
8.098634e+002,8.637634e+000
8.108276e+002,9.507813e+000
8.117919e+002,6.306366e+000
8.127561e+002,1.238220e+000
8.137203e+002,-2.223816e-001
8.146846e+002,2.663788e+000
8.156488e+002,7.129974e+000
8.166130e+002,9.836182e+000
8.175773e+002,1.069962e+001
8.185415e+002,9.856842e+000
8.195057e+002,4.782013e+000
8.204700e+002,1.074921e+000
8.214342e+002,1.557861e+000
8.223984e+002,4.853271e+000
8.233627e+002,7.170135e+000
8.243269e+002,7.009796e+000
8.252911e+002,6.234344e+000
8.262554e+002,5.279327e+000
8.272196e+002,4.763184e+000
8.281838e+002,5.892395e+000
8.291481e+002,8.737701e+000
8.301123e+002,1.153543e+001
8.310765e+002,1.081186e+001
8.320408e+002,6.871582e+000
8.330050e+002,4.968903e+000
8.339692e+002,5.870056e+000
8.349335e+002,7.418304e+000
8.358977e+002,7.343536e+000
8.368619e+002,5.413177e+000
8.378262e+002,4.307251e+000
8.387904e+002,4.275513e+000
8.397546e+002,4.616760e+000
8.407189e+002,5.517517e+000
8.416831e+002,6.630432e+000
8.426473e+002,7.370880e+000
8.436116e+002,7.421356e+000
8.445758e+002,7.421143e+000
8.455400e+002,7.897430e+000
8.465043e+002,8.440826e+000
8.474685e+002,8.867310e+000
8.484327e+002,9.221893e+000
8.493970e+002,9.527832e+000
8.503612e+002,9.570129e+000
8.513254e+002,9.130371e+000
8.522897e+002,9.883453e+000
8.532539e+002,1.296860e+001
8.542181e+002,1.542938e+001
8.551824e+002,1.522739e+001
8.561466e+002,1.288986e+001
8.571108e+002,1.152667e+001
8.580751e+002,1.210345e+001
8.590393e+002,1.247440e+001
8.600035e+002,1.210440e+001
8.609678e+002,1.139597e+001
8.619320e+002,1.030447e+001
8.628962e+002,8.958221e+000
8.638605e+002,8.684692e+000
8.648247e+002,1.292227e+001
8.657889e+002,1.929361e+001
8.667532e+002,2.262897e+001
8.677174e+002,2.224548e+001
8.686816e+002,2.008807e+001
8.696459e+002,1.823657e+001
8.706101e+002,1.676178e+001
8.715743e+002,1.587537e+001
8.725386e+002,1.531680e+001
8.735028e+002,1.561075e+001
8.744670e+002,1.714871e+001
8.754313e+002,1.934851e+001
8.763955e+002,2.162106e+001
8.773597e+002,2.429419e+001
8.783240e+002,2.547763e+001
8.792882e+002,2.191513e+001
8.802524e+002,1.751871e+001
8.812167e+002,1.609302e+001
8.821809e+002,1.809909e+001
8.831451e+002,2.118753e+001
8.841094e+002,2.234158e+001
8.850736e+002,2.174301e+001
8.860378e+002,2.185919e+001
8.870021e+002,2.256909e+001
8.879663e+002,2.381497e+001
8.889305e+002,2.612958e+001
8.898948e+002,2.903384e+001
8.908590e+002,3.017471e+001
8.918232e+002,2.824979e+001
8.927875e+002,2.665359e+001
8.937517e+002,2.609290e+001
8.947159e+002,2.612390e+001
8.956802e+002,2.633557e+001
8.966444e+002,2.651639e+001
8.976086e+002,2.672183e+001
8.985729e+002,2.748590e+001
8.995371e+002,2.816702e+001
9.005013e+002,2.693884e+001
9.014656e+002,2.436462e+001
9.024298e+002,2.293622e+001
9.033940e+002,2.456827e+001
9.043583e+002,2.867584e+001
9.053225e+002,3.158450e+001
9.062867e+002,3.236307e+001
9.072510e+002,3.272733e+001
9.082152e+002,3.306348e+001
9.091794e+002,3.312430e+001
9.101437e+002,3.225385e+001
9.111079e+002,3.031168e+001
9.120721e+002,2.903799e+001
9.130364e+002,3.020148e+001
9.140006e+002,3.142911e+001
9.149648e+002,3.122400e+001
9.159291e+002,3.020786e+001
9.168933e+002,2.982892e+001
9.178575e+002,3.100568e+001
9.188218e+002,3.297940e+001
9.197860e+002,3.324329e+001
9.207502e+002,3.168631e+001
9.217145e+002,3.045084e+001
9.226787e+002,3.000732e+001
9.236429e+002,3.035675e+001
9.246072e+002,3.179453e+001
9.255714e+002,3.471664e+001
9.265356e+002,3.594702e+001
9.274999e+002,3.358334e+001
9.284641e+002,3.082751e+001
9.294283e+002,2.826279e+001
9.303926e+002,2.633057e+001
9.313568e+002,2.573712e+001
9.323210e+002,2.693939e+001
9.332853e+002,2.835483e+001
9.342495e+002,2.694690e+001
9.352137e+002,2.407758e+001
9.361780e+002,2.159241e+001
9.371422e+002,2.004654e+001
9.381064e+002,1.971964e+001
9.390707e+002,2.102255e+001
9.400349e+002,2.419943e+001
9.409991e+002,2.617514e+001
9.419634e+002,2.643573e+001
9.429276e+002,2.626627e+001
9.438918e+002,2.553201e+001
9.448561e+002,2.478928e+001
9.458203e+002,2.529901e+001
9.467845e+002,2.786630e+001
9.477488e+002,2.964630e+001
9.487130e+002,2.711151e+001
9.496772e+002,2.382022e+001
9.506415e+002,2.244110e+001
9.516057e+002,2.318073e+001
9.525699e+002,2.499594e+001
9.535342e+002,2.688000e+001
9.544984e+002,2.866156e+001
9.554626e+002,2.919635e+001
9.564269e+002,2.843524e+001
9.573911e+002,2.812479e+001
9.583553e+002,2.906738e+001
9.593196e+002,3.047055e+001
9.602838e+002,3.115735e+001
9.612480e+002,3.105640e+001
9.622123e+002,3.004163e+001
9.631765e+002,2.671454e+001
9.641407e+002,2.394839e+001
9.651050e+002,2.343045e+001
9.660692e+002,2.441809e+001
9.670334e+002,2.520941e+001
9.679977e+002,2.483289e+001
9.689619e+002,2.409186e+001
9.699261e+002,2.460864e+001
9.708904e+002,2.580264e+001
9.718546e+002,2.627783e+001
9.728188e+002,2.553702e+001
9.737831e+002,2.448877e+001
9.747473e+002,2.433246e+001
9.757115e+002,2.518906e+001
9.766758e+002,2.664526e+001
9.776400e+002,2.963638e+001
9.786042e+002,3.235376e+001
9.795685e+002,3.474997e+001
9.805327e+002,3.622253e+001
9.814969e+002,3.595996e+001
9.824612e+002,3.378461e+001
9.834254e+002,3.103949e+001
9.843896e+002,2.828281e+001
9.853539e+002,2.582803e+001
9.863181e+002,2.408286e+001
9.872823e+002,2.297742e+001
9.882466e+002,2.245041e+001
9.892108e+002,2.263678e+001
9.901750e+002,2.362857e+001
9.911393e+002,2.444919e+001
9.921035e+002,2.453500e+001
9.930677e+002,2.441302e+001
9.940320e+002,2.371536e+001
9.949962e+002,2.343158e+001
9.959604e+002,2.471671e+001
9.969247e+002,2.760272e+001
9.978889e+002,3.050562e+001
9.988531e+002,3.270248e+001
9.998174e+002,3.415521e+001
1.000782e+003,3.484695e+001
1.001746e+003,3.513895e+001
1.002710e+003,3.541888e+001
1.003674e+003,3.584399e+001
1.004639e+003,3.629587e+001
1.005603e+003,3.656549e+001
1.006567e+003,3.657312e+001
1.007531e+003,3.682523e+001
1.008495e+003,3.767804e+001
1.009460e+003,3.814227e+001
1.010424e+003,3.707861e+001
1.011388e+003,3.511996e+001
1.012352e+003,3.502448e+001
1.013317e+003,3.875833e+001
1.014281e+003,4.069864e+001
1.015245e+003,3.796439e+001
1.016209e+003,3.408273e+001
1.017174e+003,3.176987e+001
1.018138e+003,3.106613e+001
1.019102e+003,3.000314e+001
1.020066e+003,2.689737e+001
1.021031e+003,2.284424e+001
1.021995e+003,2.086984e+001
1.022959e+003,2.039496e+001
1.023923e+003,1.976535e+001
1.024887e+003,1.834698e+001
1.025852e+003,1.662616e+001
1.026816e+003,1.551483e+001
1.027780e+003,1.533545e+001
1.028744e+003,1.484464e+001
1.029709e+003,1.349265e+001
1.030673e+003,1.228375e+001
1.031637e+003,1.141318e+001
1.032601e+003,1.080807e+001
1.033566e+003,1.051318e+001
1.034530e+003,1.056659e+001
1.035494e+003,1.059857e+001
1.036458e+003,1.008401e+001
1.037422e+003,9.201996e+000
1.038387e+003,8.218536e+000
1.039351e+003,7.153625e+000
1.040315e+003,6.190948e+000
1.041279e+003,5.443909e+000
1.042244e+003,5.114777e+000
1.043208e+003,6.018097e+000
1.044172e+003,9.527222e+000
1.045136e+003,1.153000e+001
1.046101e+003,1.105814e+001
1.047065e+003,1.019904e+001
1.048029e+003,1.049878e+001
1.048993e+003,1.157553e+001
1.049958e+003,1.158624e+001
1.050922e+003,9.288635e+000
1.051886e+003,6.960175e+000
1.052850e+003,7.259491e+000
1.053814e+003,8.700745e+000
1.054779e+003,9.345337e+000
1.055743e+003,8.788605e+000
1.056707e+003,8.006592e+000
1.057671e+003,8.218414e+000
1.058636e+003,9.401215e+000
1.059600e+003,9.739471e+000
1.060564e+003,8.435028e+000
1.061528e+003,7.884216e+000
1.062493e+003,8.902344e+000
1.063457e+003,1.019452e+001
1.064421e+003,1.032944e+001
1.065385e+003,9.229889e+000
1.066349e+003,8.241669e+000
1.067314e+003,8.322113e+000
1.068278e+003,8.379944e+000
1.069242e+003,7.271423e+000
1.070206e+003,5.815918e+000
1.071171e+003,5.342346e+000
1.072135e+003,6.288239e+000
1.073099e+003,7.880035e+000
1.074063e+003,8.979980e+000
1.075028e+003,9.640198e+000
1.075992e+003,9.504181e+000
1.076956e+003,7.756226e+000
1.077920e+003,6.441498e+000
1.078885e+003,6.975800e+000
1.079849e+003,8.405334e+000
1.080813e+003,8.638611e+000
1.081777e+003,7.102386e+000
1.082741e+003,6.171936e+000
1.083706e+003,8.067200e+000
1.084670e+003,9.688385e+000
1.085634e+003,8.511414e+000
1.086598e+003,5.856201e+000
1.087563e+003,4.879333e+000
1.088527e+003,7.241486e+000
1.089491e+003,1.086130e+001
1.090455e+003,1.127444e+001
1.091420e+003,7.910583e+000
1.092384e+003,6.023956e+000
1.093348e+003,6.000671e+000
1.094312e+003,6.444031e+000
1.095276e+003,6.345001e+000
1.096241e+003,6.277924e+000
1.097205e+003,8.307129e+000
1.098169e+003,1.414526e+001
1.099133e+003,1.737296e+001
1.100098e+003,1.364136e+001
1.101062e+003,8.742645e+000
1.102026e+003,5.523193e+000
1.102990e+003,4.309906e+000
1.103955e+003,4.757233e+000
1.104919e+003,6.572418e+000
1.105883e+003,8.926422e+000
1.106847e+003,1.016327e+001
1.107812e+003,1.019528e+001
1.108776e+003,9.856812e+000
1.109740e+003,8.881744e+000
1.110704e+003,8.165100e+000
1.111668e+003,8.976013e+000
1.112633e+003,1.086029e+001
1.113597e+003,1.113034e+001
1.114561e+003,8.342468e+000
1.115525e+003,6.463593e+000
1.116490e+003,7.173676e+000
1.117454e+003,8.566254e+000
1.118418e+003,9.740356e+000
1.119382e+003,1.066583e+001
1.120347e+003,1.162943e+001
1.121311e+003,1.268689e+001
1.122275e+003,1.343246e+001
1.123239e+003,1.322269e+001
1.124203e+003,1.239896e+001
1.125168e+003,1.271283e+001
1.126132e+003,1.465198e+001
1.127096e+003,1.692896e+001
1.128060e+003,1.858493e+001
1.129025e+003,1.965222e+001
1.129989e+003,2.051382e+001
1.130953e+003,2.110809e+001
1.131917e+003,2.150354e+001
1.132882e+003,2.177640e+001
1.133846e+003,2.197827e+001
1.134810e+003,2.190909e+001
1.135774e+003,2.184418e+001
1.136739e+003,2.226080e+001
1.137703e+003,2.341766e+001
1.138667e+003,2.522900e+001
1.139631e+003,2.775296e+001
1.140595e+003,3.087415e+001
1.141560e+003,3.375543e+001
1.142524e+003,3.631851e+001
1.143488e+003,3.924661e+001
1.144452e+003,4.284949e+001
1.145417e+003,4.712131e+001
1.146381e+003,5.193616e+001
1.147345e+003,5.688657e+001
1.148309e+003,6.343677e+001
1.149274e+003,7.367471e+001
1.150238e+003,8.385431e+001
1.151202e+003,9.141306e+001
1.152166e+003,9.779803e+001
1.153130e+003,1.065726e+002
1.154095e+003,1.189500e+002
1.155059e+003,1.308671e+002
1.156023e+003,1.367808e+002
1.156987e+003,1.368690e+002
1.157952e+003,1.349082e+002
1.158916e+003,1.308788e+002
1.159880e+003,1.267869e+002
1.160844e+003,1.242911e+002
1.161809e+003,1.217010e+002
1.162773e+003,1.153358e+002
1.163737e+003,1.043809e+002
1.164701e+003,9.336282e+001
1.165666e+003,8.253659e+001
1.166630e+003,7.304608e+001
1.167594e+003,6.545679e+001
1.168558e+003,5.937146e+001
1.169522e+003,5.417007e+001
1.170487e+003,4.971802e+001
1.171451e+003,4.674954e+001
1.172415e+003,4.625366e+001
1.173379e+003,4.764319e+001
1.174344e+003,4.801123e+001
1.175308e+003,4.742352e+001
1.176272e+003,4.659976e+001
1.177236e+003,4.612534e+001
1.178201e+003,4.536325e+001
1.179165e+003,4.297269e+001
1.180129e+003,3.880206e+001
1.181093e+003,3.565414e+001
1.182057e+003,3.491434e+001
1.183022e+003,3.424939e+001
1.183986e+003,3.182129e+001
1.184950e+003,2.971609e+001
1.185914e+003,3.058118e+001
1.186879e+003,3.411185e+001
1.187843e+003,3.757114e+001
1.188807e+003,3.868567e+001
1.189771e+003,3.808609e+001
1.190736e+003,3.775726e+001
1.191700e+003,3.771588e+001
1.192664e+003,3.765604e+001
1.193628e+003,3.803012e+001
1.194593e+003,3.795770e+001
1.195557e+003,3.621671e+001
1.196521e+003,3.343198e+001
1.197485e+003,3.220004e+001
1.198449e+003,3.368262e+001
1.199414e+003,3.433633e+001
1.200378e+003,3.153778e+001
1.201342e+003,2.834415e+001
1.202306e+003,2.676563e+001
1.203271e+003,2.622205e+001
1.204235e+003,2.493524e+001
1.205199e+003,2.217764e+001
1.206163e+003,1.935251e+001
1.207128e+003,1.889322e+001
1.208092e+003,2.099136e+001
1.209056e+003,2.153891e+001
1.210020e+003,1.995523e+001
1.210984e+003,1.832764e+001
1.211949e+003,1.750262e+001
1.212913e+003,1.672363e+001
1.213877e+003,1.496024e+001
1.214841e+003,1.221252e+001
1.215806e+003,9.505127e+000
1.216770e+003,6.999268e+000
1.217734e+003,4.942352e+000
1.218698e+003,3.661530e+000
1.219663e+003,2.614319e+000
1.220627e+003,1.025330e+000
1.221591e+003,-1.111664e+000
1.222555e+003,-3.031860e+000
1.223520e+003,-3.983093e+000
1.224484e+003,-4.183655e+000
1.225448e+003,-4.981506e+000
1.226412e+003,-6.949158e+000
1.227376e+003,-8.278259e+000
1.228341e+003,-9.175873e+000
1.229305e+003,-9.338196e+000
1.230269e+003,-8.262573e+000
1.231233e+003,-6.444061e+000
1.232198e+003,-4.623993e+000
1.233162e+003,-2.888855e+000
1.234126e+003,-1.700958e+000
1.235090e+003,-1.472107e+000
1.236055e+003,-2.167969e+000
1.237019e+003,-4.315002e+000
1.237983e+003,-7.251709e+000
1.238947e+003,-9.077454e+000
1.239911e+003,-8.947205e+000
1.240876e+003,-8.015717e+000
1.241840e+003,-8.182739e+000
1.242804e+003,-9.576324e+000
1.243768e+003,-9.594543e+000
1.244733e+003,-6.190338e+000
1.245697e+003,-4.121368e+000
1.246661e+003,-4.986237e+000
1.247625e+003,-6.430969e+000
1.248590e+003,-6.526611e+000
1.249554e+003,-5.440063e+000
1.250518e+003,-4.513336e+000
1.251482e+003,-4.426331e+000
1.252447e+003,-4.725891e+000
1.253411e+003,-4.911224e+000
1.254375e+003,-4.860718e+000
1.255339e+003,-4.571625e+000
1.256303e+003,-3.958557e+000
1.257268e+003,-2.543030e+000
1.258232e+003,2.154541e-001
1.259196e+003,3.234528e+000
1.260160e+003,4.318817e+000
1.261125e+003,3.182770e+000
1.262089e+003,2.634949e+000
1.263053e+003,3.036865e+000
1.264017e+003,3.723450e+000
1.264982e+003,5.134216e+000
1.265946e+003,6.424408e+000
1.266910e+003,6.741333e+000
1.267874e+003,6.139252e+000
1.268839e+003,5.267029e+000
1.269803e+003,4.559845e+000
1.270767e+003,3.889526e+000
1.271731e+003,2.851959e+000
1.272695e+003,1.603333e+000
1.273660e+003,1.696381e+000
1.274624e+003,3.616455e+000
1.275588e+003,5.080414e+000
1.276552e+003,4.836731e+000
1.277517e+003,3.584351e+000
1.278481e+003,2.312958e+000
1.279445e+003,9.988098e-001
1.280409e+003,1.374207e-001
1.281374e+003,6.371765e-001
1.282338e+003,6.380920e-001
1.283302e+003,-1.389130e+000
1.284266e+003,-4.069672e+000
1.285230e+003,-6.070251e+000
1.286195e+003,-7.031219e+000
1.287159e+003,-6.960297e+000
1.288123e+003,-5.795563e+000
1.289087e+003,-3.957001e+000
1.290052e+003,-3.001312e+000
1.291016e+003,-3.332092e+000
1.291980e+003,-3.533508e+000
1.292944e+003,-3.415497e+000
1.293909e+003,-3.655579e+000
1.294873e+003,-4.969940e+000
1.295837e+003,-6.330719e+000
1.296801e+003,-5.979340e+000
1.297766e+003,-3.865845e+000
1.298730e+003,-2.328491e+000
1.299694e+003,-2.672302e+000
1.300658e+003,-4.137939e+000
1.301622e+003,-6.770569e+000
1.302587e+003,-9.420364e+000
1.303551e+003,-9.969528e+000
1.304515e+003,-8.144318e+000
1.305479e+003,-5.633484e+000
1.306444e+003,-3.699707e+000
1.307408e+003,-2.434784e+000
1.308372e+003,-2.133850e+000
1.309336e+003,-3.306335e+000
1.310301e+003,-3.899658e+000
1.311265e+003,-2.637451e+000
1.312229e+003,-2.100769e+000
1.313193e+003,-4.008545e+000
1.314157e+003,-6.429688e+000
1.315122e+003,-6.972473e+000
1.316086e+003,-5.764252e+000
1.317050e+003,-5.219269e+000
1.318014e+003,-6.969269e+000
1.318979e+003,-9.100021e+000
1.319943e+003,-7.629150e+000
1.320907e+003,-3.157959e+000
1.321871e+003,-2.038239e+000
1.322836e+003,-5.885468e+000
1.323800e+003,-8.787079e+000
1.324764e+003,-6.304749e+000
1.325728e+003,-1.549194e+000
1.326693e+003,-2.016907e-001
1.327657e+003,-2.551422e+000
1.328621e+003,-4.348663e+000
1.329585e+003,-4.171967e+000
1.330549e+003,-3.031372e+000
1.331514e+003,-1.010132e+000
1.332478e+003,6.812744e-001
1.333442e+003,8.851318e-001
1.334406e+003,-2.199402e-001
1.335371e+003,-1.959595e+000
1.336335e+003,-3.864105e+000
1.337299e+003,-5.289307e+000
1.338263e+003,-4.922821e+000
1.339228e+003,-2.401550e+000
1.340192e+003,-1.483002e+000
1.341156e+003,-3.396759e+000
1.342120e+003,-4.992523e+000
1.343084e+003,-6.478821e+000
1.344049e+003,-7.149048e+000
1.345013e+003,-5.561462e+000
1.345977e+003,-2.506012e+000
1.346941e+003,-6.487427e-001
1.347906e+003,-1.009155e+000
1.348870e+003,-1.672028e+000
1.349834e+003,-4.280396e-001
1.350798e+003,1.154602e+000
1.351763e+003,-2.799072e-001
1.352727e+003,-4.079315e+000
1.353691e+003,-6.428070e+000
1.354655e+003,-5.665802e+000
1.355620e+003,-3.973755e+000
1.356584e+003,-4.173401e+000
1.357548e+003,-5.893707e+000
1.358512e+003,-5.833771e+000
1.359476e+003,-2.701233e+000
1.360441e+003,-1.377594e+000
1.361405e+003,-5.216644e+000
1.362369e+003,-8.669769e+000
1.363333e+003,-8.417068e+000
1.364298e+003,-6.343719e+000
1.365262e+003,-5.530914e+000
1.366226e+003,-6.532562e+000
1.367190e+003,-7.249634e+000
1.368155e+003,-5.786652e+000
1.369119e+003,-2.968903e+000
1.370083e+003,-1.355560e+000
1.371047e+003,-1.083588e+000
1.372011e+003,-1.406738e+000
1.372976e+003,-3.045685e+000
1.373940e+003,-4.586365e+000
1.374904e+003,-5.843506e+000
1.375868e+003,-6.395752e+000
1.376833e+003,-5.212860e+000
1.377797e+003,-2.628235e+000
1.378761e+003,-1.011902e+000
1.379725e+003,-1.480988e+000
1.380690e+003,-2.691925e+000
1.381654e+003,-3.783997e+000
1.382618e+003,-4.434265e+000
1.383582e+003,-4.056824e+000
1.384547e+003,-2.718262e+000
1.385511e+003,-9.772644e-001
1.386475e+003,1.001862e+000
1.387439e+003,2.624084e+000
1.388403e+003,2.999878e+000
1.389368e+003,2.116333e+000
1.390332e+003,4.088135e-001
1.391296e+003,-3.188080e+000
1.392260e+003,-5.196503e+000
1.393225e+003,-4.058929e+000
1.394189e+003,-2.242218e+000
1.395153e+003,-8.103027e-001
1.396117e+003,2.410278e-001
1.397082e+003,1.386871e+000
1.398046e+003,2.616028e+000
1.399010e+003,2.988251e+000
1.399974e+003,1.497345e+000
1.400938e+003,-1.076660e+000
1.401903e+003,-1.768860e+000
1.402867e+003,3.683167e-001
1.403831e+003,2.014526e+000
1.404795e+003,3.167664e+000
1.405760e+003,3.546631e+000
1.406724e+003,2.088531e+000
1.407688e+003,2.722168e-002
1.408652e+003,-9.757996e-001
1.409617e+003,-7.551575e-001
1.410581e+003,-3.518677e-002
1.411545e+003,9.750061e-001
1.412509e+003,1.995911e+000
1.413474e+003,2.781677e+000
1.414438e+003,3.127655e+000
1.415402e+003,2.856598e+000
1.416366e+003,2.176453e+000
1.417330e+003,1.640747e+000
1.418295e+003,1.485535e+000
1.419259e+003,1.479828e+000
1.420223e+003,1.402405e+000
1.421187e+003,1.130280e+000
1.422152e+003,2.180481e-001
1.423116e+003,-1.692322e+000
1.424080e+003,-2.577789e+000
1.425044e+003,-1.028717e+000
1.426009e+003,4.881287e-001
1.426973e+003,7.217102e-001
1.427937e+003,4.900818e-001
1.428901e+003,1.085266e+000
1.429865e+003,2.455841e+000
1.430830e+003,3.250031e+000
1.431794e+003,2.538574e+000
1.432758e+003,1.247498e+000
1.433722e+003,1.475433e+000
1.434687e+003,3.643738e+000
1.435651e+003,4.408234e+000
1.436615e+003,1.546844e+000
1.437579e+003,-2.977600e-001
1.438544e+003,-9.280396e-002
1.439508e+003,7.205811e-001
1.440472e+003,1.491730e+000
1.441436e+003,2.214081e+000
1.442401e+003,2.864868e+000
1.443365e+003,3.435486e+000
1.444329e+003,4.185455e+000
1.445293e+003,5.411133e+000
1.446257e+003,6.808929e+000
1.447222e+003,7.979645e+000
1.448186e+003,8.764313e+000
1.449150e+003,7.979370e+000
1.450114e+003,4.969788e+000
1.451079e+003,2.457428e+000
1.452043e+003,2.268738e+000
1.453007e+003,3.220490e+000
1.453971e+003,3.666748e+000
1.454936e+003,3.598511e+000
1.455900e+003,3.432770e+000
1.456864e+003,3.002350e+000
1.457828e+003,3.668030e+000
1.458792e+003,8.024963e+000
1.459757e+003,1.196909e+001
1.460721e+003,1.149533e+001
1.461685e+003,8.202118e+000
1.462649e+003,5.475830e+000
1.463614e+003,4.304016e+000
1.464578e+003,3.656219e+000
1.465542e+003,2.545074e+000
1.466506e+003,1.272278e+000
1.467471e+003,9.999390e-001
1.468435e+003,2.139984e+000
1.469399e+003,2.962494e+000
1.470363e+003,2.506256e+000
1.471328e+003,2.676727e+000
1.472292e+003,4.154114e+000
1.473256e+003,5.854889e+000
1.474220e+003,7.756470e+000
1.475184e+003,9.329498e+000
1.476149e+003,9.211060e+000
1.477113e+003,7.230804e+000
1.478077e+003,5.385223e+000
1.479041e+003,5.740906e+000
1.480006e+003,7.732758e+000
1.480970e+003,9.260864e+000
1.481934e+003,1.025443e+001
1.482898e+003,1.033176e+001
1.483863e+003,8.848083e+000
1.484827e+003,7.407043e+000
1.485791e+003,5.966736e+000
1.486755e+003,5.365967e+000
1.487719e+003,6.579010e+000
1.488684e+003,9.098572e+000
1.489648e+003,1.188107e+001
1.490612e+003,1.461249e+001
1.491576e+003,1.677649e+001
1.492541e+003,1.786606e+001
1.493505e+003,1.810822e+001
1.494469e+003,1.742166e+001
1.495433e+003,1.599350e+001
1.496398e+003,1.633252e+001
1.497362e+003,1.937189e+001
1.498326e+003,2.287033e+001
1.499290e+003,2.573557e+001
1.500255e+003,2.831042e+001
1.501219e+003,3.107333e+001
1.502183e+003,3.390714e+001
1.503147e+003,3.609927e+001
1.504111e+003,3.724557e+001
1.505076e+003,3.900482e+001
1.506040e+003,4.218152e+001
1.507004e+003,4.671393e+001
1.507968e+003,5.263217e+001
1.508933e+003,5.964011e+001
1.509897e+003,6.723633e+001
1.510861e+003,7.551331e+001
1.511825e+003,8.449609e+001
1.512790e+003,9.411758e+001
1.513754e+003,1.041573e+002
1.514718e+003,1.144387e+002
1.515682e+003,1.248200e+002
1.516646e+003,1.354256e+002
1.517611e+003,1.469356e+002
1.518575e+003,1.574492e+002
1.519539e+003,1.666954e+002
1.520503e+003,1.747506e+002
1.521468e+003,1.819535e+002
1.522432e+003,1.876785e+002
1.523396e+003,1.911172e+002
1.524360e+003,1.921543e+002
1.525325e+003,1.912541e+002
1.526289e+003,1.887615e+002
1.527253e+003,1.847494e+002
1.528217e+003,1.792184e+002
1.529182e+003,1.722826e+002
1.530146e+003,1.644750e+002
1.531110e+003,1.559996e+002
1.532074e+003,1.458846e+002
1.533039e+003,1.339682e+002
1.534003e+003,1.200699e+002
1.534967e+003,1.020067e+002
1.535931e+003,8.398148e+001
1.536896e+003,7.068112e+001
1.537860e+003,6.208344e+001
1.538824e+003,5.550436e+001
1.539788e+003,4.934589e+001
1.540752e+003,4.311832e+001
1.541717e+003,3.608157e+001
1.542681e+003,2.882651e+001
1.543645e+003,2.451242e+001
1.544609e+003,2.474377e+001
1.545573e+003,2.436581e+001
1.546538e+003,2.276724e+001
1.547502e+003,2.097894e+001
1.548466e+003,1.927188e+001
1.549430e+003,1.798926e+001
1.550395e+003,1.756467e+001
1.551359e+003,1.765256e+001
1.552323e+003,1.736380e+001
1.553287e+003,1.643710e+001
1.554252e+003,1.562302e+001
1.555216e+003,1.566812e+001
1.556180e+003,1.595844e+001
1.557144e+003,1.493573e+001
1.558109e+003,1.260080e+001
1.559073e+003,1.086508e+001
1.560037e+003,9.805542e+000
1.561001e+003,8.825104e+000
1.561966e+003,7.842316e+000
1.562930e+003,7.115356e+000
1.563894e+003,6.671844e+000
1.564858e+003,6.544800e+000
1.565823e+003,7.250366e+000
1.566787e+003,8.749634e+000
1.567751e+003,9.129028e+000
1.568715e+003,6.992889e+000
1.569679e+003,4.453918e+000
1.570644e+003,4.233948e+000
1.571608e+003,5.546112e+000
1.572572e+003,6.257324e+000
1.573536e+003,6.382751e+000
1.574500e+003,6.768066e+000
1.575465e+003,7.649139e+000
1.576429e+003,8.815277e+000
1.577393e+003,1.028238e+001
1.578357e+003,1.173859e+001
1.579322e+003,1.257672e+001
1.580286e+003,1.284929e+001
1.581250e+003,1.339180e+001
1.582214e+003,1.467523e+001
1.583179e+003,1.538925e+001
1.584143e+003,1.378503e+001
1.585107e+003,1.165428e+001
1.586071e+003,1.210291e+001
1.587036e+003,1.428592e+001
1.588000e+003,1.488440e+001
1.588964e+003,1.299724e+001
1.589928e+003,1.099944e+001
1.590893e+003,1.038113e+001
1.591857e+003,1.065805e+001
1.592821e+003,1.117154e+001
1.593785e+003,1.196764e+001
1.594750e+003,1.330392e+001
1.595714e+003,1.528748e+001
1.596678e+003,1.691406e+001
1.597642e+003,1.785265e+001
1.598606e+003,1.822963e+001
1.599571e+003,1.777859e+001
1.600535e+003,1.717624e+001
1.601499e+003,1.742950e+001
1.602463e+003,1.837538e+001
1.603427e+003,1.905103e+001
1.604392e+003,1.911108e+001
1.605356e+003,1.853867e+001
1.606320e+003,1.669054e+001
1.607284e+003,1.440987e+001
1.608249e+003,1.449979e+001
1.609213e+003,1.707077e+001
1.610177e+003,1.854785e+001
1.611141e+003,1.811034e+001
1.612106e+003,1.715045e+001
1.613070e+003,1.608972e+001
1.614034e+003,1.492575e+001
1.614998e+003,1.317119e+001
1.615963e+003,1.152626e+001
1.616927e+003,1.124759e+001
1.617891e+003,1.239301e+001
1.618855e+003,1.414732e+001
1.619820e+003,1.620781e+001
1.620784e+003,1.733173e+001
1.621748e+003,1.499225e+001
1.622712e+003,1.025745e+001
1.623677e+003,9.259232e+000
1.624641e+003,1.291682e+001
1.625605e+003,1.515323e+001
1.626569e+003,1.352045e+001
1.627533e+003,1.156010e+001
1.628498e+003,1.053276e+001
1.629462e+003,1.060617e+001
1.630426e+003,1.282806e+001
1.631390e+003,1.597260e+001
1.632354e+003,1.727925e+001
1.633319e+003,1.624359e+001
1.634283e+003,1.511044e+001
1.635247e+003,1.549976e+001
1.636211e+003,1.677779e+001
1.637176e+003,1.840215e+001
1.638140e+003,2.028076e+001
1.639104e+003,1.957980e+001
1.640068e+003,1.497571e+001
1.641033e+003,1.240324e+001
1.641997e+003,1.491238e+001
1.642961e+003,1.762216e+001
1.643925e+003,1.825586e+001
1.644890e+003,1.777827e+001
1.645854e+003,1.667336e+001
1.646818e+003,1.533502e+001
1.647782e+003,1.426233e+001
1.648747e+003,1.366611e+001
1.649711e+003,1.422432e+001
1.650675e+003,1.704205e+001
1.651639e+003,2.042282e+001
1.652604e+003,2.014685e+001
1.653568e+003,1.632127e+001
1.654532e+003,1.401842e+001
1.655496e+003,1.369312e+001
1.656460e+003,1.426144e+001
1.657425e+003,1.673065e+001
1.658389e+003,1.835854e+001
1.659353e+003,1.684674e+001
1.660317e+003,1.442102e+001
1.661281e+003,1.349738e+001
1.662246e+003,1.377879e+001
1.663210e+003,1.371281e+001
1.664174e+003,1.284583e+001
1.665138e+003,1.206995e+001
1.666103e+003,1.209840e+001
1.667067e+003,1.258876e+001
1.668031e+003,1.331967e+001
1.668995e+003,1.420471e+001
1.669960e+003,1.309991e+001
1.670924e+003,9.116898e+000
1.671888e+003,6.482468e+000
1.672852e+003,7.050079e+000
1.673817e+003,8.340790e+000
1.674781e+003,8.882614e+000
1.675745e+003,9.171005e+000
1.676709e+003,9.942383e+000
1.677674e+003,1.093109e+001
1.678638e+003,1.116022e+001
1.679602e+003,1.033336e+001
1.680566e+003,9.146652e+000
1.681531e+003,7.949768e+000
1.682495e+003,7.131012e+000
1.683459e+003,7.452438e+000
1.684423e+003,8.631149e+000
1.685387e+003,9.316162e+000
1.686352e+003,9.395660e+000
1.687316e+003,9.258057e+000
1.688280e+003,8.847702e+000
1.689244e+003,8.578278e+000
1.690208e+003,9.273071e+000
1.691173e+003,9.838928e+000
1.692137e+003,8.727646e+000
1.693101e+003,6.572098e+000
1.694065e+003,5.277557e+000
1.695030e+003,5.219421e+000
1.695994e+003,5.277924e+000
1.696958e+003,4.821915e+000
1.697922e+003,4.201294e+000
1.698887e+003,3.704254e+000
1.699851e+003,3.450470e+000
1.700815e+003,4.054092e+000
1.701779e+003,5.451187e+000
1.702744e+003,5.350555e+000
1.703708e+003,2.633575e+000
1.704672e+003,5.122070e-001
1.705636e+003,1.566635e+000
1.706601e+003,3.906357e+000
1.707565e+003,5.060944e+000
1.708529e+003,5.376404e+000
1.709493e+003,5.670273e+000
1.710458e+003,6.065292e+000
1.711422e+003,5.956757e+000
1.712386e+003,4.828613e+000
1.713350e+003,3.632385e+000
1.714314e+003,3.037216e+000
1.715279e+003,2.686172e+000
1.716243e+003,1.858047e+000
1.717207e+003,7.713165e-001
1.718171e+003,7.887268e-001
1.719135e+003,2.308762e+000
1.720100e+003,3.659882e+000
1.721064e+003,3.647552e+000
1.722028e+003,2.981171e+000
1.722992e+003,2.888046e+000
1.723957e+003,3.245667e+000
1.724921e+003,2.416077e+000
1.725885e+003,-1.679993e-001
1.726849e+003,-1.669662e+000
1.727814e+003,-1.024994e+000
1.728778e+003,3.700562e-001
1.729742e+003,2.644821e+000
1.730706e+003,4.666168e+000
1.731671e+003,5.195999e+000
1.732635e+003,4.430542e+000
1.733599e+003,3.023636e+000
1.734563e+003,1.373276e+000
1.735528e+003,-1.345520e-001
1.736492e+003,-1.359406e+000
1.737456e+003,-2.267502e+000
1.738420e+003,-2.821457e+000
1.739385e+003,-3.082932e+000
1.740349e+003,-2.857117e+000
1.741313e+003,-1.809250e+000
1.742277e+003,-1.529068e+000
1.743241e+003,-3.153397e+000
1.744206e+003,-3.532883e+000
1.745170e+003,-1.220184e+000
1.746134e+003,1.081985e+000
1.747098e+003,2.146545e+000
1.748063e+003,2.187363e+000
1.749027e+003,1.038818e+000
1.749991e+003,-6.476440e-001
1.750955e+003,-1.568726e+000
1.751919e+003,-1.334381e+000
1.752884e+003,-5.746307e-001
1.753848e+003,2.000732e-001
1.754812e+003,8.607025e-001
1.755776e+003,1.231125e+000
1.756741e+003,1.419189e+000
1.757705e+003,1.422028e+000
1.758669e+003,1.081284e+000
1.759633e+003,7.138672e-001
1.760598e+003,-8.935547e-002
1.761562e+003,-4.485016e-001
1.762526e+003,6.373749e-001
1.763490e+003,1.715698e+000
1.764455e+003,1.644333e+000
1.765419e+003,9.727936e-001
1.766383e+003,5.184631e-001
1.767347e+003,3.569336e-001
1.768312e+003,2.454529e-001
1.769276e+003,3.784180e-002
1.770240e+003,-2.716217e-001
1.771204e+003,-4.147644e-001
1.772168e+003,-5.664673e-001
1.773133e+003,-1.686218e+000
1.774097e+003,-3.609009e+000
1.775061e+003,-4.550400e+000
1.776025e+003,-4.385483e+000
1.776990e+003,-3.770950e+000
1.777954e+003,-2.631332e+000
1.778918e+003,-1.300842e+000
1.779882e+003,4.353943e-001
1.780846e+003,1.622635e+000
1.781811e+003,5.245972e-001
1.782775e+003,-1.991135e+000
1.783739e+003,-2.984161e+000
1.784703e+003,-1.871140e+000
1.785668e+003,-8.390656e-001
1.786632e+003,-1.014648e+000
1.787596e+003,-1.529648e+000
1.788560e+003,-1.468155e+000
1.789525e+003,-1.245987e+000
1.790489e+003,-2.048721e+000
1.791453e+003,-3.372452e+000
1.792417e+003,-3.104065e+000
1.793382e+003,-9.782104e-001
1.794346e+003,8.857574e-001
1.795310e+003,1.370438e+000
1.796274e+003,9.151306e-001
1.797239e+003,-8.728027e-003
1.798203e+003,-1.098587e+000
1.799167e+003,-1.864426e+000
1.800131e+003,-2.547058e+000
1.801095e+003,-3.003067e+000
1.802060e+003,-2.902710e+000
1.803024e+003,-2.659088e+000
1.803988e+003,-2.153870e+000
1.804952e+003,-1.877365e+000
1.805917e+003,-2.364761e+000
1.806881e+003,-2.942825e+000
1.807845e+003,-2.732132e+000
1.808809e+003,-2.053787e+000
1.809773e+003,-1.815674e+000
1.810738e+003,-2.145798e+000
1.811702e+003,-2.525681e+000
1.812666e+003,-2.615463e+000
1.813630e+003,-1.796524e+000
1.814595e+003,1.220566e+000
1.815559e+003,5.217239e+000
1.816523e+003,4.540573e+000
1.817487e+003,-1.443985e+000
1.818452e+003,-4.348373e+000
1.819416e+003,-2.593842e+000
1.820380e+003,-8.712158e-001
1.821344e+003,-6.252441e-001
1.822309e+003,-6.883240e-001
1.823273e+003,-2.305603e-001
1.824237e+003,3.323059e-001
1.825201e+003,3.992767e-001
1.826166e+003,1.320801e-001
1.827130e+003,8.085632e-002
1.828094e+003,2.985992e-001
1.829058e+003,6.143494e-001
1.830022e+003,1.320938e+000
1.830987e+003,1.513519e+000
1.831951e+003,-1.086884e-001
1.832915e+003,-2.293793e+000
1.833879e+003,-3.558594e+000
1.834844e+003,-3.756485e+000
1.835808e+003,-2.127106e+000
1.836772e+003,1.086273e+000
1.837736e+003,2.859222e+000
1.838700e+003,1.779221e+000
1.839665e+003,-1.597595e-001
1.840629e+003,-1.167358e+000
1.841593e+003,-1.553955e+000
1.842557e+003,-2.063583e+000
1.843522e+003,-2.699387e+000
1.844486e+003,-3.181137e+000
1.845450e+003,-4.035141e+000
1.846414e+003,-3.344391e+000
1.847379e+003,5.377960e-001
1.848343e+003,3.282059e+000
1.849307e+003,3.014023e+000
1.850271e+003,1.967499e+000
1.851236e+003,1.776260e+000
1.852200e+003,1.968323e+000
1.853164e+003,1.321899e+000
1.854128e+003,-9.216309e-003
1.855093e+003,-6.324310e-001
1.856057e+003,-5.081177e-003
1.857021e+003,8.145447e-001
1.857985e+003,9.171448e-001
1.858949e+003,4.452209e-001
1.859914e+003,-7.328491e-001
1.860878e+003,-2.255798e+000
1.861842e+003,-2.013214e+000
1.862806e+003,1.098633e-002
1.863771e+003,1.614914e+000
1.864735e+003,2.338303e+000
1.865699e+003,2.904480e+000
1.866663e+003,3.818207e+000
1.867627e+003,4.521515e+000
1.868592e+003,4.250793e+000
1.869556e+003,3.386093e+000
1.870520e+003,3.084656e+000
1.871484e+003,3.138260e+000
1.872449e+003,1.949036e+000
1.873413e+003,-9.875031e-001
1.874377e+003,-2.485367e+000
1.875341e+003,-1.327957e+000
1.876306e+003,4.915466e-001
1.877270e+003,2.477386e+000
1.878234e+003,4.040909e+000
1.879198e+003,4.621735e+000
1.880163e+003,4.427994e+000
1.881127e+003,3.814178e+000
1.882091e+003,2.919952e+000
1.883055e+003,1.665833e+000
1.884020e+003,8.676147e-002
1.884984e+003,-1.237198e+000
1.885948e+003,-1.786957e+000
1.886912e+003,-1.581619e+000
1.887876e+003,-5.312805e-001
1.888841e+003,1.287506e+000
1.889805e+003,2.727402e+000
1.890769e+003,3.755646e+000
1.891733e+003,4.654434e+000
1.892698e+003,5.696762e+000
1.893662e+003,5.717377e+000
1.894626e+003,3.404694e+000
1.895590e+003,1.248596e+000
1.896554e+003,1.410156e+000
1.897519e+003,2.465424e+000
1.898483e+003,2.963760e+000
1.899447e+003,2.672638e+000
1.900411e+003,9.979858e-001
1.901376e+003,-2.274490e+000
1.902340e+003,-3.969421e+000
1.903304e+003,-1.901398e+000
1.904268e+003,4.035645e-001
1.905233e+003,9.157715e-001
1.906197e+003,6.127930e-001
1.907161e+003,5.609131e-002
1.908125e+003,-2.935944e-001
1.909090e+003,4.553070e-001
1.910054e+003,1.941574e+000
1.911018e+003,2.585007e+000
1.911982e+003,2.062546e+000
1.912947e+003,2.096710e+000
1.913911e+003,3.924881e+000
1.914875e+003,5.980392e+000
1.915839e+003,5.645645e+000
1.916803e+003,3.487366e+000
1.917768e+003,3.150604e+000
1.918732e+003,5.290939e+000
1.919696e+003,5.231277e+000
1.920660e+003,1.663864e+000
1.921625e+003,-3.085327e-001
1.922589e+003,9.896545e-001
1.923553e+003,2.945892e+000
1.924517e+003,5.052963e+000
1.925481e+003,6.489365e+000
1.926446e+003,5.901917e+000
1.927410e+003,4.374420e+000
1.928374e+003,4.304031e+000
1.929338e+003,5.608444e+000
1.930303e+003,5.641220e+000
1.931267e+003,3.311066e+000
1.932231e+003,1.661026e+000
1.933195e+003,2.169449e+000
1.934160e+003,3.421539e+000
1.935124e+003,4.815903e+000
1.936088e+003,5.959320e+000
1.937052e+003,6.647171e+000
1.938017e+003,6.841675e+000
1.938981e+003,6.113647e+000
1.939945e+003,4.689468e+000
1.940909e+003,3.793686e+000
1.941874e+003,3.897385e+000
1.942838e+003,3.967667e+000
1.943802e+003,3.093994e+000
1.944766e+003,2.132751e+000
1.945730e+003,2.759552e+000
1.946695e+003,4.608307e+000
1.947659e+003,5.139740e+000
1.948623e+003,4.157700e+000
1.949587e+003,3.889252e+000
1.950552e+003,4.924850e+000
1.951516e+003,5.479309e+000
1.952480e+003,4.964249e+000
1.953444e+003,3.738800e+000
1.954408e+003,1.033646e+000
1.955373e+003,-1.379791e+000
1.956337e+003,4.754639e-002
1.957301e+003,4.053497e+000
1.958265e+003,5.483765e+000
1.959230e+003,3.849167e+000
1.960194e+003,3.029877e+000
1.961158e+003,3.940659e+000
1.962122e+003,4.724976e+000
1.963087e+003,4.860886e+000
1.964051e+003,4.873093e+000
1.965015e+003,5.571198e+000
1.965979e+003,6.062088e+000
1.966944e+003,4.405884e+000
1.967908e+003,2.104584e+000
1.968872e+003,2.625488e+000
1.969836e+003,5.703033e+000
1.970801e+003,7.574768e+000
1.971765e+003,6.724213e+000
1.972729e+003,5.523087e+000
1.973693e+003,5.962387e+000
1.974657e+003,7.143585e+000
1.975622e+003,7.842041e+000
1.976586e+003,8.100571e+000
1.977550e+003,8.062744e+000
1.978514e+003,7.849060e+000
1.979479e+003,8.075195e+000
1.980443e+003,8.724640e+000
1.981407e+003,8.112381e+000
1.982371e+003,5.549530e+000
1.983335e+003,3.859085e+000
1.984300e+003,5.312103e+000
1.985264e+003,7.613907e+000
1.986228e+003,7.232086e+000
1.987192e+003,4.759964e+000
1.988157e+003,3.267075e+000
1.989121e+003,2.850220e+000
1.990085e+003,3.228119e+000
1.991049e+003,5.036026e+000
1.992014e+003,6.490250e+000
1.992978e+003,7.194199e+000
1.993942e+003,7.633026e+000
1.994906e+003,8.144394e+000
1.995871e+003,8.292130e+000
1.996835e+003,7.189636e+000
1.997799e+003,5.930008e+000
1.998763e+003,6.408936e+000
1.999728e+003,8.159332e+000
