5.003444e+002,5.270422e+001
5.013087e+002,5.304042e+001
5.022729e+002,5.147533e+001
5.032371e+002,4.866991e+001
5.042014e+002,4.651154e+001
5.051656e+002,4.497838e+001
5.061298e+002,4.406294e+001
5.070941e+002,4.378841e+001
5.080583e+002,4.424127e+001
5.090225e+002,4.457234e+001
5.099868e+002,4.500386e+001
5.109510e+002,4.514398e+001
5.119152e+002,4.446242e+001
5.128795e+002,4.285950e+001
5.138437e+002,4.214508e+001
5.148079e+002,4.412520e+001
5.157722e+002,4.607756e+001
5.167364e+002,4.691731e+001
5.177006e+002,4.644540e+001
5.186649e+002,4.518382e+001
5.196291e+002,4.330167e+001
5.205933e+002,4.147804e+001
5.215576e+002,4.048808e+001
5.225218e+002,4.025206e+001
5.234860e+002,4.020538e+001
5.244503e+002,3.941196e+001
5.254145e+002,3.768555e+001
5.263787e+002,3.652051e+001
5.273430e+002,3.602457e+001
5.283072e+002,3.600346e+001
5.292714e+002,3.629898e+001
5.302357e+002,3.726112e+001
5.311999e+002,3.735541e+001
5.321641e+002,3.579214e+001
5.331284e+002,3.413106e+001
5.340926e+002,3.372382e+001
5.350568e+002,3.509853e+001
5.360211e+002,3.646082e+001
5.369853e+002,3.660425e+001
5.379495e+002,3.592889e+001
5.389138e+002,3.416357e+001
5.398780e+002,3.142378e+001
5.408422e+002,2.851459e+001
5.418065e+002,2.807108e+001
5.427707e+002,2.970517e+001
5.437349e+002,3.075539e+001
5.446992e+002,3.033835e+001
5.456634e+002,2.897501e+001
5.466276e+002,2.856425e+001
5.475919e+002,3.081870e+001
5.485561e+002,3.196497e+001
5.495203e+002,3.117122e+001
5.504846e+002,2.935353e+001
5.514488e+002,2.779404e+001
5.524130e+002,2.689252e+001
5.533773e+002,2.657860e+001
5.543415e+002,2.752342e+001
5.553057e+002,2.853830e+001
5.562700e+002,2.804559e+001
5.572342e+002,2.509280e+001
5.581984e+002,2.122713e+001
5.591627e+002,2.056277e+001
5.601269e+002,2.198918e+001
5.610911e+002,2.329056e+001
5.620554e+002,2.329727e+001
5.630196e+002,2.215076e+001
5.639838e+002,2.144186e+001
5.649481e+002,2.134941e+001
5.659123e+002,2.143097e+001
5.668765e+002,2.197319e+001
5.678408e+002,2.278371e+001
5.688050e+002,2.311813e+001
5.697692e+002,2.209190e+001
5.707335e+002,2.126222e+001
5.716977e+002,2.132942e+001
5.726619e+002,2.185846e+001
5.736262e+002,2.234505e+001
5.745904e+002,2.253436e+001
5.755546e+002,2.224493e+001
5.765189e+002,2.071165e+001
5.774831e+002,1.855923e+001
5.784473e+002,1.713821e+001
5.794116e+002,1.740163e+001
5.803758e+002,1.917615e+001
5.813400e+002,1.940819e+001
5.823043e+002,1.741650e+001
5.832685e+002,1.581679e+001
5.842327e+002,1.580908e+001
5.851970e+002,1.718958e+001
5.861612e+002,1.825983e+001
5.871254e+002,1.862590e+001
5.880897e+002,1.868726e+001
5.890539e+002,1.851656e+001
5.900181e+002,1.804025e+001
5.909824e+002,1.704747e+001
5.919466e+002,1.519672e+001
5.929108e+002,1.335709e+001
5.938751e+002,1.220216e+001
5.948393e+002,1.166968e+001
5.958035e+002,1.186548e+001
5.967678e+002,1.285355e+001
5.977320e+002,1.445094e+001
5.986962e+002,1.479114e+001
5.996605e+002,1.379955e+001
6.006247e+002,1.282158e+001
6.015889e+002,1.273442e+001
6.025532e+002,1.343097e+001
6.035174e+002,1.316756e+001
6.044816e+002,1.008011e+001
6.054459e+002,8.080750e+000
6.064101e+002,8.123398e+000
6.073743e+002,9.571335e+000
6.083386e+002,1.138573e+001
6.093028e+002,1.353210e+001
6.102670e+002,1.489388e+001
6.112313e+002,1.428458e+001
6.121955e+002,1.269749e+001
6.131597e+002,1.140479e+001
6.141240e+002,1.127361e+001
6.150882e+002,1.198441e+001
6.160524e+002,1.224339e+001
6.170167e+002,1.217183e+001
6.179809e+002,1.217029e+001
6.189451e+002,1.244342e+001
6.199094e+002,1.287892e+001
6.208736e+002,1.291388e+001
6.218378e+002,1.161232e+001
6.228021e+002,1.121280e+001
6.237663e+002,1.291934e+001
6.247305e+002,1.542021e+001
6.256948e+002,1.637383e+001
6.266590e+002,1.407349e+001
6.276232e+002,1.176741e+001
6.285875e+002,1.162955e+001
6.295517e+002,1.256165e+001
6.305159e+002,1.356819e+001
6.314802e+002,1.403493e+001
6.324444e+002,1.398087e+001
6.334086e+002,1.328650e+001
6.343729e+002,1.222314e+001
6.353371e+002,1.127264e+001
6.363013e+002,1.056819e+001
6.372656e+002,1.007568e+001
6.382298e+002,9.747559e+000
6.391940e+002,9.813065e+000
6.401583e+002,9.682892e+000
6.411225e+002,9.392471e+000
6.420867e+002,9.052643e+000
6.430510e+002,8.756744e+000
6.440152e+002,8.513855e+000
6.449794e+002,8.050369e+000
6.459437e+002,6.951004e+000
6.469079e+002,5.814987e+000
6.478721e+002,5.147278e+000
6.488364e+002,5.127365e+000
6.498006e+002,5.505783e+000
6.507648e+002,5.924606e+000
6.517291e+002,6.324615e+000
6.526933e+002,6.523926e+000
6.536575e+002,6.460297e+000
6.546218e+002,6.447937e+000
6.555860e+002,7.182602e+000
6.565502e+002,9.644516e+000
6.575145e+002,1.053281e+001
6.584787e+002,8.678345e+000
6.594429e+002,6.417709e+000
6.604072e+002,5.731583e+000
6.613714e+002,7.049408e+000
6.623356e+002,8.223129e+000
6.632999e+002,8.105927e+000
6.642641e+002,7.596008e+000
6.652283e+002,6.905518e+000
6.661926e+002,6.295975e+000
6.671568e+002,6.179550e+000
6.681210e+002,7.287941e+000
6.690853e+002,8.924667e+000
6.700495e+002,9.308334e+000
6.710137e+002,8.467880e+000
6.719780e+002,7.271141e+000
6.729422e+002,6.602448e+000
6.739064e+002,6.515854e+000
6.748707e+002,6.557915e+000
6.758349e+002,6.391907e+000
6.767991e+002,6.633865e+000
6.777634e+002,8.180725e+000
6.787276e+002,1.076283e+001
6.796918e+002,1.217563e+001
6.806561e+002,1.039229e+001
6.816203e+002,8.369095e+000
6.825845e+002,7.001610e+000
6.835488e+002,6.252304e+000
6.845130e+002,6.007004e+000
6.854772e+002,6.269592e+000
6.864415e+002,6.651451e+000
6.874057e+002,5.794373e+000
6.883699e+002,4.142227e+000
6.893342e+002,3.196968e+000
6.902984e+002,3.896347e+000
6.912626e+002,5.921021e+000
6.922269e+002,6.890182e+000
6.931911e+002,6.036232e+000
6.941553e+002,5.360550e+000
6.951196e+002,4.714859e+000
6.960838e+002,4.285370e+000
6.970480e+002,4.614311e+000
6.980123e+002,6.386765e+000
6.989765e+002,7.516815e+000
6.999407e+002,6.763542e+000
7.009050e+002,5.439804e+000
7.018692e+002,4.484299e+000
7.028334e+002,4.247650e+000
7.037977e+002,4.449898e+000
7.047619e+002,5.008804e+000
7.057261e+002,5.648849e+000
7.066904e+002,5.429367e+000
7.076546e+002,4.198463e+000
7.086188e+002,2.878876e+000
7.095831e+002,2.996048e+000
7.105473e+002,5.208786e+000
7.115115e+002,6.704117e+000
7.124758e+002,7.350586e+000
7.134400e+002,7.545517e+000
7.144042e+002,7.326973e+000
7.153685e+002,6.771011e+000
7.163327e+002,6.579086e+000
7.172969e+002,7.762100e+000
7.182612e+002,8.752388e+000
7.192254e+002,8.807785e+000
7.201896e+002,8.108398e+000
7.211539e+002,7.120010e+000
7.221181e+002,6.189400e+000
7.230823e+002,5.409714e+000
7.240466e+002,5.091095e+000
7.250108e+002,5.169014e+000
7.259750e+002,5.101456e+000
7.269393e+002,4.436371e+000
7.279035e+002,3.236130e+000
7.288677e+002,2.658676e+000
7.298320e+002,3.296173e+000
7.307962e+002,4.190857e+000
7.317604e+002,5.626160e+000
7.327247e+002,7.177101e+000
7.336889e+002,8.234177e+000
7.346531e+002,8.532455e+000
7.356174e+002,8.160576e+000
7.365816e+002,7.527435e+000
7.375458e+002,6.438629e+000
7.385101e+002,4.001282e+000
7.394743e+002,4.529114e-001
7.404385e+002,-2.398849e+000
7.414028e+002,-1.260002e+000
7.423670e+002,2.726883e+000
7.433312e+002,4.290855e+000
7.442955e+002,3.002838e+000
7.452597e+002,1.259033e+000
7.462239e+002,2.030289e+000
7.471882e+002,6.382240e+000
7.481524e+002,8.362976e+000
7.491166e+002,5.836761e+000
7.500809e+002,3.608955e+000
7.510451e+002,3.737144e+000
7.520093e+002,5.744217e+000
7.529736e+002,7.523102e+000
7.539378e+002,8.197456e+000
7.549020e+002,8.414078e+000
7.558663e+002,8.525192e+000
7.568306e+002,8.542084e+000
7.577948e+002,8.349754e+000
7.587590e+002,7.881653e+000
7.597233e+002,7.300461e+000
7.606875e+002,7.479576e+000
7.616517e+002,8.346069e+000
7.626160e+002,8.549118e+000
7.635802e+002,7.580948e+000
7.645444e+002,5.971352e+000
7.655087e+002,4.768440e+000
7.664729e+002,3.987434e+000
7.674371e+002,3.626305e+000
7.684014e+002,3.701622e+000
7.693656e+002,4.049088e+000
7.703298e+002,4.601921e+000
7.712941e+002,5.349030e+000
7.722583e+002,6.310570e+000
7.732225e+002,7.889282e+000
7.741868e+002,9.286713e+000
7.751510e+002,9.746605e+000
7.761152e+002,9.483719e+000
7.770795e+002,9.098526e+000
7.780437e+002,9.110367e+000
7.790079e+002,9.419258e+000
7.799722e+002,9.309021e+000
7.809364e+002,8.816833e+000
7.819006e+002,8.109634e+000
7.828649e+002,7.024147e+000
7.838291e+002,5.833801e+000
7.847933e+002,5.383408e+000
7.857576e+002,6.124413e+000
7.867218e+002,6.706131e+000
7.876860e+002,6.848816e+000
7.886503e+002,6.925827e+000
7.896145e+002,7.354424e+000
7.905787e+002,8.201004e+000
7.915430e+002,8.922272e+000
7.925072e+002,8.637283e+000
7.934714e+002,7.939110e+000
7.944357e+002,7.513321e+000
7.953999e+002,7.472916e+000
7.963641e+002,7.706940e+000
7.973284e+002,8.081497e+000
7.982926e+002,8.621338e+000
7.992568e+002,8.747009e+000
8.002211e+002,7.878410e+000
8.011853e+002,7.318771e+000
8.021495e+002,8.180771e+000
8.031138e+002,1.000888e+001
8.040780e+002,1.077969e+001
8.050422e+002,9.490402e+000
8.060065e+002,7.822113e+000
8.069707e+002,5.332642e+000
8.079349e+002,3.270454e+000
8.088992e+002,3.213341e+000
8.098634e+002,5.569664e+000
8.108276e+002,8.760841e+000
8.117919e+002,1.083057e+001
8.127561e+002,1.171977e+001
8.137203e+002,1.123009e+001
8.146846e+002,9.464363e+000
8.156488e+002,7.595871e+000
8.166130e+002,7.068581e+000
8.175773e+002,8.179871e+000
8.185415e+002,8.701057e+000
8.195057e+002,8.059433e+000
8.204700e+002,7.511581e+000
8.214342e+002,7.779793e+000
8.223984e+002,8.462204e+000
8.233627e+002,8.330063e+000
8.243269e+002,6.384804e+000
8.252911e+002,4.836975e+000
8.262554e+002,4.943474e+000
8.272196e+002,5.956963e+000
8.281838e+002,7.191612e+000
8.291481e+002,8.344536e+000
8.301123e+002,9.620239e+000
8.310765e+002,1.162753e+001
8.320408e+002,1.405675e+001
8.330050e+002,1.433483e+001
8.339692e+002,1.183408e+001
8.349335e+002,8.757599e+000
8.358977e+002,7.537422e+000
8.368619e+002,8.563263e+000
8.378262e+002,8.821411e+000
8.387904e+002,6.596313e+000
8.397546e+002,5.363640e+000
8.407189e+002,7.099091e+000
8.416831e+002,1.015872e+001
8.426473e+002,1.143445e+001
8.436116e+002,9.216759e+000
8.445758e+002,6.423698e+000
8.455400e+002,5.962578e+000
8.465043e+002,6.659775e+000
8.474685e+002,7.626228e+000
8.484327e+002,8.534927e+000
8.493970e+002,9.258484e+000
8.503612e+002,9.471565e+000
8.513254e+002,9.025787e+000
8.522897e+002,8.817009e+000
8.532539e+002,8.813332e+000
8.542181e+002,8.948204e+000
8.551824e+002,9.197510e+000
8.561466e+002,9.658493e+000
8.571108e+002,1.059605e+001
8.580751e+002,1.254140e+001
8.590393e+002,1.394444e+001
8.600035e+002,1.421288e+001
8.609678e+002,1.389584e+001
8.619320e+002,1.351158e+001
8.628962e+002,1.329236e+001
8.638605e+002,1.320982e+001
8.648247e+002,1.314545e+001
8.657889e+002,1.324268e+001
8.667532e+002,1.415167e+001
8.677174e+002,1.594615e+001
8.686816e+002,1.741221e+001
8.696459e+002,1.692047e+001
8.706101e+002,1.399832e+001
8.715743e+002,1.307594e+001
8.725386e+002,1.605115e+001
8.735028e+002,1.842612e+001
8.744670e+002,1.856642e+001
8.754313e+002,1.736471e+001
8.763955e+002,1.655119e+001
8.773597e+002,1.662904e+001
8.783240e+002,1.750977e+001
8.792882e+002,2.000660e+001
8.802524e+002,2.254187e+001
8.812167e+002,2.337166e+001
8.821809e+002,2.243417e+001
8.831451e+002,2.122252e+001
8.841094e+002,2.171651e+001
8.850736e+002,2.390279e+001
8.860378e+002,2.545742e+001
8.870021e+002,2.637419e+001
8.879663e+002,2.672621e+001
8.889305e+002,2.619284e+001
8.898948e+002,2.498035e+001
8.908590e+002,2.428819e+001
8.918232e+002,2.439607e+001
8.927875e+002,2.490948e+001
8.937517e+002,2.608382e+001
8.947159e+002,2.733070e+001
8.956802e+002,2.808020e+001
8.966444e+002,2.820254e+001
8.976086e+002,2.811259e+001
8.985729e+002,2.838327e+001
8.995371e+002,2.868945e+001
9.005013e+002,2.813869e+001
9.014656e+002,2.698373e+001
9.024298e+002,2.634222e+001
9.033940e+002,2.706731e+001
9.043583e+002,2.890002e+001
9.053225e+002,3.024687e+001
9.062867e+002,3.079291e+001
9.072510e+002,3.106069e+001
9.082152e+002,3.127373e+001
9.091794e+002,3.124153e+001
9.101437e+002,3.041135e+001
9.111079e+002,2.866941e+001
9.120721e+002,2.765680e+001
9.130364e+002,2.973416e+001
9.140006e+002,3.146271e+001
9.149648e+002,3.020737e+001
9.159291e+002,2.713391e+001
9.168933e+002,2.478743e+001
9.178575e+002,2.491519e+001
9.188218e+002,2.686237e+001
9.197860e+002,2.890771e+001
9.207502e+002,3.110547e+001
9.217145e+002,3.167495e+001
9.226787e+002,2.940269e+001
9.236429e+002,2.635449e+001
9.246072e+002,2.545573e+001
9.255714e+002,2.717384e+001
9.265356e+002,2.822894e+001
9.274999e+002,2.745094e+001
9.284641e+002,2.655630e+001
9.294283e+002,2.609356e+001
9.303926e+002,2.600331e+001
9.313568e+002,2.605522e+001
9.323210e+002,2.613648e+001
9.332853e+002,2.617522e+001
9.342495e+002,2.608955e+001
9.352137e+002,2.585730e+001
9.361780e+002,2.548722e+001
9.371422e+002,2.503456e+001
9.381064e+002,2.443797e+001
9.390707e+002,2.346120e+001
9.400349e+002,2.184014e+001
9.409991e+002,2.111298e+001
9.419634e+002,2.181364e+001
9.429276e+002,2.254727e+001
9.438918e+002,2.337017e+001
9.448561e+002,2.389682e+001
9.458203e+002,2.331166e+001
9.467845e+002,2.116592e+001
9.477488e+002,1.915381e+001
9.487130e+002,1.887950e+001
9.496772e+002,1.900215e+001
9.506415e+002,1.823689e+001
9.516057e+002,1.672205e+001
9.525699e+002,1.566360e+001
9.535342e+002,1.624852e+001
9.544984e+002,1.819555e+001
9.554626e+002,1.932240e+001
9.564269e+002,1.971652e+001
9.573911e+002,1.979174e+001
9.583553e+002,1.961543e+001
9.593196e+002,1.914534e+001
9.602838e+002,1.817033e+001
9.612480e+002,1.642825e+001
9.622123e+002,1.516267e+001
9.631765e+002,1.507053e+001
9.641407e+002,1.522124e+001
9.651050e+002,1.530428e+001
9.660692e+002,1.522250e+001
9.670334e+002,1.497963e+001
9.679977e+002,1.461628e+001
9.689619e+002,1.419474e+001
9.699261e+002,1.328336e+001
9.708904e+002,1.221520e+001
9.718546e+002,1.253851e+001
9.728188e+002,1.476708e+001
9.737831e+002,1.763397e+001
9.747473e+002,1.960529e+001
9.757115e+002,2.064091e+001
9.766758e+002,2.107289e+001
9.776400e+002,2.045267e+001
9.786042e+002,1.989644e+001
9.795685e+002,1.993139e+001
9.805327e+002,1.996501e+001
9.814969e+002,1.914580e+001
9.824612e+002,1.723397e+001
9.834254e+002,1.506843e+001
9.843896e+002,1.296755e+001
9.853539e+002,1.125504e+001
9.863181e+002,1.044263e+001
9.872823e+002,1.042960e+001
9.882466e+002,1.085566e+001
9.892108e+002,1.151518e+001
9.901750e+002,1.238518e+001
9.911393e+002,1.257104e+001
9.921035e+002,1.129616e+001
9.930677e+002,1.017352e+001
9.940320e+002,9.314026e+000
9.949962e+002,8.721413e+000
9.959604e+002,8.712364e+000
9.969247e+002,9.239853e+000
9.978889e+002,8.970520e+000
9.988531e+002,6.232811e+000
9.998174e+002,3.648933e+000
1.000782e+003,3.011436e+000
1.001746e+003,3.585045e+000
1.002710e+003,4.185707e+000
1.003674e+003,4.281502e+000
1.004639e+003,4.325516e+000
1.005603e+003,5.213486e+000
1.006567e+003,7.020241e+000
1.007531e+003,7.552696e+000
1.008495e+003,6.274231e+000
1.009460e+003,4.898369e+000
1.010424e+003,4.618835e+000
1.011388e+003,5.126244e+000
1.012352e+003,5.010277e+000
1.013317e+003,3.502281e+000
1.014281e+003,2.554512e+000
1.015245e+003,3.353958e+000
1.016209e+003,4.252609e+000
1.017174e+003,3.757011e+000
1.018138e+003,2.089989e+000
1.019102e+003,8.547897e-001
1.020066e+003,1.463623e+000
1.021031e+003,3.137131e+000
1.021995e+003,3.436676e+000
1.022959e+003,2.590431e+000
1.023923e+003,1.739365e+000
1.024887e+003,1.227356e+000
1.025852e+003,8.960724e-001
1.026816e+003,6.019821e-001
1.027780e+003,4.926605e-001
1.028744e+003,-5.739594e-002
1.029709e+003,-2.238106e+000
1.030673e+003,-3.553688e+000
1.031637e+003,-2.760101e+000
1.032601e+003,-8.893509e-001
1.033566e+003,7.961807e-001
1.034530e+003,1.842674e+000
1.035494e+003,2.227852e+000
1.036458e+003,1.503372e+000
1.037422e+003,2.836533e-001
1.038387e+003,-3.757706e-001
1.039351e+003,-4.752274e-001
1.040315e+003,-3.916550e-001
1.041279e+003,-3.740234e-001
1.042244e+003,-3.666687e-001
1.043208e+003,-1.677017e-001
1.044172e+003,7.956467e-001
1.045136e+003,7.396469e-001
1.046101e+003,-1.448151e+000
1.047065e+003,-3.470505e+000
1.048029e+003,-3.803841e+000
1.048993e+003,-2.659813e+000
1.049958e+003,-1.143944e+000
1.050922e+003,4.736633e-001
1.051886e+003,1.812149e+000
1.052850e+003,2.544205e+000
1.053814e+003,2.774178e+000
1.054779e+003,2.402748e+000
1.055743e+003,1.502396e+000
1.056707e+003,5.704803e-001
1.057671e+003,2.188187e-001
1.058636e+003,4.393539e-001
1.059600e+003,4.928894e-001
1.060564e+003,3.696365e-001
1.061528e+003,2.582703e-001
1.062493e+003,-2.468796e-001
1.063457e+003,-5.658569e-001
1.064421e+003,4.533234e-001
1.065385e+003,2.889450e+000
1.066349e+003,4.213097e+000
1.067314e+003,1.987907e+000
1.068278e+003,-3.593063e-001
1.069242e+003,-3.850861e-001
1.070206e+003,1.130112e+000
1.071171e+003,3.157730e+000
1.072135e+003,5.058075e+000
1.073099e+003,6.332520e+000
1.074063e+003,6.152184e+000
1.075028e+003,4.397675e+000
1.075992e+003,2.573280e+000
1.076956e+003,1.624298e-002
1.077920e+003,-1.673645e+000
1.078885e+003,-1.251396e+000
1.079849e+003,2.606583e-001
1.080813e+003,8.036194e-001
1.081777e+003,-1.175156e-001
1.082741e+003,-7.049789e-001
1.083706e+003,6.453781e-001
1.084670e+003,1.842484e+000
1.085634e+003,1.286453e+000
1.086598e+003,-2.562714e-001
1.087563e+003,-1.013870e+000
1.088527e+003,-3.385162e-002
1.089491e+003,1.723228e+000
1.090455e+003,2.243561e+000
1.091420e+003,1.306602e+000
1.092384e+003,9.339371e-001
1.093348e+003,1.439400e+000
1.094312e+003,1.834068e+000
1.095276e+003,1.400215e+000
1.096241e+003,4.915543e-001
1.097205e+003,1.683121e-001
1.098169e+003,7.856140e-001
1.099133e+003,1.160973e+000
1.100098e+003,7.584457e-001
1.101062e+003,1.407013e-001
1.102026e+003,-6.033936e-001
1.102990e+003,-1.234161e+000
1.103955e+003,-1.247894e+000
1.104919e+003,-3.751831e-001
1.105883e+003,7.229538e-001
1.106847e+003,5.697174e-001
1.107812e+003,-8.742981e-001
1.108776e+003,-1.912094e+000
1.109740e+003,-2.455475e+000
1.110704e+003,-2.631248e+000
1.111668e+003,-2.168152e+000
1.112633e+003,-1.286774e+000
1.113597e+003,-1.255005e+000
1.114561e+003,-2.789337e+000
1.115525e+003,-3.869820e+000
1.116490e+003,-3.565559e+000
1.117454e+003,-2.979622e+000
1.118418e+003,-2.672028e+000
1.119382e+003,-2.658272e+000
1.120347e+003,-2.874359e+000
1.121311e+003,-3.320107e+000
1.122275e+003,-3.671288e+000
1.123239e+003,-2.827644e+000
1.124203e+003,-9.145737e-001
1.125168e+003,-4.733734e-001
1.126132e+003,-2.303139e+000
1.127096e+003,-3.962494e+000
1.128060e+003,-3.111900e+000
1.129025e+003,-4.629822e-001
1.129989e+003,5.494537e-001
1.130953e+003,-1.077927e+000
1.131917e+003,-2.654922e+000
1.132882e+003,-3.596130e+000
1.133846e+003,-4.093727e+000
1.134810e+003,-4.032135e+000
1.135774e+003,-3.647820e+000
1.136739e+003,-3.377602e+000
1.137703e+003,-3.472206e+000
1.138667e+003,-3.758240e+000
1.139631e+003,-3.945305e+000
1.140595e+003,-4.041977e+000
1.141560e+003,-4.152565e+000
1.142524e+003,-4.322273e+000
1.143488e+003,-4.199600e+000
1.144452e+003,-3.689194e+000
1.145417e+003,-2.722374e+000
1.146381e+003,-8.256149e-001
1.147345e+003,2.671432e+000
1.148309e+003,5.215111e+000
1.149274e+003,6.344345e+000
1.150238e+003,6.367279e+000
1.151202e+003,4.317474e+000
1.152166e+003,1.577728e+000
1.153130e+003,5.860443e-001
1.154095e+003,2.349777e+000
1.155059e+003,5.220467e+000
1.156023e+003,7.049362e+000
1.156987e+003,7.860939e+000
1.157952e+003,8.342133e+000
1.158916e+003,8.648521e+000
1.159880e+003,8.325966e+000
1.160844e+003,6.578659e+000
1.161809e+003,4.041275e+000
1.162773e+003,2.418243e+000
1.163737e+003,2.022232e+000
1.164701e+003,1.184769e+000
1.165666e+003,-1.378731e+000
1.166630e+003,-3.480446e+000
1.167594e+003,-4.086990e+000
1.168558e+003,-3.839973e+000
1.169522e+003,-3.596939e+000
1.170487e+003,-3.660118e+000
1.171451e+003,-3.765846e+000
1.172415e+003,-3.602440e+000
1.173379e+003,-3.284683e+000
1.174344e+003,-3.402306e+000
1.175308e+003,-3.963356e+000
1.176272e+003,-4.379395e+000
1.177236e+003,-4.198158e+000
1.178201e+003,-3.947952e+000
1.179165e+003,-4.447952e+000
1.180129e+003,-5.746422e+000
1.181093e+003,-6.876884e+000
1.182057e+003,-7.752510e+000
1.183022e+003,-8.182777e+000
1.183986e+003,-7.610641e+000
1.184950e+003,-6.955986e+000
1.185914e+003,-7.299423e+000
1.186879e+003,-8.525864e+000
1.187843e+003,-9.624954e+000
1.188807e+003,-9.799110e+000
1.189771e+003,-9.149696e+000
1.190736e+003,-7.639427e+000
1.191700e+003,-5.080940e+000
1.192664e+003,-3.917877e+000
1.193628e+003,-5.182129e+000
1.194593e+003,-6.741905e+000
1.195557e+003,-6.947212e+000
1.196521e+003,-6.230774e+000
1.197485e+003,-6.126198e+000
1.198449e+003,-6.986908e+000
1.199414e+003,-8.026848e+000
1.200378e+003,-9.272247e+000
1.201342e+003,-1.022674e+001
1.202306e+003,-1.035480e+001
1.203271e+003,-9.989601e+000
1.204235e+003,-9.924957e+000
1.205199e+003,-1.049181e+001
1.206163e+003,-1.106035e+001
1.207128e+003,-1.051805e+001
1.208092e+003,-8.773285e+000
1.209056e+003,-7.950836e+000
1.210020e+003,-8.114296e+000
1.210984e+003,-8.826874e+000
1.211949e+003,-1.041219e+001
1.212913e+003,-1.222937e+001
1.213877e+003,-1.352507e+001
1.214841e+003,-1.422284e+001
1.215806e+003,-1.425791e+001
1.216770e+003,-1.284695e+001
1.217734e+003,-1.203038e+001
1.218698e+003,-1.410742e+001
1.219663e+003,-1.699311e+001
1.220627e+003,-1.794913e+001
1.221591e+003,-1.666771e+001
1.222555e+003,-1.482184e+001
1.223520e+003,-1.393656e+001
1.224484e+003,-1.382101e+001
1.225448e+003,-1.363411e+001
1.226412e+003,-1.325533e+001
1.227376e+003,-1.312915e+001
1.228341e+003,-1.334196e+001
1.229305e+003,-1.372960e+001
1.230269e+003,-1.439181e+001
1.231233e+003,-1.511857e+001
1.232198e+003,-1.551337e+001
1.233162e+003,-1.545550e+001
1.234126e+003,-1.501156e+001
1.235090e+003,-1.381325e+001
1.236055e+003,-1.272162e+001
1.237019e+003,-1.301137e+001
1.237983e+003,-1.413906e+001
1.238947e+003,-1.446227e+001
1.239911e+003,-1.328732e+001
1.240876e+003,-1.175282e+001
1.241840e+003,-1.173455e+001
1.242804e+003,-1.339384e+001
1.243768e+003,-1.357199e+001
1.244733e+003,-9.574730e+000
1.245697e+003,-7.741241e+000
1.246661e+003,-1.027177e+001
1.247625e+003,-1.364417e+001
1.248590e+003,-1.523440e+001
1.249554e+003,-1.523086e+001
1.250518e+003,-1.524416e+001
1.251482e+003,-1.603877e+001
1.252447e+003,-1.694153e+001
1.253411e+003,-1.705559e+001
1.254375e+003,-1.666785e+001
1.255339e+003,-1.648683e+001
1.256303e+003,-1.650812e+001
1.257268e+003,-1.632516e+001
1.258232e+003,-1.577173e+001
1.259196e+003,-1.489677e+001
1.260160e+003,-1.358221e+001
1.261125e+003,-1.164777e+001
1.262089e+003,-1.019057e+001
1.263053e+003,-9.245026e+000
1.264017e+003,-9.058685e+000
1.264982e+003,-1.032076e+001
1.265946e+003,-1.185676e+001
1.266910e+003,-1.250675e+001
1.267874e+003,-1.230910e+001
1.268839e+003,-1.218708e+001
1.269803e+003,-1.275568e+001
1.270767e+003,-1.341903e+001
1.271731e+003,-1.282858e+001
1.272695e+003,-1.103944e+001
1.273660e+003,-1.025426e+001
1.274624e+003,-1.085835e+001
1.275588e+003,-1.176894e+001
1.276552e+003,-1.252544e+001
1.277517e+003,-1.308552e+001
1.278481e+003,-1.347081e+001
1.279445e+003,-1.371267e+001
1.280409e+003,-1.352937e+001
1.281374e+003,-1.230476e+001
1.282338e+003,-1.133797e+001
1.283302e+003,-1.155855e+001
1.284266e+003,-1.223016e+001
1.285230e+003,-1.255575e+001
1.286195e+003,-1.239924e+001
1.287159e+003,-1.202137e+001
1.288123e+003,-1.161539e+001
1.289087e+003,-1.124235e+001
1.290052e+003,-1.118792e+001
1.291016e+003,-1.162698e+001
1.291980e+003,-1.188832e+001
1.292944e+003,-1.175876e+001
1.293909e+003,-1.181761e+001
1.294873e+003,-1.279597e+001
1.295837e+003,-1.374220e+001
1.296801e+003,-1.272709e+001
1.297766e+003,-9.777092e+000
1.298730e+003,-8.339272e+000
1.299694e+003,-1.098775e+001
1.300658e+003,-1.446709e+001
1.301622e+003,-1.519256e+001
1.302587e+003,-1.425536e+001
1.303551e+003,-1.304458e+001
1.304515e+003,-1.189233e+001
1.305479e+003,-1.110631e+001
1.306444e+003,-1.103017e+001
1.307408e+003,-1.143326e+001
1.308372e+003,-1.140245e+001
1.309336e+003,-1.061798e+001
1.310301e+003,-1.041220e+001
1.311265e+003,-1.140750e+001
1.312229e+003,-1.223512e+001
1.313193e+003,-1.249072e+001
1.314157e+003,-1.240499e+001
1.315122e+003,-1.211037e+001
1.316086e+003,-1.175337e+001
1.317050e+003,-1.167731e+001
1.318014e+003,-1.212688e+001
1.318979e+003,-1.259572e+001
1.319943e+003,-1.200080e+001
1.320907e+003,-1.051965e+001
1.321871e+003,-1.000426e+001
1.322836e+003,-1.086607e+001
1.323800e+003,-1.167746e+001
1.324764e+003,-1.164382e+001
1.325728e+003,-1.109468e+001
1.326693e+003,-1.054755e+001
1.327657e+003,-1.004029e+001
1.328621e+003,-9.636269e+000
1.329585e+003,-9.254044e+000
1.330549e+003,-8.903656e+000
1.331514e+003,-8.515739e+000
1.332478e+003,-8.378799e+000
1.333442e+003,-8.905556e+000
1.334406e+003,-9.907104e+000
1.335371e+003,-1.071089e+001
1.336335e+003,-1.092673e+001
1.337299e+003,-1.102753e+001
1.338263e+003,-1.203030e+001
1.339228e+003,-1.420258e+001
1.340192e+003,-1.469919e+001
1.341156e+003,-1.201579e+001
1.342120e+003,-9.996239e+000
1.343084e+003,-9.572624e+000
1.344049e+003,-9.728241e+000
1.345013e+003,-9.652992e+000
1.345977e+003,-9.361687e+000
1.346941e+003,-9.299538e+000
1.347906e+003,-9.651093e+000
1.348870e+003,-9.942322e+000
1.349834e+003,-9.842522e+000
1.350798e+003,-9.313072e+000
1.351763e+003,-7.682060e+000
1.352727e+003,-5.367546e+000
1.353691e+003,-5.193108e+000
1.354655e+003,-8.755829e+000
1.355620e+003,-1.272675e+001
1.356584e+003,-1.253161e+001
1.357548e+003,-8.792252e+000
1.358512e+003,-7.471565e+000
1.359476e+003,-9.874634e+000
1.360441e+003,-1.192542e+001
1.361405e+003,-1.273974e+001
1.362369e+003,-1.278131e+001
1.363333e+003,-1.201806e+001
1.364298e+003,-1.073267e+001
1.365262e+003,-8.862518e+000
1.366226e+003,-6.715820e+000
1.367190e+003,-5.466835e+000
1.368155e+003,-6.191780e+000
1.369119e+003,-8.167603e+000
1.370083e+003,-9.090462e+000
1.371047e+003,-8.614349e+000
1.372011e+003,-8.380318e+000
1.372976e+003,-8.897026e+000
1.373940e+003,-9.071999e+000
1.374904e+003,-8.078819e+000
1.375868e+003,-6.762917e+000
1.376833e+003,-6.332039e+000
1.377797e+003,-6.773949e+000
1.378761e+003,-7.000160e+000
1.379725e+003,-6.463303e+000
1.380690e+003,-5.831161e+000
1.381654e+003,-5.759125e+000
1.382618e+003,-6.025665e+000
1.383582e+003,-6.469658e+000
1.384547e+003,-7.022011e+000
1.385511e+003,-7.387253e+000
1.386475e+003,-7.404320e+000
1.387439e+003,-7.275528e+000
1.388403e+003,-7.255730e+000
1.389368e+003,-7.349609e+000
1.390332e+003,-7.649719e+000
1.391296e+003,-8.466858e+000
1.392260e+003,-8.787735e+000
1.393225e+003,-8.200806e+000
1.394189e+003,-7.347900e+000
1.395153e+003,-6.356819e+000
1.396117e+003,-5.439453e+000
1.397082e+003,-4.811821e+000
1.398046e+003,-4.533058e+000
1.399010e+003,-4.514198e+000
1.399974e+003,-4.696976e+000
1.400938e+003,-5.206841e+000
1.401903e+003,-6.370720e+000
1.402867e+003,-8.405739e+000
1.403831e+003,-9.496094e+000
1.404795e+003,-9.440094e+000
1.405760e+003,-8.886589e+000
1.406724e+003,-7.536583e+000
1.407688e+003,-6.304665e+000
1.408652e+003,-6.292274e+000
1.409617e+003,-7.360382e+000
1.410581e+003,-8.678093e+000
1.411545e+003,-1.008311e+001
1.412509e+003,-1.080186e+001
1.413474e+003,-9.758003e+000
1.414438e+003,-7.771271e+000
1.415402e+003,-5.785538e+000
1.416366e+003,-3.954338e+000
1.417330e+003,-3.238266e+000
1.418295e+003,-4.222633e+000
1.419259e+003,-5.644356e+000
1.420223e+003,-5.870872e+000
1.421187e+003,-5.213913e+000
1.422152e+003,-5.732193e+000
1.423116e+003,-8.148994e+000
1.424080e+003,-9.317795e+000
1.425044e+003,-6.899193e+000
1.426009e+003,-4.735603e+000
1.426973e+003,-4.780983e+000
1.427937e+003,-5.745041e+000
1.428901e+003,-5.873314e+000
1.429865e+003,-5.123627e+000
1.430830e+003,-4.940193e+000
1.431794e+003,-6.267906e+000
1.432758e+003,-7.975967e+000
1.433722e+003,-7.659592e+000
1.434687e+003,-4.991638e+000
1.435651e+003,-3.761475e+000
1.436615e+003,-5.564308e+000
1.437579e+003,-6.705139e+000
1.438544e+003,-6.468338e+000
1.439508e+003,-5.849258e+000
1.440472e+003,-5.093285e+000
1.441436e+003,-4.542404e+000
1.442401e+003,-5.064255e+000
1.443365e+003,-6.702003e+000
1.444329e+003,-7.792603e+000
1.445293e+003,-6.976852e+000
1.446257e+003,-5.231506e+000
1.447222e+003,-4.374596e+000
1.448186e+003,-4.261864e+000
1.449150e+003,-4.117584e+000
1.450114e+003,-3.817993e+000
1.451079e+003,-3.790176e+000
1.452043e+003,-4.677383e+000
1.453007e+003,-5.603416e+000
1.453971e+003,-5.131622e+000
1.454936e+003,-3.491989e+000
1.455900e+003,-2.330864e+000
1.456864e+003,-1.906456e+000
1.457828e+003,-2.200905e+000
1.458792e+003,-4.153877e+000
1.459757e+003,-6.028267e+000
1.460721e+003,-6.239059e+000
1.461685e+003,-5.317337e+000
1.462649e+003,-4.242424e+000
1.463614e+003,-3.346252e+000
1.464578e+003,-2.923546e+000
1.465542e+003,-3.327530e+000
1.466506e+003,-4.278496e+000
1.467471e+003,-4.942383e+000
1.468435e+003,-5.274017e+000
1.469399e+003,-5.300484e+000
1.470363e+003,-4.750191e+000
1.471328e+003,-4.384636e+000
1.472292e+003,-5.031967e+000
1.473256e+003,-5.381142e+000
1.474220e+003,-3.536484e+000
1.475184e+003,-8.641510e-001
1.476149e+003,-5.203247e-001
1.477113e+003,-3.184601e+000
1.478077e+003,-5.962479e+000
1.479041e+003,-5.991806e+000
1.480006e+003,-4.103210e+000
1.480970e+003,-3.143150e+000
1.481934e+003,-3.538628e+000
1.482898e+003,-3.233788e+000
1.483863e+003,-1.533127e+000
1.484827e+003,-2.154999e-001
1.485791e+003,5.156174e-001
1.486755e+003,5.179214e-001
1.487719e+003,-1.016167e+000
1.488684e+003,-3.337418e+000
1.489648e+003,-4.419624e+000
1.490612e+003,-3.622215e+000
1.491576e+003,-2.251541e+000
1.492541e+003,-1.262489e+000
1.493505e+003,-6.312180e-001
1.494469e+003,-3.528748e-001
1.495433e+003,-4.356155e-001
1.496398e+003,-7.383652e-001
1.497362e+003,-1.213806e+000
1.498326e+003,-1.769630e+000
1.499290e+003,-2.696922e+000
1.500255e+003,-3.451958e+000
1.501219e+003,-3.179596e+000
1.502183e+003,-2.028343e+000
1.503147e+003,-8.052063e-001
1.504111e+003,3.885269e-001
1.505076e+003,1.266068e+000
1.506040e+003,1.655350e+000
1.507004e+003,1.643784e+000
1.507968e+003,7.690125e-001
1.508933e+003,-2.426453e-001
1.509897e+003,4.570847e-001
1.510861e+003,3.134506e+000
1.511825e+003,5.575310e+000
1.512790e+003,5.972000e+000
1.513754e+003,5.532478e+000
1.514718e+003,6.926559e+000
1.515682e+003,1.010935e+001
1.516646e+003,1.187035e+001
1.517611e+003,1.117521e+001
1.518575e+003,1.109978e+001
1.519539e+003,1.356476e+001
1.520503e+003,1.595968e+001
1.521468e+003,1.695498e+001
1.522432e+003,1.696575e+001
1.523396e+003,1.653715e+001
1.524360e+003,1.588020e+001
1.525325e+003,1.506802e+001
1.526289e+003,1.416413e+001
1.527253e+003,1.335022e+001
1.528217e+003,1.302441e+001
1.529182e+003,1.322910e+001
1.530146e+003,1.251247e+001
1.531110e+003,9.880028e+000
1.532074e+003,8.148117e+000
1.533039e+003,8.001251e+000
1.534003e+003,7.952621e+000
1.534967e+003,7.536003e+000
1.535931e+003,6.885559e+000
1.536896e+003,6.001411e+000
1.537860e+003,5.075500e+000
1.538824e+003,4.728539e+000
1.539788e+003,5.175476e+000
1.540752e+003,5.280594e+000
1.541717e+003,3.457115e+000
1.542681e+003,2.449112e-001
1.543645e+003,-1.029228e+000
1.544609e+003,6.940079e-001
1.545573e+003,1.846336e+000
1.546538e+003,1.746826e+000
1.547502e+003,1.865425e+000
1.548466e+003,2.989433e+000
1.549430e+003,4.486992e+000
1.550395e+003,5.958511e+000
1.551359e+003,7.117897e+000
1.552323e+003,7.433151e+000
1.553287e+003,6.761734e+000
1.554252e+003,5.592316e+000
1.555216e+003,4.205719e+000
1.556180e+003,2.996895e+000
1.557144e+003,3.158920e+000
1.558109e+003,4.760963e+000
1.559073e+003,5.220833e+000
1.560037e+003,3.938950e+000
1.561001e+003,2.526649e+000
1.561966e+003,1.271049e+000
1.562930e+003,4.438858e-001
1.563894e+003,2.597275e-001
1.564858e+003,6.487122e-001
1.565823e+003,1.797554e+000
1.566787e+003,3.621994e+000
1.567751e+003,4.474350e+000
1.568715e+003,3.133850e+000
1.569679e+003,1.395142e+000
1.570644e+003,1.625671e+000
1.571608e+003,3.162079e+000
1.572572e+003,4.135323e+000
1.573536e+003,4.515152e+000
1.574500e+003,4.785927e+000
1.575465e+003,4.990753e+000
1.576429e+003,5.269974e+000
1.577393e+003,5.844757e+000
1.578357e+003,6.493767e+000
1.579322e+003,6.764557e+000
1.580286e+003,6.670975e+000
1.581250e+003,6.716797e+000
1.582214e+003,7.178001e+000
1.583179e+003,7.297585e+000
1.584143e+003,6.015274e+000
1.585107e+003,4.500969e+000
1.586071e+003,4.318558e+000
1.587036e+003,5.278625e+000
1.588000e+003,6.960480e+000
1.588964e+003,9.353104e+000
1.589928e+003,1.074404e+001
1.590893e+003,9.265953e+000
1.591857e+003,6.874832e+000
1.592821e+003,6.892792e+000
1.593785e+003,8.790436e+000
1.594750e+003,9.183083e+000
1.595714e+003,7.339073e+000
1.596678e+003,5.983025e+000
1.597642e+003,6.421730e+000
1.598606e+003,7.373238e+000
1.599571e+003,7.991386e+000
1.600535e+003,8.397141e+000
1.601499e+003,8.604294e+000
1.602463e+003,8.696136e+000
1.603427e+003,9.045250e+000
1.604392e+003,9.829956e+000
1.605356e+003,1.072938e+001
1.606320e+003,1.144287e+001
1.607284e+003,1.201836e+001
1.608249e+003,1.272009e+001
1.609213e+003,1.356896e+001
1.610177e+003,1.368012e+001
1.611141e+003,1.256411e+001
1.612106e+003,1.156502e+001
1.613070e+003,1.121060e+001
1.614034e+003,1.133305e+001
1.614998e+003,1.211824e+001
1.615963e+003,1.318676e+001
1.616927e+003,1.395388e+001
1.617891e+003,1.430247e+001
1.618855e+003,1.435463e+001
1.619820e+003,1.415257e+001
1.620784e+003,1.369524e+001
1.621748e+003,1.270918e+001
1.622712e+003,1.151071e+001
1.623677e+003,1.203451e+001
1.624641e+003,1.474232e+001
1.625605e+003,1.648545e+001
1.626569e+003,1.578194e+001
1.627533e+003,1.514197e+001
1.628498e+003,1.648759e+001
1.629462e+003,1.791502e+001
1.630426e+003,1.734189e+001
1.631390e+003,1.564514e+001
1.632354e+003,1.511175e+001
1.633319e+003,1.618283e+001
1.634283e+003,1.711776e+001
1.635247e+003,1.652715e+001
1.636211e+003,1.535403e+001
1.637176e+003,1.560564e+001
1.638140e+003,1.713976e+001
1.639104e+003,1.724162e+001
1.640068e+003,1.535080e+001
1.641033e+003,1.378943e+001
1.641997e+003,1.300849e+001
1.642961e+003,1.290266e+001
1.643925e+003,1.416658e+001
1.644890e+003,1.540234e+001
1.645854e+003,1.466704e+001
1.646818e+003,1.278371e+001
1.647782e+003,1.237914e+001
1.648747e+003,1.413755e+001
1.649711e+003,1.571405e+001
1.650675e+003,1.507378e+001
1.651639e+003,1.333534e+001
1.652604e+003,1.269760e+001
1.653568e+003,1.310248e+001
1.654532e+003,1.378488e+001
1.655496e+003,1.486606e+001
1.656460e+003,1.566905e+001
1.657425e+003,1.611757e+001
1.658389e+003,1.610196e+001
1.659353e+003,1.512391e+001
1.660317e+003,1.401760e+001
1.661281e+003,1.382590e+001
1.662246e+003,1.428371e+001
1.663210e+003,1.439194e+001
1.664174e+003,1.384511e+001
1.665138e+003,1.318223e+001
1.666103e+003,1.275908e+001
1.667067e+003,1.260964e+001
1.668031e+003,1.317213e+001
1.668995e+003,1.433021e+001
1.669960e+003,1.391000e+001
1.670924e+003,1.118951e+001
1.671888e+003,9.404701e+000
1.672852e+003,1.005285e+001
1.673817e+003,1.109866e+001
1.674781e+003,1.114085e+001
1.675745e+003,1.094588e+001
1.676709e+003,1.179770e+001
1.677674e+003,1.314807e+001
1.678638e+003,1.285351e+001
1.679602e+003,1.027672e+001
1.680566e+003,7.875595e+000
1.681531e+003,7.632591e+000
1.682495e+003,8.629929e+000
1.683459e+003,9.692116e+000
1.684423e+003,1.061771e+001
1.685387e+003,9.757957e+000
1.686352e+003,6.552483e+000
1.687316e+003,5.251404e+000
1.688280e+003,8.188622e+000
1.689244e+003,1.148075e+001
1.690208e+003,1.247557e+001
1.691173e+003,1.211163e+001
1.692137e+003,1.081845e+001
1.693101e+003,9.073952e+000
1.694065e+003,8.193382e+000
1.695030e+003,8.490898e+000
1.695994e+003,8.842339e+000
1.696958e+003,8.602402e+000
1.697922e+003,8.053932e+000
1.698887e+003,7.497322e+000
1.699851e+003,6.938766e+000
1.700815e+003,6.318314e+000
1.701779e+003,5.620522e+000
1.702744e+003,5.040665e+000
1.703708e+003,4.630295e+000
1.704672e+003,4.604286e+000
1.705636e+003,5.384979e+000
1.706601e+003,6.253166e+000
1.707565e+003,5.970512e+000
1.708529e+003,4.977219e+000
1.709493e+003,4.775482e+000
1.710458e+003,5.690186e+000
1.711422e+003,5.855797e+000
1.712386e+003,3.536674e+000
1.713350e+003,1.431229e+000
1.714314e+003,2.047089e+000
1.715279e+003,4.004883e+000
1.716243e+003,5.140190e+000
1.717207e+003,5.396965e+000
1.718171e+003,5.551903e+000
1.719135e+003,5.829620e+000
1.720100e+003,5.891861e+000
1.721064e+003,5.498383e+000
1.722028e+003,4.739304e+000
1.722992e+003,3.576019e+000
1.723957e+003,2.235909e+000
1.724921e+003,1.848122e+000
1.725885e+003,2.479546e+000
1.726849e+003,3.080589e+000
1.727814e+003,3.524818e+000
1.728778e+003,4.005730e+000
1.729742e+003,4.882355e+000
1.730706e+003,5.558739e+000
1.731671e+003,5.203018e+000
1.732635e+003,4.207855e+000
1.733599e+003,3.460121e+000
1.734563e+003,3.193466e+000
1.735528e+003,3.346527e+000
1.736492e+003,3.862511e+000
1.737456e+003,4.193161e+000
1.738420e+003,3.614761e+000
1.739385e+003,2.472992e+000
1.740349e+003,2.165710e+000
1.741313e+003,2.862701e+000
1.742277e+003,3.688156e+000
1.743241e+003,5.271744e+000
1.744206e+003,6.066269e+000
1.745170e+003,5.375923e+000
1.746134e+003,4.386536e+000
1.747098e+003,3.454010e+000
1.748063e+003,2.788979e+000
1.749027e+003,2.727928e+000
1.749991e+003,3.078278e+000
1.750955e+003,3.386284e+000
1.751919e+003,3.435204e+000
1.752884e+003,3.028122e+000
1.753848e+003,1.978058e+000
1.754812e+003,9.760208e-001
1.755776e+003,1.564240e+000
1.756741e+003,3.707031e+000
1.757705e+003,5.156593e+000
1.758669e+003,5.795189e+000
1.759633e+003,5.977974e+000
1.760598e+003,5.443939e+000
1.761562e+003,4.800964e+000
1.762526e+003,4.117386e+000
1.763490e+003,3.579536e+000
1.764455e+003,3.382256e+000
1.765419e+003,3.386932e+000
1.766383e+003,3.386909e+000
1.767347e+003,3.311981e+000
1.768312e+003,3.202988e+000
1.769276e+003,3.073456e+000
1.770240e+003,2.639114e+000
1.771204e+003,1.368652e+000
1.772168e+003,-7.855225e-002
1.773133e+003,-7.414246e-002
1.774097e+003,1.214569e+000
1.775061e+003,2.069626e+000
1.776025e+003,2.223785e+000
1.776990e+003,2.417053e+000
1.777954e+003,2.823601e+000
1.778918e+003,3.642769e+000
1.779882e+003,5.824425e+000
1.780846e+003,7.770714e+000
1.781811e+003,6.840775e+000
1.782775e+003,3.971725e+000
1.783739e+003,2.255188e+000
1.784703e+003,2.189499e+000
1.785668e+003,2.587822e+000
1.786632e+003,3.397621e+000
1.787596e+003,3.854256e+000
1.788560e+003,3.257935e+000
1.789525e+003,2.169174e+000
1.790489e+003,8.062897e-001
1.791453e+003,-3.444748e-001
1.792417e+003,5.128326e-001
1.793382e+003,3.451225e+000
1.794346e+003,5.457138e+000
1.795310e+003,4.891998e+000
1.796274e+003,3.267036e+000
1.797239e+003,2.195496e+000
1.798203e+003,1.715942e+000
1.799167e+003,1.891632e+000
1.800131e+003,2.805084e+000
1.801095e+003,3.302681e+000
1.802060e+003,3.507454e+000
1.803024e+003,3.287453e+000
1.803988e+003,2.002312e+000
1.804952e+003,1.010170e+000
1.805917e+003,8.182144e-001
1.806881e+003,1.337364e+000
1.807845e+003,3.106209e+000
1.808809e+003,5.249390e+000
1.809773e+003,5.919495e+000
1.810738e+003,4.982246e+000
1.811702e+003,4.242561e+000
1.812666e+003,4.817436e+000
1.813630e+003,5.813629e+000
1.814595e+003,6.046242e+000
1.815559e+003,5.665077e+000
1.816523e+003,5.213539e+000
1.817487e+003,4.647743e+000
1.818452e+003,4.735695e+000
1.819416e+003,5.961555e+000
1.820380e+003,6.640076e+000
1.821344e+003,6.261314e+000
1.822309e+003,5.223251e+000
1.823273e+003,2.774193e+000
1.824237e+003,6.261368e-001
1.825201e+003,1.093140e+000
1.826166e+003,3.199814e+000
1.827130e+003,4.109718e+000
1.828094e+003,3.351547e+000
1.829058e+003,2.937111e+000
1.830022e+003,4.190323e+000
1.830987e+003,5.316650e+000
1.831951e+003,4.357048e+000
1.832915e+003,2.714546e+000
1.833879e+003,2.424248e+000
1.834844e+003,3.235832e+000
1.835808e+003,4.279877e+000
1.836772e+003,5.325974e+000
1.837736e+003,6.034355e+000
1.838700e+003,6.246796e+000
1.839665e+003,5.740227e+000
1.840629e+003,4.114639e+000
1.841593e+003,2.250031e+000
1.842557e+003,2.058960e+000
1.843522e+003,3.513931e+000
1.844486e+003,4.671898e+000
1.845450e+003,5.593056e+000
1.846414e+003,6.163063e+000
1.847379e+003,6.070755e+000
1.848343e+003,5.934273e+000
1.849307e+003,6.136925e+000
1.850271e+003,6.186630e+000
1.851236e+003,5.456406e+000
1.852200e+003,4.551857e+000
1.853164e+003,4.406914e+000
1.854128e+003,4.856277e+000
1.855093e+003,4.995476e+000
1.856057e+003,4.547981e+000
1.857021e+003,4.133690e+000
1.857985e+003,4.247704e+000
1.858949e+003,4.670296e+000
1.859914e+003,5.185684e+000
1.860878e+003,5.714012e+000
1.861842e+003,5.549126e+000
1.862806e+003,4.646080e+000
1.863771e+003,4.620331e+000
1.864735e+003,6.019798e+000
1.865699e+003,6.877426e+000
1.866663e+003,6.063545e+000
1.867627e+003,5.050400e+000
1.868592e+003,5.203476e+000
1.869556e+003,5.904289e+000
1.870520e+003,5.958046e+000
1.871484e+003,5.492531e+000
1.872449e+003,5.466499e+000
1.873413e+003,6.268738e+000
1.874377e+003,6.771118e+000
1.875341e+003,6.148285e+000
1.876306e+003,5.624535e+000
1.877270e+003,6.044258e+000
1.878234e+003,6.675011e+000
1.879198e+003,6.656357e+000
1.880163e+003,6.364578e+000
1.881127e+003,6.883476e+000
1.882091e+003,7.990837e+000
1.883055e+003,8.020752e+000
1.884020e+003,6.419418e+000
1.884984e+003,4.873528e+000
1.885948e+003,4.920418e+000
1.886912e+003,5.982910e+000
1.887876e+003,7.029175e+000
1.888841e+003,8.018051e+000
1.889805e+003,8.232033e+000
1.890769e+003,7.454674e+000
1.891733e+003,7.090042e+000
1.892698e+003,7.386772e+000
1.893662e+003,7.750931e+000
1.894626e+003,8.127380e+000
1.895590e+003,8.351189e+000
1.896554e+003,8.316536e+000
1.897519e+003,8.104637e+000
1.898483e+003,7.422424e+000
1.899447e+003,6.597534e+000
1.900411e+003,7.109032e+000
1.901376e+003,9.335045e+000
1.902340e+003,1.058760e+001
1.903304e+003,9.283821e+000
1.904268e+003,7.662819e+000
1.905233e+003,6.926231e+000
1.906197e+003,6.707069e+000
1.907161e+003,6.637009e+000
1.908125e+003,6.812065e+000
1.909090e+003,7.765083e+000
1.910054e+003,9.138504e+000
1.911018e+003,9.573387e+000
1.911982e+003,8.713295e+000
1.912947e+003,7.485359e+000
1.913911e+003,6.555008e+000
1.914875e+003,6.110710e+000
1.915839e+003,6.519867e+000
1.916803e+003,7.513206e+000
1.917768e+003,7.740463e+000
1.918732e+003,7.000885e+000
1.919696e+003,7.043892e+000
1.920660e+003,8.283852e+000
1.921625e+003,9.245316e+000
1.922589e+003,9.415627e+000
1.923553e+003,9.525856e+000
1.924517e+003,1.032103e+001
1.925481e+003,1.089837e+001
1.926446e+003,9.993141e+000
1.927410e+003,8.477058e+000
1.928374e+003,8.106575e+000
1.929338e+003,8.929047e+000
1.930303e+003,9.979050e+000
1.931267e+003,1.146935e+001
1.932231e+003,1.191540e+001
1.933195e+003,9.556740e+000
1.934160e+003,7.130859e+000
1.935124e+003,6.609306e+000
1.936088e+003,7.141350e+000
1.937052e+003,8.052879e+000
1.938017e+003,9.000374e+000
1.938981e+003,9.320000e+000
1.939945e+003,9.113907e+000
1.940909e+003,9.442711e+000
1.941874e+003,1.070150e+001
1.942838e+003,1.178503e+001
1.943802e+003,1.167728e+001
1.944766e+003,1.100710e+001
1.945730e+003,1.108083e+001
1.946695e+003,1.168478e+001
1.947659e+003,1.090831e+001
1.948623e+003,8.474319e+000
1.949587e+003,7.938164e+000
1.950552e+003,1.026380e+001
1.951516e+003,1.216595e+001
1.952480e+003,1.263315e+001
1.953444e+003,1.221899e+001
1.954408e+003,1.050718e+001
1.955373e+003,8.871101e+000
1.956337e+003,9.988396e+000
1.957301e+003,1.284795e+001
1.958265e+003,1.343848e+001
1.959230e+003,1.130160e+001
1.960194e+003,1.015563e+001
1.961158e+003,1.140612e+001
1.962122e+003,1.219054e+001
1.963087e+003,1.118785e+001
1.964051e+003,1.027386e+001
1.965015e+003,1.095284e+001
1.965979e+003,1.192681e+001
1.966944e+003,1.150532e+001
1.967908e+003,1.041763e+001
1.968872e+003,1.052713e+001
1.969836e+003,1.173923e+001
1.970801e+003,1.218271e+001
1.971765e+003,1.109805e+001
1.972729e+003,9.599380e+000
1.973693e+003,8.440147e+000
1.974657e+003,7.918526e+000
1.975622e+003,8.834541e+000
1.976586e+003,1.059120e+001
1.977550e+003,1.166079e+001
1.978514e+003,1.208772e+001
1.979479e+003,1.226698e+001
1.980443e+003,1.226391e+001
1.981407e+003,1.215411e+001
1.982371e+003,1.196514e+001
1.983335e+003,1.203128e+001
1.984300e+003,1.267943e+001
1.985264e+003,1.317096e+001
1.986228e+003,1.223415e+001
1.987192e+003,1.034183e+001
1.988157e+003,1.005149e+001
1.989121e+003,1.185540e+001
1.990085e+003,1.277173e+001
1.991049e+003,1.226476e+001
1.992014e+003,1.199440e+001
1.992978e+003,1.214824e+001
1.993942e+003,1.253664e+001
1.994906e+003,1.368100e+001
1.995871e+003,1.444231e+001
1.996835e+003,1.339333e+001
1.997799e+003,1.180537e+001
1.998763e+003,1.173541e+001
1.999728e+003,1.290263e+001
