5.003444e+002,3.127020e+001
5.013087e+002,3.264651e+001
5.022729e+002,3.263943e+001
5.032371e+002,3.153183e+001
5.042014e+002,2.983070e+001
5.051656e+002,2.771367e+001
5.061298e+002,2.604788e+001
5.070941e+002,2.565094e+001
5.080583e+002,2.677371e+001
5.090225e+002,2.730650e+001
5.099868e+002,2.680428e+001
5.109510e+002,2.636040e+001
5.119152e+002,2.669730e+001
5.128795e+002,2.792178e+001
5.138437e+002,2.879788e+001
5.148079e+002,2.976427e+001
5.157722e+002,2.963057e+001
5.167364e+002,2.698759e+001
5.177006e+002,2.216931e+001
5.186649e+002,1.727266e+001
5.196291e+002,1.489732e+001
5.205933e+002,1.428371e+001
5.215576e+002,1.469354e+001
5.225218e+002,1.578481e+001
5.234860e+002,1.716252e+001
5.244503e+002,1.830608e+001
5.254145e+002,1.934763e+001
5.263787e+002,2.006474e+001
5.273430e+002,2.031664e+001
5.283072e+002,2.034756e+001
5.292714e+002,2.051138e+001
5.302357e+002,2.098358e+001
5.311999e+002,2.060461e+001
5.321641e+002,1.881567e+001
5.331284e+002,1.694405e+001
5.340926e+002,1.606898e+001
5.350568e+002,1.657062e+001
5.360211e+002,1.707788e+001
5.369853e+002,1.610751e+001
5.379495e+002,1.494746e+001
5.389138e+002,1.484163e+001
5.398780e+002,1.612442e+001
5.408422e+002,1.795837e+001
5.418065e+002,1.793942e+001
5.427707e+002,1.633293e+001
5.437349e+002,1.474931e+001
5.446992e+002,1.343945e+001
5.456634e+002,1.248216e+001
5.466276e+002,1.221594e+001
5.475919e+002,1.355621e+001
5.485561e+002,1.464452e+001
5.495203e+002,1.564702e+001
5.504846e+002,1.616835e+001
5.514488e+002,1.561655e+001
5.524130e+002,1.347922e+001
5.533773e+002,1.107021e+001
5.543415e+002,8.750076e+000
5.553057e+002,6.749939e+000
5.562700e+002,5.197403e+000
5.572342e+002,4.157166e+000
5.581984e+002,3.762268e+000
5.591627e+002,4.882858e+000
5.601269e+002,6.978607e+000
5.610911e+002,8.809814e+000
5.620554e+002,9.690292e+000
5.630196e+002,9.661743e+000
5.639838e+002,9.573914e+000
5.649481e+002,9.731201e+000
5.659123e+002,9.418762e+000
5.668765e+002,8.381073e+000
5.678408e+002,6.965683e+000
5.688050e+002,5.937469e+000
5.697692e+002,5.454330e+000
5.707335e+002,5.010132e+000
5.716977e+002,4.251236e+000
5.726619e+002,3.598297e+000
5.736262e+002,3.807968e+000
5.745904e+002,5.599670e+000
5.755546e+002,7.680847e+000
5.765189e+002,7.846298e+000
5.774831e+002,6.668503e+000
5.784473e+002,5.101257e+000
5.794116e+002,3.860703e+000
5.803758e+002,3.072800e+000
5.813400e+002,3.401840e+000
5.823043e+002,5.242294e+000
5.832685e+002,6.316040e+000
5.842327e+002,5.305954e+000
5.851970e+002,2.761032e+000
5.861612e+002,1.711945e+000
5.871254e+002,4.355179e+000
5.880897e+002,6.396057e+000
5.890539e+002,6.711960e+000
5.900181e+002,5.860413e+000
5.909824e+002,4.899048e+000
5.919466e+002,4.448761e+000
5.929108e+002,4.323746e+000
5.938751e+002,4.289169e+000
5.948393e+002,4.318008e+000
5.958035e+002,4.442841e+000
5.967678e+002,4.700577e+000
5.977320e+002,5.075638e+000
5.986962e+002,4.847992e+000
5.996605e+002,3.836975e+000
6.006247e+002,2.976425e+000
6.015889e+002,2.925018e+000
6.025532e+002,3.606659e+000
6.035174e+002,3.633865e+000
6.044816e+002,2.012726e+000
6.054459e+002,8.300018e-001
6.064101e+002,7.174225e-001
6.073743e+002,1.177475e+000
6.083386e+002,1.205078e+000
6.093028e+002,-8.621216e-003
6.102670e+002,-1.033401e+000
6.112313e+002,-8.229370e-001
6.121955e+002,1.599426e-001
6.131597e+002,1.425903e+000
6.141240e+002,2.618454e+000
6.150882e+002,3.642822e+000
6.160524e+002,3.990265e+000
6.170167e+002,3.849701e+000
6.179809e+002,4.110046e+000
6.189451e+002,5.441986e+000
6.199094e+002,7.467117e+000
6.208736e+002,7.768585e+000
6.218378e+002,4.090118e+000
6.228021e+002,1.484573e+000
6.237663e+002,8.405151e-001
6.247305e+002,1.457336e+000
6.256948e+002,2.201080e+000
6.266590e+002,2.740494e+000
6.276232e+002,2.774933e+000
6.285875e+002,2.349792e+000
6.295517e+002,1.596390e+000
6.305159e+002,2.577667e-001
6.314802e+002,-1.742325e+000
6.324444e+002,-3.721878e+000
6.334086e+002,-2.851379e+000
6.343729e+002,-8.544922e-003
6.353371e+002,2.284409e+000
6.363013e+002,3.085510e+000
6.372656e+002,2.681702e+000
6.382298e+002,2.209503e+000
6.391940e+002,1.654587e+000
6.401583e+002,9.190674e-001
6.411225e+002,-2.456665e-002
6.420867e+002,-8.558044e-001
6.430510e+002,-1.107300e+000
6.440152e+002,-4.134064e-001
6.449794e+002,-5.199280e-001
6.459437e+002,-3.891388e+000
6.469079e+002,-7.224213e+000
6.478721e+002,-7.149582e+000
6.488364e+002,-2.889816e+000
6.498006e+002,2.506363e+000
6.507648e+002,3.236511e+000
6.517291e+002,7.836151e-001
6.526933e+002,-1.524765e+000
6.536575e+002,-3.136459e+000
6.546218e+002,-3.869827e+000
6.555860e+002,-3.252701e+000
6.565502e+002,9.786987e-002
6.575145e+002,1.656464e+000
6.584787e+002,7.216797e-001
6.594429e+002,-1.143234e+000
6.604072e+002,-3.048416e+000
6.613714e+002,-4.966904e+000
6.623356e+002,-6.034866e+000
6.632999e+002,-5.234833e+000
6.642641e+002,-4.197281e+000
6.652283e+002,-3.691849e+000
6.661926e+002,-3.687424e+000
6.671568e+002,-3.549774e+000
6.681210e+002,-2.426468e+000
6.690853e+002,-9.248657e-001
6.700495e+002,-5.528259e-001
6.710137e+002,-1.267639e+000
6.719780e+002,-2.146820e+000
6.729422e+002,-2.178146e+000
6.739064e+002,-1.118683e+000
6.748707e+002,-1.010849e+000
6.758349e+002,-2.674515e+000
6.767991e+002,-4.114929e+000
6.777634e+002,-4.377518e+000
6.787276e+002,-3.463852e+000
6.796918e+002,-2.152786e+000
6.806561e+002,-2.552948e-001
6.816203e+002,1.205811e+000
6.825845e+002,1.761047e+000
6.835488e+002,1.641296e+000
6.845130e+002,1.148773e+000
6.854772e+002,4.659271e-001
6.864415e+002,-2.272034e-002
6.874057e+002,5.912781e-001
6.883699e+002,1.756653e+000
6.893342e+002,2.299301e+000
6.902984e+002,1.546906e+000
6.912626e+002,-2.071381e-001
6.922269e+002,-1.210541e+000
6.931911e+002,-9.042969e-001
6.941553e+002,-1.803284e-001
6.951196e+002,1.447266e+000
6.960838e+002,3.056503e+000
6.970480e+002,3.006210e+000
6.980123e+002,8.859253e-002
6.989765e+002,-2.051376e+000
6.999407e+002,-1.391785e+000
7.009050e+002,4.722595e-002
7.018692e+002,3.903809e-001
7.028334e+002,-8.506165e-001
7.037977e+002,-2.115402e+000
7.047619e+002,-3.443909e-002
7.057261e+002,3.699585e+000
7.066904e+002,5.174744e+000
7.076546e+002,3.753189e+000
7.086188e+002,9.956665e-001
7.095831e+002,-6.925659e-001
7.105473e+002,-1.144730e+000
7.115115e+002,-1.028976e+000
7.124758e+002,4.031677e-001
7.134400e+002,1.478058e+000
7.144042e+002,7.406769e-001
7.153685e+002,-1.711365e+000
7.163327e+002,-3.120392e+000
7.172969e+002,-7.651367e-001
7.182612e+002,1.620789e+000
7.192254e+002,2.725357e+000
7.201896e+002,2.544128e+000
7.211539e+002,1.294067e+000
7.221181e+002,-1.030487e+000
7.230823e+002,-3.536972e+000
7.240466e+002,-3.793747e+000
7.250108e+002,-2.154388e+000
7.259750e+002,-2.207947e-002
7.269393e+002,1.824387e+000
7.279035e+002,3.163086e+000
7.288677e+002,3.311249e+000
7.298320e+002,1.500153e+000
7.307962e+002,-8.126831e-002
7.317604e+002,-1.484756e+000
7.327247e+002,-2.482513e+000
7.336889e+002,-2.875824e+000
7.346531e+002,-2.789963e+000
7.356174e+002,-2.247879e+000
7.365816e+002,-3.036957e-001
7.375458e+002,1.767624e+000
7.385101e+002,2.989532e+000
7.394743e+002,3.100235e+000
7.404385e+002,2.468658e+000
7.414028e+002,1.323486e+000
7.423670e+002,-3.261719e-001
7.433312e+002,-1.221359e+000
7.442955e+002,-1.045197e+000
7.452597e+002,-2.288971e-001
7.462239e+002,7.828369e-001
7.471882e+002,2.140106e+000
7.481524e+002,2.664139e+000
7.491166e+002,1.314896e+000
7.500809e+002,9.130859e-002
7.510451e+002,5.061340e-002
7.520093e+002,8.370209e-001
7.529736e+002,9.474182e-001
7.539378e+002,-8.854218e-001
7.549020e+002,-2.271210e+000
7.558663e+002,-1.358551e+000
7.568306e+002,7.154388e-001
7.577948e+002,2.361618e+000
7.587590e+002,2.584747e+000
7.597233e+002,1.786667e+000
7.606875e+002,1.249115e+000
7.616517e+002,1.055252e+000
7.626160e+002,1.486511e+000
7.635802e+002,3.049393e+000
7.645444e+002,4.905533e+000
7.655087e+002,5.050095e+000
7.664729e+002,2.030823e+000
7.674371e+002,4.167633e-001
7.684014e+002,1.115753e+000
7.693656e+002,2.410553e+000
7.703298e+002,3.553040e+000
7.712941e+002,4.327301e+000
7.722583e+002,4.399765e+000
7.732225e+002,2.596695e+000
7.741868e+002,8.626709e-001
7.751510e+002,9.825134e-001
7.761152e+002,2.518250e+000
7.770795e+002,4.179825e+000
7.780437e+002,4.812759e+000
7.790079e+002,4.513657e+000
7.799722e+002,4.496231e+000
7.809364e+002,4.863434e+000
7.819006e+002,4.813812e+000
7.828649e+002,3.747375e+000
7.838291e+002,2.153244e+000
7.847933e+002,1.558044e+000
7.857576e+002,2.844727e+000
7.867218e+002,3.273788e+000
7.876860e+002,2.110123e+000
7.886503e+002,4.752808e-001
7.896145e+002,-9.354095e-001
7.905787e+002,-1.861725e+000
7.915430e+002,-2.141647e+000
7.925072e+002,-1.312225e+000
7.934714e+002,-8.035278e-002
7.944357e+002,1.274261e+000
7.953999e+002,2.608978e+000
7.963641e+002,3.300278e+000
7.973284e+002,2.512802e+000
7.982926e+002,7.756042e-002
7.992568e+002,-2.778778e-001
8.002211e+002,2.409943e+000
8.011853e+002,4.366531e+000
8.021495e+002,4.120377e+000
8.031138e+002,2.382736e+000
8.040780e+002,1.063217e+000
8.050422e+002,1.713562e-001
8.060065e+002,-3.074646e-002
8.069707e+002,8.202057e-001
8.079349e+002,1.951035e+000
8.088992e+002,2.696976e+000
8.098634e+002,2.872787e+000
8.108276e+002,2.855499e+000
8.117919e+002,3.167694e+000
8.127561e+002,3.313919e+000
8.137203e+002,2.593033e+000
8.146846e+002,1.084671e+000
8.156488e+002,-4.601593e-001
8.166130e+002,-1.140884e+000
8.175773e+002,-7.143707e-001
8.185415e+002,-1.182449e+000
8.195057e+002,-4.419937e+000
8.204700e+002,-6.379303e+000
8.214342e+002,-4.829758e+000
8.223984e+002,-9.575653e-001
8.233627e+002,1.982513e+000
8.243269e+002,2.596603e+000
8.252911e+002,2.822144e+000
8.262554e+002,4.097733e+000
8.272196e+002,5.510193e+000
8.281838e+002,5.839005e+000
8.291481e+002,4.803146e+000
8.301123e+002,3.454254e+000
8.310765e+002,3.704041e+000
8.320408e+002,5.445007e+000
8.330050e+002,7.110397e+000
8.339692e+002,8.902161e+000
8.349335e+002,9.859711e+000
8.358977e+002,8.427261e+000
8.368619e+002,4.075150e+000
8.378262e+002,1.855637e+000
8.387904e+002,3.773346e+000
8.397546e+002,5.470596e+000
8.407189e+002,5.829132e+000
8.416831e+002,5.285995e+000
8.426473e+002,4.646118e+000
8.436116e+002,4.158630e+000
8.445758e+002,4.216492e+000
8.455400e+002,5.520355e+000
8.465043e+002,7.127029e+000
8.474685e+002,8.376846e+000
8.484327e+002,9.065079e+000
8.493970e+002,8.960800e+000
8.503612e+002,7.408798e+000
8.513254e+002,3.916122e+000
8.522897e+002,2.403870e+000
8.532539e+002,3.776749e+000
8.542181e+002,5.491776e+000
8.551824e+002,6.003952e+000
8.561466e+002,5.652206e+000
8.571108e+002,6.314133e+000
8.580751e+002,9.524109e+000
8.590393e+002,1.151761e+001
8.600035e+002,1.026828e+001
8.609678e+002,7.898483e+000
8.619320e+002,6.756516e+000
8.628962e+002,7.767197e+000
8.638605e+002,9.845352e+000
8.648247e+002,1.188762e+001
8.657889e+002,1.358330e+001
8.667532e+002,1.424939e+001
8.677174e+002,1.379059e+001
8.686816e+002,1.255104e+001
8.696459e+002,1.068607e+001
8.706101e+002,7.933121e+000
8.715743e+002,7.280136e+000
8.725386e+002,1.037216e+001
8.735028e+002,1.326985e+001
8.744670e+002,1.480173e+001
8.754313e+002,1.534464e+001
8.763955e+002,1.583597e+001
8.773597e+002,1.664926e+001
8.783240e+002,1.743152e+001
8.792882e+002,1.780261e+001
8.802524e+002,1.799770e+001
8.812167e+002,1.807454e+001
8.821809e+002,1.817166e+001
8.831451e+002,1.868881e+001
8.841094e+002,2.025098e+001
8.850736e+002,2.283766e+001
8.860378e+002,2.403334e+001
8.870021e+002,2.347305e+001
8.879663e+002,2.276926e+001
8.889305e+002,2.296074e+001
8.898948e+002,2.372601e+001
8.908590e+002,2.354831e+001
8.918232e+002,2.155157e+001
8.927875e+002,2.013005e+001
8.937517e+002,1.984151e+001
8.947159e+002,2.021306e+001
8.956802e+002,2.100928e+001
8.966444e+002,2.196759e+001
8.976086e+002,2.252640e+001
8.985729e+002,2.184532e+001
8.995371e+002,2.099117e+001
9.005013e+002,2.163826e+001
9.014656e+002,2.368335e+001
9.024298e+002,2.627150e+001
9.033940e+002,2.877217e+001
9.043583e+002,3.097235e+001
9.053225e+002,3.205341e+001
9.062867e+002,3.102379e+001
9.072510e+002,2.983238e+001
9.082152e+002,2.877269e+001
9.091794e+002,2.770869e+001
9.101437e+002,2.615697e+001
9.111079e+002,2.401266e+001
9.120721e+002,2.268492e+001
9.130364e+002,2.390883e+001
9.140006e+002,2.521719e+001
9.149648e+002,2.525075e+001
9.159291e+002,2.438464e+001
9.168933e+002,2.342506e+001
9.178575e+002,2.288997e+001
9.188218e+002,2.270885e+001
9.197860e+002,2.296405e+001
9.207502e+002,2.359824e+001
9.217145e+002,2.427560e+001
9.226787e+002,2.550604e+001
9.236429e+002,2.653865e+001
9.246072e+002,2.579822e+001
9.255714e+002,2.257008e+001
9.265356e+002,2.084097e+001
9.274999e+002,2.265196e+001
9.284641e+002,2.441980e+001
9.294283e+002,2.511313e+001
9.303926e+002,2.493823e+001
9.313568e+002,2.450871e+001
9.323210e+002,2.413295e+001
9.332853e+002,2.353267e+001
9.342495e+002,2.187326e+001
9.352137e+002,1.973387e+001
9.361780e+002,1.801967e+001
9.371422e+002,1.703503e+001
9.381064e+002,1.691116e+001
9.390707e+002,1.783353e+001
9.400349e+002,1.994788e+001
9.409991e+002,2.116243e+001
9.419634e+002,2.100525e+001
9.429276e+002,2.062924e+001
9.438918e+002,2.023062e+001
9.448561e+002,1.988443e+001
9.458203e+002,1.965646e+001
9.467845e+002,1.958232e+001
9.477488e+002,1.975940e+001
9.487130e+002,2.041222e+001
9.496772e+002,2.117336e+001
9.506415e+002,2.202490e+001
9.516057e+002,2.274879e+001
9.525699e+002,2.271158e+001
9.535342e+002,2.124353e+001
9.544984e+002,1.857346e+001
9.554626e+002,1.725363e+001
9.564269e+002,1.763124e+001
9.573911e+002,1.815469e+001
9.583553e+002,1.863846e+001
9.593196e+002,1.886250e+001
9.602838e+002,1.826291e+001
9.612480e+002,1.642876e+001
9.622123e+002,1.525095e+001
9.631765e+002,1.548755e+001
9.641407e+002,1.634410e+001
9.651050e+002,1.809953e+001
9.660692e+002,2.002306e+001
9.670334e+002,2.086992e+001
9.679977e+002,1.992073e+001
9.689619e+002,1.811392e+001
9.699261e+002,1.683185e+001
9.708904e+002,1.599345e+001
9.718546e+002,1.601060e+001
9.728188e+002,1.701222e+001
9.737831e+002,1.849779e+001
9.747473e+002,1.997784e+001
9.757115e+002,2.157410e+001
9.766758e+002,2.272310e+001
9.776400e+002,2.361485e+001
9.786042e+002,2.404196e+001
9.795685e+002,2.339691e+001
9.805327e+002,2.230542e+001
9.814969e+002,2.179219e+001
9.824612e+002,2.228650e+001
9.834254e+002,2.293054e+001
9.843896e+002,2.295770e+001
9.853539e+002,2.235240e+001
9.863181e+002,2.073132e+001
9.872823e+002,1.827721e+001
9.882466e+002,1.602914e+001
9.892108e+002,1.501570e+001
9.901750e+002,1.520993e+001
9.911393e+002,1.515323e+001
9.921035e+002,1.400072e+001
9.930677e+002,1.326566e+001
9.940320e+002,1.327608e+001
9.949962e+002,1.377089e+001
9.959604e+002,1.440205e+001
9.969247e+002,1.519456e+001
9.978889e+002,1.681183e+001
9.988531e+002,2.028825e+001
9.998174e+002,2.337622e+001
1.000782e+003,2.463831e+001
1.001746e+003,2.490189e+001
1.002710e+003,2.553088e+001
1.003674e+003,2.701167e+001
1.004639e+003,2.835852e+001
1.005603e+003,2.768597e+001
1.006567e+003,2.470863e+001
1.007531e+003,2.363231e+001
1.008495e+003,2.574329e+001
1.009460e+003,2.717445e+001
1.010424e+003,2.450107e+001
1.011388e+003,1.913869e+001
1.012352e+003,1.718448e+001
1.013317e+003,2.179408e+001
1.014281e+003,2.463612e+001
1.015245e+003,2.159729e+001
1.016209e+003,1.745129e+001
1.017174e+003,1.590108e+001
1.018138e+003,1.694083e+001
1.019102e+003,1.793309e+001
1.020066e+003,1.672440e+001
1.021031e+003,1.420158e+001
1.021995e+003,1.260835e+001
1.022959e+003,1.164230e+001
1.023923e+003,1.070845e+001
1.024887e+003,9.597366e+000
1.025852e+003,8.401917e+000
1.026816e+003,7.242554e+000
1.027780e+003,6.118744e+000
1.028744e+003,5.529007e+000
1.029709e+003,6.162659e+000
1.030673e+003,6.508713e+000
1.031637e+003,5.970474e+000
1.032601e+003,4.856186e+000
1.033566e+003,3.584656e+000
1.034530e+003,2.354584e+000
1.035494e+003,1.363449e+000
1.036458e+003,8.548431e-001
1.037422e+003,6.223145e-001
1.038387e+003,2.733307e-001
1.039351e+003,-1.889648e-001
1.040315e+003,-3.576508e-001
1.041279e+003,1.485291e-001
1.042244e+003,1.233810e+000
1.043208e+003,2.193268e+000
1.044172e+003,2.972183e+000
1.045136e+003,3.409241e+000
1.046101e+003,3.143356e+000
1.047065e+003,3.026886e+000
1.048029e+003,4.024780e+000
1.048993e+003,5.664658e+000
1.049958e+003,6.047043e+000
1.050922e+003,3.774185e+000
1.051886e+003,1.558670e+000
1.052850e+003,2.613297e+000
1.053814e+003,5.112274e+000
1.054779e+003,6.952621e+000
1.055743e+003,7.556763e+000
1.056707e+003,7.227509e+000
1.057671e+003,6.281937e+000
1.058636e+003,4.688232e+000
1.059600e+003,3.575485e+000
1.060564e+003,2.790573e+000
1.061528e+003,2.970474e+000
1.062493e+003,5.164230e+000
1.063457e+003,7.513962e+000
1.064421e+003,7.762589e+000
1.065385e+003,5.757858e+000
1.066349e+003,3.986023e+000
1.067314e+003,3.884659e+000
1.068278e+003,4.206635e+000
1.069242e+003,4.191071e+000
1.070206e+003,3.975662e+000
1.071171e+003,3.591888e+000
1.072135e+003,3.099655e+000
1.073099e+003,2.965942e+000
1.074063e+003,4.176804e+000
1.075028e+003,7.013092e+000
1.075992e+003,7.947174e+000
1.076956e+003,6.193893e+000
1.077920e+003,4.072540e+000
1.078885e+003,2.346451e+000
1.079849e+003,9.973145e-001
1.080813e+003,-2.416687e-001
1.081777e+003,-1.518463e+000
1.082741e+003,-1.935181e+000
1.083706e+003,-5.122986e-001
1.084670e+003,1.244781e+000
1.085634e+003,2.682022e+000
1.086598e+003,3.790512e+000
1.087563e+003,5.080170e+000
1.088527e+003,6.773621e+000
1.089491e+003,7.904282e+000
1.090455e+003,6.026138e+000
1.091420e+003,6.136169e-001
1.092384e+003,-1.549637e+000
1.093348e+003,8.845825e-001
1.094312e+003,3.805832e+000
1.095276e+003,5.228668e+000
1.096241e+003,5.449478e+000
1.097205e+003,5.028381e+000
1.098169e+003,3.748367e+000
1.099133e+003,2.327423e+000
1.100098e+003,9.036102e-001
1.101062e+003,-3.336639e-001
1.102026e+003,-1.669830e+000
1.102990e+003,-2.659103e+000
1.103955e+003,-2.142914e+000
1.104919e+003,5.142517e-001
1.105883e+003,3.909714e+000
1.106847e+003,5.035858e+000
1.107812e+003,3.788193e+000
1.108776e+003,2.732224e+000
1.109740e+003,1.876373e+000
1.110704e+003,1.417847e+000
1.111668e+003,1.640182e+000
1.112633e+003,2.530334e+000
1.113597e+003,3.837296e+000
1.114561e+003,5.920685e+000
1.115525e+003,7.240158e+000
1.116490e+003,6.622498e+000
1.117454e+003,5.826813e+000
1.118418e+003,6.398911e+000
1.119382e+003,7.904999e+000
1.120347e+003,8.584152e+000
1.121311e+003,7.269928e+000
1.122275e+003,5.223099e+000
1.123239e+003,5.684464e+000
1.124203e+003,8.498047e+000
1.125168e+003,9.308060e+000
1.126132e+003,6.853928e+000
1.127096e+003,4.963989e+000
1.128060e+003,7.425659e+000
1.129025e+003,1.300655e+001
1.129989e+003,1.585097e+001
1.130953e+003,1.448035e+001
1.131917e+003,1.264790e+001
1.132882e+003,1.041917e+001
1.133846e+003,9.118942e+000
1.134810e+003,1.011487e+001
1.135774e+003,1.268320e+001
1.136739e+003,1.508237e+001
1.137703e+003,1.632001e+001
1.138667e+003,1.707214e+001
1.139631e+003,1.874492e+001
1.140595e+003,2.106230e+001
1.141560e+003,2.170282e+001
1.142524e+003,1.984892e+001
1.143488e+003,1.923199e+001
1.144452e+003,2.279530e+001
1.145417e+003,2.958385e+001
1.146381e+003,3.621799e+001
1.147345e+003,4.267062e+001
1.148309e+003,4.864719e+001
1.149274e+003,5.416406e+001
1.150238e+003,5.929533e+001
1.151202e+003,6.355562e+001
1.152166e+003,6.771289e+001
1.153130e+003,7.337119e+001
1.154095e+003,8.100467e+001
1.155059e+003,8.856073e+001
1.156023e+003,9.355690e+001
1.156987e+003,9.578279e+001
1.157952e+003,9.511426e+001
1.158916e+003,9.136649e+001
1.159880e+003,8.725775e+001
1.160844e+003,8.442480e+001
1.161809e+003,8.170030e+001
1.162773e+003,7.651042e+001
1.163737e+003,6.818945e+001
1.164701e+003,6.044742e+001
1.165666e+003,5.498367e+001
1.166630e+003,4.964648e+001
1.167594e+003,4.274828e+001
1.168558e+003,3.585158e+001
1.169522e+003,3.124689e+001
1.170487e+003,2.951846e+001
1.171451e+003,2.937778e+001
1.172415e+003,2.956525e+001
1.173379e+003,2.980864e+001
1.174344e+003,2.839006e+001
1.175308e+003,2.510861e+001
1.176272e+003,2.356738e+001
1.177236e+003,2.677089e+001
1.178201e+003,3.094801e+001
1.179165e+003,3.067880e+001
1.180129e+003,2.581616e+001
1.181093e+003,2.188820e+001
1.182057e+003,2.056616e+001
1.183022e+003,1.965611e+001
1.183986e+003,1.814240e+001
1.184950e+003,1.672896e+001
1.185914e+003,1.612076e+001
1.186879e+003,1.640327e+001
1.187843e+003,1.735008e+001
1.188807e+003,1.876851e+001
1.189771e+003,2.025684e+001
1.190736e+003,2.057597e+001
1.191700e+003,1.952521e+001
1.192664e+003,1.934297e+001
1.193628e+003,2.115076e+001
1.194593e+003,2.279681e+001
1.195557e+003,2.255344e+001
1.196521e+003,2.085861e+001
1.197485e+003,1.933400e+001
1.198449e+003,1.834863e+001
1.199414e+003,1.719205e+001
1.200378e+003,1.476430e+001
1.201342e+003,1.277991e+001
1.202306e+003,1.283107e+001
1.203271e+003,1.406383e+001
1.204235e+003,1.464957e+001
1.205199e+003,1.371255e+001
1.206163e+003,1.191641e+001
1.207128e+003,1.028328e+001
1.208092e+003,8.827454e+000
1.209056e+003,7.756897e+000
1.210020e+003,7.013489e+000
1.210984e+003,6.672516e+000
1.211949e+003,7.453491e+000
1.212913e+003,8.167419e+000
1.213877e+003,7.002869e+000
1.214841e+003,3.949600e+000
1.215806e+003,1.332840e+000
1.216770e+003,1.277161e-001
1.217734e+003,-5.860138e-001
1.218698e+003,-1.362762e+000
1.219663e+003,-2.263046e+000
1.220627e+003,-3.424805e+000
1.221591e+003,-4.793182e+000
1.222555e+003,-6.072235e+000
1.223520e+003,-6.963531e+000
1.224484e+003,-7.515060e+000
1.225448e+003,-8.192551e+000
1.226412e+003,-9.322403e+000
1.227376e+003,-9.830276e+000
1.228341e+003,-9.455078e+000
1.229305e+003,-8.856430e+000
1.230269e+003,-8.234634e+000
1.231233e+003,-7.699493e+000
1.232198e+003,-7.527924e+000
1.233162e+003,-7.781509e+000
1.234126e+003,-7.578323e+000
1.235090e+003,-5.569717e+000
1.236055e+003,-3.668472e+000
1.237019e+003,-4.542664e+000
1.237983e+003,-7.170425e+000
1.238947e+003,-8.403458e+000
1.239911e+003,-6.901382e+000
1.240876e+003,-4.819916e+000
1.241840e+003,-5.654648e+000
1.242804e+003,-9.663177e+000
1.243768e+003,-1.169887e+001
1.244733e+003,-9.683075e+000
1.245697e+003,-8.335709e+000
1.246661e+003,-8.620132e+000
1.247625e+003,-9.325363e+000
1.248590e+003,-9.669052e+000
1.249554e+003,-9.466797e+000
1.250518e+003,-8.626312e+000
1.251482e+003,-7.101929e+000
1.252447e+003,-5.624069e+000
1.253411e+003,-5.035385e+000
1.254375e+003,-4.987167e+000
1.255339e+003,-4.779755e+000
1.256303e+003,-4.351242e+000
1.257268e+003,-4.119141e+000
1.258232e+003,-4.475662e+000
1.259196e+003,-5.211014e+000
1.260160e+003,-5.877411e+000
1.261125e+003,-6.494720e+000
1.262089e+003,-6.267197e+000
1.263053e+003,-4.289490e+000
1.264017e+003,-2.677216e+000
1.264982e+003,-2.146851e+000
1.265946e+003,-1.949585e+000
1.266910e+003,-1.121902e+000
1.267874e+003,1.379242e-001
1.268839e+003,6.385040e-001
1.269803e+003,-4.185944e-001
1.270767e+003,-2.177429e+000
1.271731e+003,-2.941467e+000
1.272695e+003,-2.689499e+000
1.273660e+003,-2.793427e+000
1.274624e+003,-3.494278e+000
1.275588e+003,-4.451416e+000
1.276552e+003,-5.735107e+000
1.277517e+003,-6.868790e+000
1.278481e+003,-6.929184e+000
1.279445e+003,-5.821365e+000
1.280409e+003,-4.788574e+000
1.281374e+003,-3.869049e+000
1.282338e+003,-3.613602e+000
1.283302e+003,-5.015640e+000
1.284266e+003,-6.761642e+000
1.285230e+003,-6.904099e+000
1.286195e+003,-5.617905e+000
1.287159e+003,-5.232376e+000
1.288123e+003,-7.631882e+000
1.289087e+003,-1.138824e+001
1.290052e+003,-1.224132e+001
1.291016e+003,-9.080154e+000
1.291980e+003,-7.198685e+000
1.292944e+003,-7.181793e+000
1.293909e+003,-7.726730e+000
1.294873e+003,-8.924316e+000
1.295837e+003,-9.915192e+000
1.296801e+003,-8.939651e+000
1.297766e+003,-6.049805e+000
1.298730e+003,-4.657867e+000
1.299694e+003,-7.344788e+000
1.300658e+003,-1.088893e+001
1.301622e+003,-1.176201e+001
1.302587e+003,-1.096207e+001
1.303551e+003,-9.783813e+000
1.304515e+003,-8.509949e+000
1.305479e+003,-7.298981e+000
1.306444e+003,-6.263184e+000
1.307408e+003,-5.568558e+000
1.308372e+003,-5.764725e+000
1.309336e+003,-7.312836e+000
1.310301e+003,-8.349274e+000
1.311265e+003,-8.209549e+000
1.312229e+003,-8.151733e+000
1.313193e+003,-9.086349e+000
1.314157e+003,-9.957047e+000
1.315122e+003,-9.047256e+000
1.316086e+003,-6.761459e+000
1.317050e+003,-5.678757e+000
1.318014e+003,-7.545105e+000
1.318979e+003,-1.057687e+001
1.319943e+003,-1.187393e+001
1.320907e+003,-1.140079e+001
1.321871e+003,-9.657623e+000
1.322836e+003,-6.188324e+000
1.323800e+003,-3.617462e+000
1.324764e+003,-3.643829e+000
1.325728e+003,-5.229782e+000
1.326693e+003,-7.101837e+000
1.327657e+003,-9.297134e+000
1.328621e+003,-1.005096e+001
1.329585e+003,-7.555801e+000
1.330549e+003,-5.230347e+000
1.331514e+003,-5.288071e+000
1.332478e+003,-6.380905e+000
1.333442e+003,-7.783844e+000
1.334406e+003,-8.838486e+000
1.335371e+003,-8.157898e+000
1.336335e+003,-5.014252e+000
1.337299e+003,-1.214020e+000
1.338263e+003,-2.825623e-001
1.339228e+003,-2.559036e+000
1.340192e+003,-4.512512e+000
1.341156e+003,-6.534531e+000
1.342120e+003,-7.718948e+000
1.343084e+003,-7.481171e+000
1.344049e+003,-6.939392e+000
1.345013e+003,-6.737289e+000
1.345977e+003,-6.902466e+000
1.346941e+003,-7.720505e+000
1.347906e+003,-9.405197e+000
1.348870e+003,-1.007007e+001
1.349834e+003,-6.891541e+000
1.350798e+003,-2.494614e+000
1.351763e+003,-2.219376e+000
1.352727e+003,-5.334717e+000
1.353691e+003,-7.518204e+000
1.354655e+003,-7.081619e+000
1.355620e+003,-5.631958e+000
1.356584e+003,-4.870987e+000
1.357548e+003,-4.719223e+000
1.358512e+003,-4.971115e+000
1.359476e+003,-6.412537e+000
1.360441e+003,-6.528671e+000
1.361405e+003,-2.622894e+000
1.362369e+003,6.085510e-001
1.363333e+003,4.230194e-001
1.364298e+003,-1.668167e+000
1.365262e+003,-3.617950e+000
1.366226e+003,-4.720200e+000
1.367190e+003,-5.106033e+000
1.368155e+003,-4.860947e+000
1.369119e+003,-4.431732e+000
1.370083e+003,-5.281097e+000
1.371047e+003,-7.892929e+000
1.372011e+003,-9.484879e+000
1.372976e+003,-9.853668e+000
1.373940e+003,-9.756760e+000
1.374904e+003,-9.425385e+000
1.375868e+003,-8.722565e+000
1.376833e+003,-7.135086e+000
1.377797e+003,-4.901581e+000
1.378761e+003,-3.609482e+000
1.379725e+003,-4.147400e+000
1.380690e+003,-5.000366e+000
1.381654e+003,-4.044373e+000
1.382618e+003,-2.686203e+000
1.383582e+003,-3.501633e+000
1.384547e+003,-6.197617e+000
1.385511e+003,-7.654449e+000
1.386475e+003,-6.124054e+000
1.387439e+003,-3.435608e+000
1.388403e+003,-2.224533e+000
1.389368e+003,-2.499817e+000
1.390332e+003,-3.334595e+000
1.391296e+003,-5.124985e+000
1.392260e+003,-6.483017e+000
1.393225e+003,-7.598160e+000
1.394189e+003,-7.802887e+000
1.395153e+003,-5.959930e+000
1.396117e+003,-3.265900e+000
1.397082e+003,-1.325729e+000
1.398046e+003,-6.568146e-001
1.399010e+003,-1.077515e+000
1.399974e+003,-2.552536e+000
1.400938e+003,-4.513077e+000
1.401903e+003,-4.723663e+000
1.402867e+003,-2.274536e+000
1.403831e+003,-7.549896e-001
1.404795e+003,-9.698486e-001
1.405760e+003,-1.235748e+000
1.406724e+003,-7.906799e-001
1.407688e+003,-5.766907e-001
1.408652e+003,-2.047913e+000
1.409617e+003,-4.688461e+000
1.410581e+003,-5.807114e+000
1.411545e+003,-4.097031e+000
1.412509e+003,-2.015152e+000
1.413474e+003,-2.406326e+000
1.414438e+003,-3.792664e+000
1.415402e+003,-3.276169e+000
1.416366e+003,-1.046524e+000
1.417330e+003,8.982391e-001
1.418295e+003,1.871597e+000
1.419259e+003,1.989029e+000
1.420223e+003,6.952362e-001
1.421187e+003,-1.640472e+000
1.422152e+003,-1.936081e+000
1.423116e+003,9.273376e-001
1.424080e+003,2.722748e+000
1.425044e+003,1.232224e+000
1.426009e+003,-6.478577e-001
1.426973e+003,-2.304718e+000
1.427937e+003,-3.360443e+000
1.428901e+003,-2.982590e+000
1.429865e+003,-1.484283e+000
1.430830e+003,-4.214172e-001
1.431794e+003,-8.529663e-001
1.432758e+003,-1.943176e+000
1.433722e+003,-1.854401e+000
1.434687e+003,-2.841644e-001
1.435651e+003,5.181427e-001
1.436615e+003,-1.491806e+000
1.437579e+003,-1.908157e+000
1.438544e+003,1.690475e+000
1.439508e+003,5.002289e+000
1.440472e+003,4.660461e+000
1.441436e+003,2.233047e+000
1.442401e+003,6.748505e-001
1.443365e+003,7.670441e-001
1.444329e+003,2.165222e+000
1.445293e+003,5.054382e+000
1.446257e+003,8.020920e+000
1.447222e+003,7.887192e+000
1.448186e+003,5.222824e+000
1.449150e+003,3.160828e+000
1.450114e+003,2.038223e+000
1.451079e+003,1.055954e+000
1.452043e+003,-8.881683e-001
1.453007e+003,-2.289444e+000
1.453971e+003,-1.803131e-001
1.454936e+003,4.732086e+000
1.455900e+003,7.057892e+000
1.456864e+003,5.024902e+000
1.457828e+003,2.869324e+000
1.458792e+003,3.343399e+000
1.459757e+003,4.258255e+000
1.460721e+003,3.766891e+000
1.461685e+003,2.361923e+000
1.462649e+003,1.250671e+000
1.463614e+003,7.723694e-001
1.464578e+003,2.136536e-001
1.465542e+003,-1.288498e+000
1.466506e+003,-3.016617e+000
1.467471e+003,-2.343140e+000
1.468435e+003,1.659470e+000
1.469399e+003,3.986984e+000
1.470363e+003,2.783142e+000
1.471328e+003,1.864716e+000
1.472292e+003,1.742554e+000
1.473256e+003,2.270370e+000
1.474220e+003,4.314789e+000
1.475184e+003,6.820526e+000
1.476149e+003,7.627670e+000
1.477113e+003,6.152023e+000
1.478077e+003,3.899826e+000
1.479041e+003,2.373779e+000
1.480006e+003,1.715714e+000
1.480970e+003,2.291901e+000
1.481934e+003,4.436218e+000
1.482898e+003,5.933777e+000
1.483863e+003,6.630692e+000
1.484827e+003,6.922318e+000
1.485791e+003,6.570816e+000
1.486755e+003,6.323151e+000
1.487719e+003,6.873383e+000
1.488684e+003,7.988297e+000
1.489648e+003,9.143936e+000
1.490612e+003,1.020070e+001
1.491576e+003,1.085144e+001
1.492541e+003,1.055290e+001
1.493505e+003,1.005608e+001
1.494469e+003,1.151138e+001
1.495433e+003,1.437494e+001
1.496398e+003,1.569577e+001
1.497362e+003,1.461621e+001
1.498326e+003,1.421974e+001
1.499290e+003,1.684161e+001
1.500255e+003,2.047882e+001
1.501219e+003,2.195937e+001
1.502183e+003,2.174365e+001
1.503147e+003,2.322646e+001
1.504111e+003,2.742084e+001
1.505076e+003,3.191727e+001
1.506040e+003,3.536053e+001
1.507004e+003,3.850233e+001
1.507968e+003,4.205414e+001
1.508933e+003,4.591733e+001
1.509897e+003,4.982573e+001
1.510861e+003,5.390569e+001
1.511825e+003,5.858652e+001
1.512790e+003,6.391864e+001
1.513754e+003,7.009604e+001
1.514718e+003,7.803012e+001
1.515682e+003,8.759941e+001
1.516646e+003,9.628569e+001
1.517611e+003,1.038321e+002
1.518575e+003,1.109591e+002
1.519539e+003,1.185014e+002
1.520503e+003,1.252693e+002
1.521468e+003,1.313916e+002
1.522432e+003,1.358392e+002
1.523396e+003,1.365538e+002
1.524360e+003,1.339869e+002
1.525325e+003,1.315058e+002
1.526289e+003,1.313757e+002
1.527253e+003,1.314374e+002
1.528217e+003,1.276537e+002
1.529182e+003,1.200715e+002
1.530146e+003,1.122048e+002
1.531110e+003,1.036881e+002
1.532074e+003,9.534166e+001
1.533039e+003,8.770259e+001
1.534003e+003,7.917184e+001
1.534967e+003,6.817288e+001
1.535931e+003,5.696619e+001
1.536896e+003,4.820866e+001
1.537860e+003,4.180556e+001
1.538824e+003,3.572487e+001
1.539788e+003,2.889885e+001
1.540752e+003,2.234238e+001
1.541717e+003,1.735545e+001
1.542681e+003,1.403580e+001
1.543645e+003,1.255223e+001
1.544609e+003,1.421500e+001
1.545573e+003,1.466678e+001
1.546538e+003,1.252344e+001
1.547502e+003,1.071753e+001
1.548466e+003,1.067616e+001
1.549430e+003,1.144667e+001
1.550395e+003,1.221304e+001
1.551359e+003,1.270639e+001
1.552323e+003,1.256522e+001
1.553287e+003,1.174765e+001
1.554252e+003,1.119315e+001
1.555216e+003,1.181255e+001
1.556180e+003,1.295206e+001
1.557144e+003,1.304071e+001
1.558109e+003,1.207358e+001
1.559073e+003,1.148775e+001
1.560037e+003,1.170081e+001
1.561001e+003,1.110857e+001
1.561966e+003,8.356934e+000
1.562930e+003,5.645782e+000
1.563894e+003,5.185532e+000
1.564858e+003,6.199112e+000
1.565823e+003,6.711151e+000
1.566787e+003,6.330109e+000
1.567751e+003,5.858643e+000
1.568715e+003,5.782654e+000
1.569679e+003,5.814529e+000
1.570644e+003,5.390854e+000
1.571608e+003,4.735565e+000
1.572572e+003,4.765594e+000
1.573536e+003,5.591049e+000
1.574500e+003,6.367599e+000
1.575465e+003,6.713379e+000
1.576429e+003,7.013779e+000
1.577393e+003,7.669998e+000
1.578357e+003,8.381790e+000
1.579322e+003,8.512711e+000
1.580286e+003,8.116379e+000
1.581250e+003,8.038406e+000
1.582214e+003,8.589081e+000
1.583179e+003,9.276306e+000
1.584143e+003,9.581085e+000
1.585107e+003,9.870560e+000
1.586071e+003,1.127821e+001
1.587036e+003,1.328032e+001
1.588000e+003,1.359674e+001
1.588964e+003,1.155800e+001
1.589928e+003,9.485657e+000
1.590893e+003,8.794128e+000
1.591857e+003,9.083786e+000
1.592821e+003,1.031215e+001
1.593785e+003,1.215106e+001
1.594750e+003,1.222240e+001
1.595714e+003,9.788849e+000
1.596678e+003,8.219925e+000
1.597642e+003,9.254562e+000
1.598606e+003,1.102293e+001
1.599571e+003,1.212564e+001
1.600535e+003,1.302420e+001
1.601499e+003,1.467500e+001
1.602463e+003,1.675659e+001
1.603427e+003,1.736583e+001
1.604392e+003,1.557320e+001
1.605356e+003,1.350175e+001
1.606320e+003,1.353633e+001
1.607284e+003,1.488690e+001
1.608249e+003,1.526799e+001
1.609213e+003,1.465067e+001
1.610177e+003,1.379010e+001
1.611141e+003,1.247891e+001
1.612106e+003,1.177028e+001
1.613070e+003,1.305849e+001
1.614034e+003,1.429924e+001
1.614998e+003,1.356339e+001
1.615963e+003,1.194421e+001
1.616927e+003,1.150479e+001
1.617891e+003,1.239630e+001
1.618855e+003,1.295950e+001
1.619820e+003,1.206805e+001
1.620784e+003,1.081383e+001
1.621748e+003,1.121593e+001
1.622712e+003,1.302834e+001
1.623677e+003,1.370581e+001
1.624641e+003,1.305890e+001
1.625605e+003,1.230347e+001
1.626569e+003,1.095728e+001
1.627533e+003,1.025708e+001
1.628498e+003,1.161183e+001
1.629462e+003,1.334973e+001
1.630426e+003,1.402751e+001
1.631390e+003,1.390181e+001
1.632354e+003,1.369032e+001
1.633319e+003,1.361696e+001
1.634283e+003,1.377501e+001
1.635247e+003,1.429300e+001
1.636211e+003,1.482845e+001
1.637176e+003,1.479839e+001
1.638140e+003,1.427878e+001
1.639104e+003,1.354239e+001
1.640068e+003,1.220763e+001
1.641033e+003,1.203833e+001
1.641997e+003,1.491025e+001
1.642961e+003,1.707645e+001
1.643925e+003,1.628778e+001
1.644890e+003,1.429301e+001
1.645854e+003,1.235155e+001
1.646818e+003,1.075702e+001
1.647782e+003,9.708603e+000
1.648747e+003,9.259766e+000
1.649711e+003,9.435974e+000
1.650675e+003,1.042982e+001
1.651639e+003,1.187375e+001
1.652604e+003,1.291376e+001
1.653568e+003,1.350496e+001
1.654532e+003,1.379620e+001
1.655496e+003,1.362192e+001
1.656460e+003,1.380766e+001
1.657425e+003,1.540230e+001
1.658389e+003,1.636737e+001
1.659353e+003,1.519098e+001
1.660317e+003,1.318755e+001
1.661281e+003,1.165279e+001
1.662246e+003,1.054755e+001
1.663210e+003,9.078979e+000
1.664174e+003,7.085999e+000
1.665138e+003,6.225723e+000
1.666103e+003,8.307663e+000
1.667067e+003,1.160461e+001
1.668031e+003,1.266586e+001
1.668995e+003,1.164276e+001
1.669960e+003,1.026947e+001
1.670924e+003,8.408585e+000
1.671888e+003,7.459442e+000
1.672852e+003,8.363510e+000
1.673817e+003,9.437668e+000
1.674781e+003,9.601807e+000
1.675745e+003,9.361588e+000
1.676709e+003,9.170273e+000
1.677674e+003,9.070435e+000
1.678638e+003,9.131805e+000
1.679602e+003,9.371094e+000
1.680566e+003,9.215683e+000
1.681531e+003,7.999969e+000
1.682495e+003,6.559967e+000
1.683459e+003,6.196518e+000
1.684423e+003,6.756836e+000
1.685387e+003,7.915207e+000
1.686352e+003,9.887604e+000
1.687316e+003,1.067966e+001
1.688280e+003,9.224319e+000
1.689244e+003,7.252121e+000
1.690208e+003,5.627991e+000
1.691173e+003,4.397018e+000
1.692137e+003,3.467377e+000
1.693101e+003,3.106201e+000
1.694065e+003,4.251801e+000
1.695030e+003,7.120880e+000
1.695994e+003,9.460037e+000
1.696958e+003,9.967850e+000
1.697922e+003,9.232666e+000
1.698887e+003,7.454758e+000
1.699851e+003,5.147263e+000
1.700815e+003,4.040070e+000
1.701779e+003,4.195786e+000
1.702744e+003,3.439438e+000
1.703708e+003,7.154541e-001
1.704672e+003,-9.996948e-001
1.705636e+003,1.275696e+000
1.706601e+003,4.642883e+000
1.707565e+003,4.367935e+000
1.708529e+003,1.788742e+000
1.709493e+003,1.176895e+000
1.710458e+003,3.265808e+000
1.711422e+003,4.788895e+000
1.712386e+003,3.785461e+000
1.713350e+003,2.654938e+000
1.714314e+003,3.455658e+000
1.715279e+003,5.125885e+000
1.716243e+003,6.156143e+000
1.717207e+003,6.437653e+000
1.718171e+003,6.012131e+000
1.719135e+003,4.915970e+000
1.720100e+003,4.147583e+000
1.721064e+003,4.455856e+000
1.722028e+003,5.037842e+000
1.722992e+003,4.871155e+000
1.723957e+003,4.124924e+000
1.724921e+003,3.054932e+000
1.725885e+003,1.274551e+000
1.726849e+003,4.753571e-001
1.727814e+003,1.984787e+000
1.728778e+003,3.427795e+000
1.729742e+003,3.727905e+000
1.730706e+003,3.494110e+000
1.731671e+003,3.173981e+000
1.732635e+003,2.673950e+000
1.733599e+003,1.748657e+000
1.734563e+003,5.741577e-001
1.735528e+003,-1.316528e-001
1.736492e+003,-4.080200e-002
1.737456e+003,2.253723e-001
1.738420e+003,-7.882690e-002
1.739385e+003,-8.421936e-001
1.740349e+003,-1.420151e+000
1.741313e+003,-1.862335e+000
1.742277e+003,-1.485275e+000
1.743241e+003,6.864471e-001
1.744206e+003,2.249603e+000
1.745170e+003,2.861328e+000
1.746134e+003,2.742386e+000
1.747098e+003,1.359528e+000
1.748063e+003,-2.123871e-001
1.749027e+003,-5.689697e-001
1.749991e+003,-2.207947e-002
1.750955e+003,-4.901123e-002
1.751919e+003,-1.010529e+000
1.752884e+003,-1.510406e+000
1.753848e+003,-3.786469e-001
1.754812e+003,1.583969e+000
1.755776e+003,2.932800e+000
1.756741e+003,3.740005e+000
1.757705e+003,3.372223e+000
1.758669e+003,9.268341e-001
1.759633e+003,-2.473145e-001
1.760598e+003,1.156738e+000
1.761562e+003,2.330429e+000
1.762526e+003,2.711868e+000
1.763490e+003,2.496979e+000
1.764455e+003,1.104401e+000
1.765419e+003,-3.878021e-001
1.766383e+003,-8.535767e-002
1.767347e+003,1.786758e+000
1.768312e+003,3.136017e+000
1.769276e+003,2.951782e+000
1.770240e+003,1.972549e+000
1.771204e+003,7.834320e-001
1.772168e+003,-1.986389e-001
1.773133e+003,1.742859e-001
1.774097e+003,1.660172e+000
1.775061e+003,1.475616e+000
1.776025e+003,-1.113632e+000
1.776990e+003,-2.479248e+000
1.777954e+003,-7.797699e-001
1.778918e+003,1.311005e+000
1.779882e+003,2.083588e+000
1.780846e+003,1.803421e+000
1.781811e+003,4.653168e-001
1.782775e+003,-1.428940e+000
1.783739e+003,-2.211044e+000
1.784703e+003,-1.539993e+000
1.785668e+003,-6.780090e-001
1.786632e+003,3.607178e-002
1.787596e+003,3.155518e-001
1.788560e+003,-1.686096e-001
1.789525e+003,-8.825684e-001
1.790489e+003,-1.302170e+000
1.791453e+003,-1.432159e+000
1.792417e+003,-1.407959e+000
1.793382e+003,-1.206284e+000
1.794346e+003,-2.041321e-001
1.795310e+003,2.025116e+000
1.796274e+003,3.825729e+000
1.797239e+003,3.242157e+000
1.798203e+003,1.113449e+000
1.799167e+003,-3.855591e-001
1.800131e+003,-1.583847e+000
1.801095e+003,-1.237045e+000
1.802060e+003,2.713974e+000
1.803024e+003,5.127136e+000
1.803988e+003,4.453339e+000
1.804952e+003,3.320251e+000
1.805917e+003,2.692841e+000
1.806881e+003,2.430206e+000
1.807845e+003,2.500687e+000
1.808809e+003,2.737289e+000
1.809773e+003,2.840149e+000
1.810738e+003,2.759705e+000
1.811702e+003,2.774063e+000
1.812666e+003,3.034943e+000
1.813630e+003,3.092758e+000
1.814595e+003,2.283234e+000
1.815559e+003,8.202667e-001
1.816523e+003,-4.303284e-001
1.817487e+003,-1.501160e+000
1.818452e+003,-1.553864e+000
1.819416e+003,3.619385e-002
1.820380e+003,1.188232e+000
1.821344e+003,1.128799e+000
1.822309e+003,6.120758e-001
1.823273e+003,-3.788452e-001
1.824237e+003,-1.098480e+000
1.825201e+003,-6.535950e-001
1.826166e+003,5.938263e-001
1.827130e+003,1.957962e+000
1.828094e+003,3.235245e+000
1.829058e+003,3.285568e+000
1.830022e+003,9.257050e-001
1.830987e+003,-1.283554e+000
1.831951e+003,-8.476105e-001
1.832915e+003,7.547760e-001
1.833879e+003,1.370300e+000
1.834844e+003,1.255783e+000
1.835808e+003,1.707748e+000
1.836772e+003,2.818771e+000
1.837736e+003,3.113861e+000
1.838700e+003,1.864929e+000
1.839665e+003,7.796936e-001
1.840629e+003,1.643524e+000
1.841593e+003,3.198654e+000
1.842557e+003,2.522263e+000
1.843522e+003,-3.437195e-001
1.844486e+003,-1.749298e+000
1.845450e+003,-1.084534e+000
1.846414e+003,1.780090e-001
1.847379e+003,3.000580e+000
1.848343e+003,4.771133e+000
1.849307e+003,3.965729e+000
1.850271e+003,2.758865e+000
1.851236e+003,3.080124e+000
1.852200e+003,3.867249e+000
1.853164e+003,3.220139e+000
1.854128e+003,1.247620e+000
1.855093e+003,-6.143341e-001
1.856057e+003,-1.705750e+000
1.857021e+003,-2.362732e+000
1.857985e+003,-2.948303e+000
1.858949e+003,-3.188446e+000
1.859914e+003,-2.275818e+000
1.860878e+003,-4.913788e-001
1.861842e+003,2.906494e-001
1.862806e+003,-2.197266e-003
1.863771e+003,1.978912e-001
1.864735e+003,1.352371e+000
1.865699e+003,1.774338e+000
1.866663e+003,2.860718e-001
1.867627e+003,-1.120361e+000
1.868592e+003,-4.107971e-001
1.869556e+003,1.193481e+000
1.870520e+003,1.506592e+000
1.871484e+003,6.980591e-001
1.872449e+003,-1.685333e-001
1.873413e+003,-1.009674e+000
1.874377e+003,-8.240967e-001
1.875341e+003,1.616302e+000
1.876306e+003,3.488129e+000
1.877270e+003,2.394379e+000
1.878234e+003,7.701569e-001
1.879198e+003,1.296173e+000
1.880163e+003,3.126877e+000
1.881127e+003,4.592834e+000
1.882091e+003,5.335770e+000
1.883055e+003,5.633438e+000
1.884020e+003,5.575165e+000
1.884984e+003,4.702026e+000
1.885948e+003,2.539978e+000
1.886912e+003,1.211700e-001
1.887876e+003,-4.914551e-001
1.888841e+003,6.326599e-001
1.889805e+003,2.870667e+000
1.890769e+003,6.746521e+000
1.891733e+003,8.837509e+000
1.892698e+003,8.263947e+000
1.893662e+003,7.046280e+000
1.894626e+003,5.413773e+000
1.895590e+003,3.986343e+000
1.896554e+003,3.086380e+000
1.897519e+003,2.782379e+000
1.898483e+003,3.379013e+000
1.899447e+003,4.506943e+000
1.900411e+003,5.128128e+000
1.901376e+003,5.065964e+000
1.902340e+003,5.295181e+000
1.903304e+003,6.792542e+000
1.904268e+003,7.671326e+000
1.905233e+003,5.916580e+000
1.906197e+003,3.879089e+000
1.907161e+003,4.549438e+000
1.908125e+003,6.476227e+000
1.909090e+003,6.569763e+000
1.910054e+003,4.903900e+000
1.911018e+003,3.622650e+000
1.911982e+003,3.513824e+000
1.912947e+003,3.897507e+000
1.913911e+003,4.246353e+000
1.914875e+003,4.614670e+000
1.915839e+003,5.003677e+000
1.916803e+003,5.472443e+000
1.917768e+003,7.004395e+000
1.918732e+003,1.015453e+001
1.919696e+003,1.096735e+001
1.920660e+003,8.356659e+000
1.921625e+003,6.552048e+000
1.922589e+003,6.892426e+000
1.923553e+003,7.352264e+000
1.924517e+003,7.091354e+000
1.925481e+003,6.322174e+000
1.926446e+003,4.718704e+000
1.927410e+003,2.942566e+000
1.928374e+003,2.293106e+000
1.929338e+003,2.757568e+000
1.930303e+003,3.398331e+000
1.931267e+003,4.140366e+000
1.932231e+003,4.991547e+000
1.933195e+003,6.561844e+000
1.934160e+003,7.340149e+000
1.935124e+003,5.260086e+000
1.936088e+003,2.494003e+000
1.937052e+003,1.739853e+000
1.938017e+003,2.635696e+000
1.938981e+003,4.034882e+000
1.939945e+003,5.453323e+000
1.940909e+003,6.533997e+000
1.941874e+003,7.073486e+000
1.942838e+003,6.932068e+000
1.943802e+003,6.007019e+000
1.944766e+003,4.897354e+000
1.945730e+003,4.569412e+000
1.946695e+003,4.938705e+000
1.947659e+003,6.004501e+000
1.948623e+003,7.859818e+000
1.949587e+003,9.053131e+000
1.950552e+003,9.317657e+000
1.951516e+003,9.666595e+000
1.952480e+003,1.075694e+001
1.953444e+003,1.126920e+001
1.954408e+003,9.741638e+000
1.955373e+003,7.552475e+000
1.956337e+003,6.851868e+000
1.957301e+003,7.295074e+000
1.958265e+003,7.255997e+000
1.959230e+003,6.618942e+000
1.960194e+003,6.322296e+000
1.961158e+003,6.004318e+000
1.962122e+003,6.480591e+000
1.963087e+003,8.933685e+000
1.964051e+003,1.109819e+001
1.965015e+003,1.168797e+001
1.965979e+003,1.152734e+001
1.966944e+003,1.130893e+001
1.967908e+003,1.095708e+001
1.968872e+003,9.968918e+000
1.969836e+003,8.577728e+000
1.970801e+003,7.844543e+000
1.971765e+003,8.198441e+000
1.972729e+003,8.961395e+000
1.973693e+003,9.680313e+000
1.974657e+003,1.010580e+001
1.975622e+003,9.367386e+000
1.976586e+003,8.153671e+000
1.977550e+003,8.801544e+000
1.978514e+003,1.095346e+001
1.979479e+003,1.215279e+001
1.980443e+003,1.204198e+001
1.981407e+003,1.169934e+001
1.982371e+003,1.157480e+001
1.983335e+003,1.077856e+001
1.984300e+003,8.344818e+000
1.985264e+003,6.111099e+000
1.986228e+003,7.301849e+000
1.987192e+003,1.087375e+001
1.988157e+003,1.121861e+001
1.989121e+003,7.330017e+000
1.990085e+003,5.647293e+000
1.991049e+003,7.403992e+000
1.992014e+003,8.970886e+000
1.992978e+003,9.449738e+000
1.993942e+003,1.023630e+001
1.994906e+003,1.276186e+001
1.995871e+003,1.479431e+001
1.996835e+003,1.392090e+001
1.997799e+003,1.203151e+001
1.998763e+003,1.235252e+001
1.999728e+003,1.430016e+001
