5.003444e+002,3.664452e+001
5.013087e+002,3.440102e+001
5.022729e+002,3.434055e+001
5.032371e+002,3.594705e+001
5.042014e+002,3.681834e+001
5.051656e+002,3.703789e+001
5.061298e+002,3.653691e+001
5.070941e+002,3.507755e+001
5.080583e+002,3.218289e+001
5.090225e+002,3.077428e+001
5.099868e+002,3.127933e+001
5.109510e+002,3.225713e+001
5.119152e+002,3.322792e+001
5.128795e+002,3.420135e+001
5.138437e+002,3.465527e+001
5.148079e+002,3.357428e+001
5.157722e+002,3.277110e+001
5.167364e+002,3.362688e+001
5.177006e+002,3.581244e+001
5.186649e+002,3.724881e+001
5.196291e+002,3.452374e+001
5.205933e+002,3.042542e+001
5.215576e+002,2.784943e+001
5.225218e+002,2.701152e+001
5.234860e+002,2.708539e+001
5.244503e+002,2.672459e+001
5.254145e+002,2.593347e+001
5.263787e+002,2.529834e+001
5.273430e+002,2.480397e+001
5.283072e+002,2.447086e+001
5.292714e+002,2.425940e+001
5.302357e+002,2.390611e+001
5.311999e+002,2.391530e+001
5.321641e+002,2.490298e+001
5.331284e+002,2.608319e+001
5.340926e+002,2.679767e+001
5.350568e+002,2.672791e+001
5.360211e+002,2.620609e+001
5.369853e+002,2.563860e+001
5.379495e+002,2.504012e+001
5.389138e+002,2.424818e+001
5.398780e+002,2.323314e+001
5.408422e+002,2.220747e+001
5.418065e+002,2.197690e+001
5.427707e+002,2.239923e+001
5.437349e+002,2.240880e+001
5.446992e+002,2.157933e+001
5.456634e+002,2.020537e+001
5.466276e+002,1.938506e+001
5.475919e+002,2.020758e+001
5.485561e+002,2.031389e+001
5.495203e+002,1.860989e+001
5.504846e+002,1.637239e+001
5.514488e+002,1.565541e+001
5.524130e+002,1.796823e+001
5.533773e+002,2.028969e+001
5.543415e+002,2.115610e+001
5.553057e+002,2.117587e+001
5.562700e+002,2.100911e+001
5.572342e+002,2.103551e+001
5.581984e+002,2.077397e+001
5.591627e+002,1.843086e+001
5.601269e+002,1.505524e+001
5.610911e+002,1.303162e+001
5.620554e+002,1.369368e+001
5.630196e+002,1.648836e+001
5.639838e+002,1.675760e+001
5.649481e+002,1.173819e+001
5.659123e+002,8.233139e+000
5.668765e+002,8.309113e+000
5.678408e+002,1.089920e+001
5.688050e+002,1.279335e+001
5.697692e+002,1.275391e+001
5.707335e+002,1.212109e+001
5.716977e+002,1.071489e+001
5.726619e+002,9.296310e+000
5.736262e+002,9.029510e+000
5.745904e+002,1.096352e+001
5.755546e+002,1.333775e+001
5.765189e+002,1.305406e+001
5.774831e+002,1.106958e+001
5.784473e+002,9.028458e+000
5.794116e+002,8.107147e+000
5.803758e+002,8.329895e+000
5.813400e+002,9.201782e+000
5.823043e+002,1.100674e+001
5.832685e+002,1.210602e+001
5.842327e+002,1.160918e+001
5.851970e+002,9.901855e+000
5.861612e+002,8.994141e+000
5.871254e+002,9.661560e+000
5.880897e+002,1.048050e+001
5.890539e+002,1.166669e+001
5.900181e+002,1.266544e+001
5.909824e+002,1.257161e+001
5.919466e+002,1.048346e+001
5.929108e+002,7.968216e+000
5.938751e+002,6.351486e+000
5.948393e+002,5.573380e+000
5.958035e+002,5.863800e+000
5.967678e+002,7.367508e+000
5.977320e+002,9.772949e+000
5.986962e+002,9.828506e+000
5.996605e+002,7.366745e+000
6.006247e+002,5.295731e+000
6.015889e+002,5.347412e+000
6.025532e+002,7.331909e+000
6.035174e+002,8.169266e+000
6.044816e+002,6.482971e+000
6.054459e+002,5.077698e+000
6.064101e+002,4.072540e+000
6.073743e+002,3.648285e+000
6.083386e+002,4.281387e+000
6.093028e+002,7.039246e+000
6.102670e+002,9.249954e+000
6.112313e+002,8.638626e+000
6.121955e+002,6.435745e+000
6.131597e+002,4.117569e+000
6.141240e+002,2.707016e+000
6.150882e+002,2.035782e+000
6.160524e+002,1.382614e+000
6.170167e+002,8.049316e-001
6.179809e+002,8.647919e-001
6.189451e+002,1.968918e+000
6.199094e+002,3.870255e+000
6.208736e+002,5.083786e+000
6.218378e+002,5.035889e+000
6.228021e+002,5.152191e+000
6.237663e+002,6.024185e+000
6.247305e+002,7.052841e+000
6.256948e+002,7.081360e+000
6.266590e+002,5.103683e+000
6.276232e+002,3.045547e+000
6.285875e+002,1.845779e+000
6.295517e+002,1.474777e+000
6.305159e+002,2.130447e+000
6.314802e+002,3.809616e+000
6.324444e+002,5.875031e+000
6.334086e+002,6.655060e+000
6.343729e+002,6.595825e+000
6.353371e+002,6.371384e+000
6.363013e+002,6.123596e+000
6.372656e+002,5.893082e+000
6.382298e+002,5.953659e+000
6.391940e+002,7.307785e+000
6.401583e+002,7.411194e+000
6.411225e+002,5.619904e+000
6.420867e+002,3.142776e+000
6.430510e+002,1.088226e+000
6.440152e+002,-5.972290e-001
6.449794e+002,-1.039642e+000
6.459437e+002,1.713715e+000
6.469079e+002,4.609726e+000
6.478721e+002,4.772995e+000
6.488364e+002,1.528381e+000
6.498006e+002,-2.654388e+000
6.507648e+002,-3.181641e+000
6.517291e+002,-1.332794e+000
6.526933e+002,7.110596e-003
6.536575e+002,2.951202e-001
6.546218e+002,-9.600830e-002
6.555860e+002,-4.549866e-001
6.565502e+002,-7.867279e-001
6.575145e+002,-1.102783e+000
6.584787e+002,-1.918991e+000
6.594429e+002,-2.317230e+000
6.604072e+002,-1.080063e+000
6.613714e+002,2.228485e+000
6.623356e+002,4.456131e+000
6.632999e+002,3.160339e+000
6.642641e+002,1.095718e+000
6.652283e+002,-6.663208e-001
6.661926e+002,-1.716049e+000
6.671568e+002,-2.039841e+000
6.681210e+002,-1.521027e+000
6.690853e+002,-3.970642e-001
6.700495e+002,1.051529e+000
6.710137e+002,2.725235e+000
6.719780e+002,3.573257e+000
6.729422e+002,2.281891e+000
6.739064e+002,-1.864365e+000
6.748707e+002,-3.995697e+000
6.758349e+002,-3.383240e+000
6.767991e+002,-2.312286e+000
6.777634e+002,-1.472168e+000
6.787276e+002,-8.094788e-001
6.796918e+002,-1.055603e-001
6.806561e+002,1.267044e+000
6.816203e+002,1.744797e+000
6.825845e+002,-2.031403e-001
6.835488e+002,-3.254120e+000
6.845130e+002,-5.315384e+000
6.854772e+002,-4.795029e+000
6.864415e+002,-2.417725e+000
6.874057e+002,7.102814e-001
6.883699e+002,3.929443e+000
6.893342e+002,5.304428e+000
6.902984e+002,3.586609e+000
6.912626e+002,-5.051575e-001
6.922269e+002,-2.223511e+000
6.931911e+002,1.494431e+000
6.941553e+002,3.733643e+000
6.951196e+002,2.536774e+000
6.960838e+002,-1.441803e-001
6.970480e+002,-7.641144e-001
6.980123e+002,2.770096e+000
6.989765e+002,4.933853e+000
6.999407e+002,2.356934e+000
7.009050e+002,-1.440552e+000
7.018692e+002,-3.719345e+000
7.028334e+002,-3.567154e+000
7.037977e+002,-2.302933e+000
7.047619e+002,-1.678635e+000
7.057261e+002,-1.435104e+000
7.066904e+002,-1.433304e+000
7.076546e+002,-1.657715e+000
7.086188e+002,-1.528824e+000
7.095831e+002,-1.742554e-002
7.105473e+002,3.684906e+000
7.115115e+002,5.925049e+000
7.124758e+002,6.687836e+000
7.134400e+002,6.322739e+000
7.144042e+002,4.467545e+000
7.153685e+002,1.277344e+000
7.163327e+002,-1.030304e+000
7.172969e+002,-6.661072e-001
7.182612e+002,1.896515e-001
7.192254e+002,9.054260e-001
7.201896e+002,1.343445e+000
7.211539e+002,1.458694e+000
7.221181e+002,1.157532e+000
7.230823e+002,7.955475e-001
7.240466e+002,1.725510e+000
7.250108e+002,3.636322e+000
7.259750e+002,4.677643e+000
7.269393e+002,3.488647e+000
7.279035e+002,3.440857e-001
7.288677e+002,-1.468323e+000
7.298320e+002,-1.245422e-001
7.307962e+002,7.955933e-001
7.317604e+002,9.907227e-001
7.327247e+002,6.965027e-001
7.336889e+002,-5.340576e-002
7.346531e+002,-1.746078e+000
7.356174e+002,-2.873779e+000
7.365816e+002,-1.760406e+000
7.375458e+002,-8.033752e-002
7.385101e+002,7.780609e-001
7.394743e+002,5.359650e-001
7.404385e+002,1.520538e-001
7.414028e+002,1.371368e+000
7.423670e+002,3.278595e+000
7.433312e+002,2.465439e+000
7.442955e+002,-1.434494e+000
7.452597e+002,-5.220795e+000
7.462239e+002,-4.860718e+000
7.471882e+002,1.277023e+000
7.481524e+002,4.161621e+000
7.491166e+002,1.571793e+000
7.500809e+002,-1.402863e+000
7.510451e+002,-3.421524e+000
7.520093e+002,-4.289078e+000
7.529736e+002,-3.866364e+000
7.539378e+002,-9.558411e-001
7.549020e+002,1.838074e+000
7.558663e+002,2.865326e+000
7.568306e+002,2.741745e+000
7.577948e+002,2.078491e+000
7.587590e+002,1.276276e+000
7.597233e+002,5.344696e-001
7.606875e+002,9.452209e-001
7.616517e+002,2.424927e+000
7.626160e+002,3.703369e+000
7.635802e+002,4.581024e+000
7.645444e+002,5.018982e+000
7.655087e+002,4.831619e+000
7.664729e+002,3.639954e+000
7.674371e+002,2.525742e+000
7.684014e+002,1.295593e+000
7.693656e+002,3.489227e-001
7.703298e+002,1.780396e-001
7.712941e+002,7.429199e-001
7.722583e+002,1.120392e+000
7.732225e+002,1.389008e-001
7.741868e+002,-8.108215e-001
7.751510e+002,-3.423767e-001
7.761152e+002,1.125305e+000
7.770795e+002,2.417221e+000
7.780437e+002,2.477692e+000
7.790079e+002,1.444336e+000
7.799722e+002,6.393738e-001
7.809364e+002,-3.105164e-002
7.819006e+002,-2.960510e-001
7.828649e+002,2.171936e-001
7.838291e+002,1.338318e+000
7.847933e+002,2.362411e+000
7.857576e+002,3.369797e+000
7.867218e+002,3.662140e+000
7.876860e+002,2.249893e+000
7.886503e+002,1.001663e+000
7.896145e+002,2.099564e+000
7.905787e+002,5.861725e+000
7.915430e+002,9.254639e+000
7.925072e+002,8.187057e+000
7.934714e+002,5.155518e+000
7.944357e+002,2.518860e+000
7.953999e+002,7.727203e-001
7.963641e+002,9.666443e-002
7.973284e+002,7.212524e-001
7.982926e+002,2.779541e+000
7.992568e+002,3.489426e+000
8.002211e+002,1.852692e+000
8.011853e+002,4.369507e-001
8.021495e+002,7.055969e-001
8.031138e+002,2.297470e+000
8.040780e+002,3.364929e+000
8.050422e+002,3.067108e+000
8.060065e+002,2.687546e+000
8.069707e+002,2.133118e+000
8.079349e+002,1.869507e+000
8.088992e+002,2.726578e+000
8.098634e+002,4.881119e+000
8.108276e+002,7.148392e+000
8.117919e+002,7.616013e+000
8.127561e+002,6.688843e+000
8.137203e+002,5.298447e+000
8.146846e+002,3.711731e+000
8.156488e+002,2.635132e+000
8.166130e+002,2.978973e+000
8.175773e+002,5.113312e+000
8.185415e+002,6.223419e+000
8.195057e+002,5.572906e+000
8.204700e+002,4.813797e+000
8.214342e+002,4.828812e+000
8.223984e+002,5.154404e+000
8.233627e+002,4.329803e+000
8.243269e+002,1.066299e+000
8.252911e+002,-1.693924e+000
8.262554e+002,-2.707809e+000
8.272196e+002,-2.320190e+000
8.281838e+002,-4.266357e-001
8.291481e+002,2.722031e+000
8.301123e+002,6.216202e+000
8.310765e+002,8.543854e+000
8.320408e+002,9.550232e+000
8.330050e+002,9.368820e+000
8.339692e+002,7.786163e+000
8.349335e+002,5.763138e+000
8.358977e+002,4.189621e+000
8.368619e+002,3.110458e+000
8.378262e+002,2.611923e+000
8.387904e+002,3.226685e+000
8.397546e+002,3.618286e+000
8.407189e+002,3.064346e+000
8.416831e+002,2.182190e+000
8.426473e+002,2.241013e+000
8.436116e+002,4.048737e+000
8.445758e+002,5.927658e+000
8.455400e+002,5.532578e+000
8.465043e+002,4.231720e+000
8.474685e+002,3.681534e+000
8.484327e+002,4.424652e+000
8.493970e+002,5.985168e+000
8.503612e+002,7.468002e+000
8.513254e+002,8.876465e+000
8.522897e+002,9.413284e+000
8.532539e+002,8.506454e+000
8.542181e+002,7.445175e+000
8.551824e+002,7.063309e+000
8.561466e+002,7.413803e+000
8.571108e+002,8.030487e+000
8.580751e+002,8.868973e+000
8.590393e+002,9.307449e+000
8.600035e+002,8.911057e+000
8.609678e+002,8.352859e+000
8.619320e+002,8.384964e+000
8.628962e+002,9.277527e+000
8.638605e+002,1.055325e+001
8.648247e+002,1.156810e+001
8.657889e+002,1.240047e+001
8.667532e+002,1.343742e+001
8.677174e+002,1.471848e+001
8.686816e+002,1.554852e+001
8.696459e+002,1.497206e+001
8.706101e+002,1.270544e+001
8.715743e+002,1.169949e+001
8.725386e+002,1.234251e+001
8.735028e+002,1.360681e+001
8.744670e+002,1.573981e+001
8.754313e+002,1.805971e+001
8.763955e+002,1.943098e+001
8.773597e+002,1.938889e+001
8.783240e+002,1.890996e+001
8.792882e+002,1.844107e+001
8.802524e+002,1.799130e+001
8.812167e+002,1.728917e+001
8.821809e+002,1.651996e+001
8.831451e+002,1.660086e+001
8.841094e+002,1.890802e+001
8.850736e+002,2.329910e+001
8.860378e+002,2.493599e+001
8.870021e+002,2.316644e+001
8.879663e+002,2.118939e+001
8.889305e+002,2.090125e+001
8.898948e+002,2.186111e+001
8.908590e+002,2.190794e+001
8.918232e+002,2.001015e+001
8.927875e+002,1.891217e+001
8.937517e+002,1.936417e+001
8.947159e+002,2.060939e+001
8.956802e+002,2.225648e+001
8.966444e+002,2.397780e+001
8.976086e+002,2.521828e+001
8.985729e+002,2.544534e+001
8.995371e+002,2.498032e+001
9.005013e+002,2.394032e+001
9.014656e+002,2.262880e+001
9.024298e+002,2.218094e+001
9.033940e+002,2.350386e+001
9.043583e+002,2.619096e+001
9.053225e+002,2.769839e+001
9.062867e+002,2.682242e+001
9.072510e+002,2.604700e+001
9.082152e+002,2.565842e+001
9.091794e+002,2.549400e+001
9.101437e+002,2.519839e+001
9.111079e+002,2.469580e+001
9.120721e+002,2.478452e+001
9.130364e+002,2.684048e+001
9.140006e+002,2.864174e+001
9.149648e+002,2.859367e+001
9.159291e+002,2.742270e+001
9.168933e+002,2.683775e+001
9.178575e+002,2.795790e+001
9.188218e+002,2.988774e+001
9.197860e+002,2.935378e+001
9.207502e+002,2.620033e+001
9.217145e+002,2.453665e+001
9.226787e+002,2.620523e+001
9.236429e+002,2.894090e+001
9.246072e+002,2.945404e+001
9.255714e+002,2.718326e+001
9.265356e+002,2.519550e+001
9.274999e+002,2.400317e+001
9.284641e+002,2.306003e+001
9.294283e+002,2.233383e+001
9.303926e+002,2.177788e+001
9.313568e+002,2.126930e+001
9.323210e+002,2.071957e+001
9.332853e+002,2.034203e+001
9.342495e+002,2.079312e+001
9.352137e+002,2.156520e+001
9.361780e+002,2.203580e+001
9.371422e+002,2.214522e+001
9.381064e+002,2.193784e+001
9.390707e+002,2.130655e+001
9.400349e+002,2.001645e+001
9.409991e+002,1.907048e+001
9.419634e+002,1.841768e+001
9.429276e+002,1.805391e+001
9.438918e+002,1.802562e+001
9.448561e+002,1.831676e+001
9.458203e+002,1.911438e+001
9.467845e+002,2.070935e+001
9.477488e+002,2.179932e+001
9.487130e+002,2.059016e+001
9.496772e+002,1.900200e+001
9.506415e+002,1.881468e+001
9.516057e+002,1.988165e+001
9.525699e+002,2.071638e+001
9.535342e+002,1.983656e+001
9.544984e+002,1.743628e+001
9.554626e+002,1.549782e+001
9.564269e+002,1.410518e+001
9.573911e+002,1.325279e+001
9.583553e+002,1.329208e+001
9.593196e+002,1.366179e+001
9.602838e+002,1.322583e+001
9.612480e+002,1.147975e+001
9.622123e+002,1.076692e+001
9.631765e+002,1.277301e+001
9.641407e+002,1.499884e+001
9.651050e+002,1.647658e+001
9.660692e+002,1.713829e+001
9.670334e+002,1.728001e+001
9.679977e+002,1.714139e+001
9.689619e+002,1.681644e+001
9.699261e+002,1.586807e+001
9.708904e+002,1.458749e+001
9.718546e+002,1.421712e+001
9.728188e+002,1.499713e+001
9.737831e+002,1.669728e+001
9.747473e+002,1.951227e+001
9.757115e+002,2.403694e+001
9.766758e+002,2.657294e+001
9.776400e+002,2.626746e+001
9.786042e+002,2.519191e+001
9.795685e+002,2.284564e+001
9.805327e+002,2.024632e+001
9.814969e+002,1.906435e+001
9.824612e+002,1.994545e+001
9.834254e+002,2.078593e+001
9.843896e+002,1.866878e+001
9.853539e+002,1.569489e+001
9.863181e+002,1.436359e+001
9.872823e+002,1.451315e+001
9.882466e+002,1.450505e+001
9.892108e+002,1.302177e+001
9.901750e+002,1.057484e+001
9.911393e+002,9.902054e+000
9.921035e+002,1.221626e+001
9.930677e+002,1.381416e+001
9.940320e+002,1.466382e+001
9.949962e+002,1.489442e+001
9.959604e+002,1.416171e+001
9.969247e+002,1.257819e+001
9.978889e+002,1.193997e+001
9.988531e+002,1.395206e+001
9.998174e+002,1.573730e+001
1.000782e+003,1.543394e+001
1.001746e+003,1.400146e+001
1.002710e+003,1.271719e+001
1.003674e+003,1.219514e+001
1.004639e+003,1.231389e+001
1.005603e+003,1.295863e+001
1.006567e+003,1.415182e+001
1.007531e+003,1.451364e+001
1.008495e+003,1.362912e+001
1.009460e+003,1.282307e+001
1.010424e+003,1.302208e+001
1.011388e+003,1.400542e+001
1.012352e+003,1.479994e+001
1.013317e+003,1.525739e+001
1.014281e+003,1.543127e+001
1.015245e+003,1.573865e+001
1.016209e+003,1.544420e+001
1.017174e+003,1.347852e+001
1.018138e+003,1.030748e+001
1.019102e+003,7.753143e+000
1.020066e+003,7.432983e+000
1.021031e+003,8.457474e+000
1.021995e+003,7.872452e+000
1.022959e+003,5.948212e+000
1.023923e+003,4.511459e+000
1.024887e+003,4.319550e+000
1.025852e+003,4.551361e+000
1.026816e+003,3.757370e+000
1.027780e+003,1.592392e+000
1.028744e+003,4.513702e-001
1.029709e+003,1.169266e+000
1.030673e+003,2.102036e+000
1.031637e+003,3.349777e+000
1.032601e+003,4.221527e+000
1.033566e+003,3.616623e+000
1.034530e+003,1.234283e+000
1.035494e+003,-1.370789e+000
1.036458e+003,-2.621445e+000
1.037422e+003,-2.950668e+000
1.038387e+003,-3.175644e+000
1.039351e+003,-3.297379e+000
1.040315e+003,-2.737686e+000
1.041279e+003,-9.385071e-001
1.042244e+003,1.840134e+000
1.043208e+003,4.207275e+000
1.044172e+003,7.114975e+000
1.045136e+003,7.387146e+000
1.046101e+003,2.242905e+000
1.047065e+003,-2.574402e+000
1.048029e+003,-2.772400e+000
1.048993e+003,7.160645e-001
1.049958e+003,3.384186e+000
1.050922e+003,2.835999e+000
1.051886e+003,1.887039e+000
1.052850e+003,4.270676e+000
1.053814e+003,7.623398e+000
1.054779e+003,8.579041e+000
1.055743e+003,6.565887e+000
1.056707e+003,3.675797e+000
1.057671e+003,2.433014e+000
1.058636e+003,2.828323e+000
1.059600e+003,2.792801e+000
1.060564e+003,2.090652e+000
1.061528e+003,1.586136e+000
1.062493e+003,1.145401e+000
1.063457e+003,9.174805e-001
1.064421e+003,1.276779e+000
1.065385e+003,2.285202e+000
1.066349e+003,3.228470e+000
1.067314e+003,3.753357e+000
1.068278e+003,4.096802e+000
1.069242e+003,4.511566e+000
1.070206e+003,4.910141e+000
1.071171e+003,4.977112e+000
1.072135e+003,4.599396e+000
1.073099e+003,4.189682e+000
1.074063e+003,4.592331e+000
1.075028e+003,6.001785e+000
1.075992e+003,5.973282e+000
1.076956e+003,3.506546e+000
1.077920e+003,1.369034e+000
1.078885e+003,7.080536e-001
1.079849e+003,1.115189e+000
1.080813e+003,1.890411e+000
1.081777e+003,3.034958e+000
1.082741e+003,4.119522e+000
1.083706e+003,5.463989e+000
1.084670e+003,5.960983e+000
1.085634e+003,4.194107e+000
1.086598e+003,1.201508e+000
1.087563e+003,-1.034576e+000
1.088527e+003,-1.367401e+000
1.089491e+003,-3.683014e-001
1.090455e+003,8.499908e-001
1.091420e+003,2.241196e+000
1.092384e+003,2.468063e+000
1.093348e+003,1.051514e+000
1.094312e+003,-7.612457e-001
1.095276e+003,-2.842209e+000
1.096241e+003,-4.631973e+000
1.097205e+003,-4.207169e+000
1.098169e+003,-3.972931e-001
1.099133e+003,2.639816e+000
1.100098e+003,3.167923e+000
1.101062e+003,2.781540e+000
1.102026e+003,2.101608e+000
1.102990e+003,1.386139e+000
1.103955e+003,7.238007e-001
1.104919e+003,1.501007e-001
1.105883e+003,-2.284088e-001
1.106847e+003,5.981445e-003
1.107812e+003,8.280029e-001
1.108776e+003,8.169861e-001
1.109740e+003,-5.966339e-001
1.110704e+003,-1.783493e+000
1.111668e+003,-1.423370e+000
1.112633e+003,2.689056e-001
1.113597e+003,2.340408e+000
1.114561e+003,5.500031e+000
1.115525e+003,6.863434e+000
1.116490e+003,3.748657e+000
1.117454e+003,4.891205e-001
1.118418e+003,1.853333e-001
1.119382e+003,2.300262e+000
1.120347e+003,4.622711e+000
1.121311e+003,5.710724e+000
1.122275e+003,5.665482e+000
1.123239e+003,4.582214e+000
1.124203e+003,2.770325e+000
1.125168e+003,2.398529e+000
1.126132e+003,4.150848e+000
1.127096e+003,6.068085e+000
1.128060e+003,6.351563e+000
1.129025e+003,5.410583e+000
1.129989e+003,5.422440e+000
1.130953e+003,6.872665e+000
1.131917e+003,8.415894e+000
1.132882e+003,1.052563e+001
1.133846e+003,1.191081e+001
1.134810e+003,1.121826e+001
1.135774e+003,9.205597e+000
1.136739e+003,7.710846e+000
1.137703e+003,7.750961e+000
1.138667e+003,8.349716e+000
1.139631e+003,7.452408e+000
1.140595e+003,5.483704e+000
1.141560e+003,6.152893e+000
1.142524e+003,1.042346e+001
1.143488e+003,1.477791e+001
1.144452e+003,1.599854e+001
1.145417e+003,1.533537e+001
1.146381e+003,1.779700e+001
1.147345e+003,2.515323e+001
1.148309e+003,3.108710e+001
1.149274e+003,3.293565e+001
1.150238e+003,3.433487e+001
1.151202e+003,3.685599e+001
1.152166e+003,4.050240e+001
1.153130e+003,4.522945e+001
1.154095e+003,5.074942e+001
1.155059e+003,5.543964e+001
1.156023e+003,5.691429e+001
1.156987e+003,5.552603e+001
1.157952e+003,5.487787e+001
1.158916e+003,5.554364e+001
1.159880e+003,5.491110e+001
1.160844e+003,5.059602e+001
1.161809e+003,4.400363e+001
1.162773e+003,3.868375e+001
1.163737e+003,3.500555e+001
1.164701e+003,3.104623e+001
1.165666e+003,2.510063e+001
1.166630e+003,2.024823e+001
1.167594e+003,1.813681e+001
1.168558e+003,1.758522e+001
1.169522e+003,1.711063e+001
1.170487e+003,1.615685e+001
1.171451e+003,1.503702e+001
1.172415e+003,1.407823e+001
1.173379e+003,1.321056e+001
1.174344e+003,1.205751e+001
1.175308e+003,1.056569e+001
1.176272e+003,9.751129e+000
1.177236e+003,1.036215e+001
1.178201e+003,1.154874e+001
1.179165e+003,1.241628e+001
1.180129e+003,1.290750e+001
1.181093e+003,1.219373e+001
1.182057e+003,8.732574e+000
1.183022e+003,6.223679e+000
1.183986e+003,6.601425e+000
1.184950e+003,8.060638e+000
1.185914e+003,9.258560e+000
1.186879e+003,9.767593e+000
1.187843e+003,9.331909e+000
1.188807e+003,7.664398e+000
1.189771e+003,5.569946e+000
1.190736e+003,5.928421e+000
1.191700e+003,9.111343e+000
1.192664e+003,1.066484e+001
1.193628e+003,9.260010e+000
1.194593e+003,7.524078e+000
1.195557e+003,7.490707e+000
1.196521e+003,8.614334e+000
1.197485e+003,9.117310e+000
1.198449e+003,8.876251e+000
1.199414e+003,7.612335e+000
1.200378e+003,3.238007e+000
1.201342e+003,-4.066315e-001
1.202306e+003,1.377869e-001
1.203271e+003,3.175049e+000
1.204235e+003,4.799576e+000
1.205199e+003,3.174271e+000
1.206163e+003,9.500122e-002
1.207128e+003,-1.504639e+000
1.208092e+003,-1.531830e+000
1.209056e+003,-1.237534e+000
1.210020e+003,-8.799744e-002
1.210984e+003,3.208466e-001
1.211949e+003,-9.628296e-001
1.212913e+003,-2.962433e+000
1.213877e+003,-4.263550e+000
1.214841e+003,-4.779984e+000
1.215806e+003,-5.870605e+000
1.216770e+003,-8.748413e+000
1.217734e+003,-1.125674e+001
1.218698e+003,-1.183127e+001
1.219663e+003,-1.140567e+001
1.220627e+003,-1.096739e+001
1.221591e+003,-1.078456e+001
1.222555e+003,-1.071945e+001
1.223520e+003,-1.063190e+001
1.224484e+003,-1.048349e+001
1.225448e+003,-1.024973e+001
1.226412e+003,-9.583282e+000
1.227376e+003,-9.766983e+000
1.228341e+003,-1.200890e+001
1.229305e+003,-1.378230e+001
1.230269e+003,-1.312558e+001
1.231233e+003,-1.119888e+001
1.232198e+003,-1.057655e+001
1.233162e+003,-1.194991e+001
1.234126e+003,-1.317146e+001
1.235090e+003,-1.258058e+001
1.236055e+003,-1.130434e+001
1.237019e+003,-1.064079e+001
1.237983e+003,-1.035413e+001
1.238947e+003,-9.274017e+000
1.239911e+003,-6.901672e+000
1.240876e+003,-5.053223e+000
1.241840e+003,-6.906296e+000
1.242804e+003,-1.282304e+001
1.243768e+003,-1.566005e+001
1.244733e+003,-1.202650e+001
1.245697e+003,-9.656952e+000
1.246661e+003,-1.020145e+001
1.247625e+003,-1.137729e+001
1.248590e+003,-1.139729e+001
1.249554e+003,-1.038184e+001
1.250518e+003,-9.482025e+000
1.251482e+003,-9.271469e+000
1.252447e+003,-9.244110e+000
1.253411e+003,-8.547760e+000
1.254375e+003,-7.598450e+000
1.255339e+003,-7.534332e+000
1.256303e+003,-8.310699e+000
1.257268e+003,-8.768875e+000
1.258232e+003,-8.295914e+000
1.259196e+003,-7.272415e+000
1.260160e+003,-6.173721e+000
1.261125e+003,-4.812576e+000
1.262089e+003,-4.088867e+000
1.263053e+003,-4.765533e+000
1.264017e+003,-5.463440e+000
1.264982e+003,-5.924286e+000
1.265946e+003,-6.152267e+000
1.266910e+003,-6.159134e+000
1.267874e+003,-5.964127e+000
1.268839e+003,-5.458618e+000
1.269803e+003,-4.550888e+000
1.270767e+003,-3.744232e+000
1.271731e+003,-4.102371e+000
1.272695e+003,-5.577362e+000
1.273660e+003,-6.944183e+000
1.274624e+003,-8.425507e+000
1.275588e+003,-9.490128e+000
1.276552e+003,-9.399338e+000
1.277517e+003,-8.740112e+000
1.278481e+003,-8.780075e+000
1.279445e+003,-9.665939e+000
1.280409e+003,-1.053392e+001
1.281374e+003,-1.156885e+001
1.282338e+003,-1.181664e+001
1.283302e+003,-1.005891e+001
1.284266e+003,-7.798019e+000
1.285230e+003,-6.750961e+000
1.286195e+003,-7.126465e+000
1.287159e+003,-8.052505e+000
1.288123e+003,-8.783066e+000
1.289087e+003,-9.246231e+000
1.290052e+003,-9.367737e+000
1.291016e+003,-9.058884e+000
1.291980e+003,-8.971085e+000
1.292944e+003,-9.205811e+000
1.293909e+003,-9.654083e+000
1.294873e+003,-1.048630e+001
1.295837e+003,-1.125800e+001
1.296801e+003,-1.130460e+001
1.297766e+003,-1.058389e+001
1.298730e+003,-9.754456e+000
1.299694e+003,-9.092361e+000
1.300658e+003,-8.712189e+000
1.301622e+003,-8.972351e+000
1.302587e+003,-9.406738e+000
1.303551e+003,-9.116211e+000
1.304515e+003,-8.003952e+000
1.305479e+003,-7.115356e+000
1.306444e+003,-7.465225e+000
1.307408e+003,-8.546158e+000
1.308372e+003,-8.292511e+000
1.309336e+003,-5.793839e+000
1.310301e+003,-4.828690e+000
1.311265e+003,-6.652054e+000
1.312229e+003,-8.569153e+000
1.313193e+003,-1.049796e+001
1.314157e+003,-1.171335e+001
1.315122e+003,-1.106778e+001
1.316086e+003,-8.901382e+000
1.317050e+003,-6.859314e+000
1.318014e+003,-5.944794e+000
1.318979e+003,-6.008041e+000
1.319943e+003,-7.145721e+000
1.320907e+003,-9.154739e+000
1.321871e+003,-1.048213e+001
1.322836e+003,-1.109215e+001
1.323800e+003,-1.135387e+001
1.324764e+003,-1.171541e+001
1.325728e+003,-1.168993e+001
1.326693e+003,-1.000389e+001
1.327657e+003,-6.631042e+000
1.328621e+003,-4.608292e+000
1.329585e+003,-5.188507e+000
1.330549e+003,-6.011887e+000
1.331514e+003,-5.901062e+000
1.332478e+003,-5.720886e+000
1.333442e+003,-6.321030e+000
1.334406e+003,-7.558014e+000
1.335371e+003,-8.746521e+000
1.336335e+003,-9.465179e+000
1.337299e+003,-9.795609e+000
1.338263e+003,-9.873322e+000
1.339228e+003,-9.599594e+000
1.340192e+003,-9.999374e+000
1.341156e+003,-1.309200e+001
1.342120e+003,-1.388423e+001
1.343084e+003,-9.366547e+000
1.344049e+003,-4.502441e+000
1.345013e+003,-3.696564e+000
1.345977e+003,-5.998703e+000
1.346941e+003,-7.863770e+000
1.347906e+003,-8.064621e+000
1.348870e+003,-7.084229e+000
1.349834e+003,-4.682434e+000
1.350798e+003,-1.984238e+000
1.351763e+003,-8.580627e-001
1.352727e+003,-1.184982e+000
1.353691e+003,-2.446579e+000
1.354655e+003,-4.658218e+000
1.355620e+003,-6.997757e+000
1.356584e+003,-8.619919e+000
1.357548e+003,-9.506119e+000
1.358512e+003,-9.630142e+000
1.359476e+003,-8.797318e+000
1.360441e+003,-7.986130e+000
1.361405e+003,-7.505081e+000
1.362369e+003,-6.951691e+000
1.363333e+003,-5.834030e+000
1.364298e+003,-4.648361e+000
1.365262e+003,-3.968216e+000
1.366226e+003,-4.013153e+000
1.367190e+003,-4.944046e+000
1.368155e+003,-6.940109e+000
1.369119e+003,-9.445358e+000
1.370083e+003,-1.066853e+001
1.371047e+003,-1.032002e+001
1.372011e+003,-9.469894e+000
1.372976e+003,-7.574951e+000
1.373940e+003,-6.097763e+000
1.374904e+003,-5.694244e+000
1.375868e+003,-5.847351e+000
1.376833e+003,-6.202240e+000
1.377797e+003,-6.598343e+000
1.378761e+003,-6.243988e+000
1.379725e+003,-4.484192e+000
1.380690e+003,-2.835999e+000
1.381654e+003,-3.159760e+000
1.382618e+003,-4.404694e+000
1.383582e+003,-5.441971e+000
1.384547e+003,-6.098068e+000
1.385511e+003,-5.964462e+000
1.386475e+003,-4.725250e+000
1.387439e+003,-3.116333e+000
1.388403e+003,-2.093353e+000
1.389368e+003,-1.666855e+000
1.390332e+003,-2.059860e+000
1.391296e+003,-3.601990e+000
1.392260e+003,-5.224121e+000
1.393225e+003,-7.422546e+000
1.394189e+003,-8.904434e+000
1.395153e+003,-8.378006e+000
1.396117e+003,-6.872330e+000
1.397082e+003,-6.028381e+000
1.398046e+003,-6.212341e+000
1.399010e+003,-6.459717e+000
1.399974e+003,-5.933319e+000
1.400938e+003,-5.023270e+000
1.401903e+003,-4.722641e+000
1.402867e+003,-5.069534e+000
1.403831e+003,-4.790985e+000
1.404795e+003,-3.293610e+000
1.405760e+003,-2.208405e+000
1.406724e+003,-2.451035e+000
1.407688e+003,-3.435303e+000
1.408652e+003,-4.334274e+000
1.409617e+003,-5.029373e+000
1.410581e+003,-6.049484e+000
1.411545e+003,-7.775055e+000
1.412509e+003,-8.953842e+000
1.413474e+003,-7.959091e+000
1.414438e+003,-6.010818e+000
1.415402e+003,-4.951004e+000
1.416366e+003,-4.655563e+000
1.417330e+003,-4.477875e+000
1.418295e+003,-4.194946e+000
1.419259e+003,-3.844788e+000
1.420223e+003,-3.447464e+000
1.421187e+003,-3.092987e+000
1.422152e+003,-3.107193e+000
1.423116e+003,-3.646469e+000
1.424080e+003,-3.727539e+000
1.425044e+003,-2.762299e+000
1.426009e+003,-1.792511e+000
1.426973e+003,-1.050568e+000
1.427937e+003,-6.697083e-001
1.428901e+003,-9.267273e-001
1.429865e+003,-1.638306e+000
1.430830e+003,-2.190491e+000
1.431794e+003,-2.221527e+000
1.432758e+003,-2.070480e+000
1.433722e+003,-2.346268e+000
1.434687e+003,-3.026047e+000
1.435651e+003,-2.770081e+000
1.436615e+003,-6.099548e-001
1.437579e+003,4.475098e-001
1.438544e+003,-5.418243e-001
1.439508e+003,-1.932327e+000
1.440472e+003,-2.732544e+000
1.441436e+003,-2.978714e+000
1.442401e+003,-2.965515e+000
1.443365e+003,-2.817154e+000
1.444329e+003,-2.536530e+000
1.445293e+003,-2.053741e+000
1.446257e+003,-1.534393e+000
1.447222e+003,-1.444550e+000
1.448186e+003,-1.684891e+000
1.449150e+003,-1.602936e+000
1.450114e+003,-1.073486e+000
1.451079e+003,-6.330109e-001
1.452043e+003,-7.863922e-001
1.453007e+003,-9.047241e-001
1.453971e+003,1.938324e-001
1.454936e+003,2.210602e+000
1.455900e+003,2.942917e+000
1.456864e+003,1.575821e+000
1.457828e+003,3.372192e-001
1.458792e+003,8.163757e-001
1.459757e+003,1.557510e+000
1.460721e+003,1.442108e+000
1.461685e+003,6.593323e-001
1.462649e+003,-4.457245e-001
1.463614e+003,-1.666290e+000
1.464578e+003,-2.508347e+000
1.465542e+003,-2.511230e+000
1.466506e+003,-1.979752e+000
1.467471e+003,-1.752441e+000
1.468435e+003,-1.867798e+000
1.469399e+003,-1.575394e+000
1.470363e+003,-4.848633e-001
1.471328e+003,2.992554e-001
1.472292e+003,3.060608e-001
1.473256e+003,-1.432800e-002
1.474220e+003,-2.283783e-001
1.475184e+003,-3.447571e-001
1.476149e+003,-6.275177e-001
1.477113e+003,-1.183121e+000
1.478077e+003,-1.824600e+000
1.479041e+003,-2.302795e+000
1.480006e+003,-2.574570e+000
1.480970e+003,-2.651978e+000
1.481934e+003,-2.572983e+000
1.482898e+003,-2.514832e+000
1.483863e+003,-3.198792e+000
1.484827e+003,-2.941177e+000
1.485791e+003,1.789856e-001
1.486755e+003,3.290268e+000
1.487719e+003,3.127747e+000
1.488684e+003,6.814117e-001
1.489648e+003,-7.247467e-001
1.490612e+003,3.845215e-003
1.491576e+003,1.276764e+000
1.492541e+003,1.702362e+000
1.493505e+003,1.883026e+000
1.494469e+003,3.617691e+000
1.495433e+003,6.429153e+000
1.496398e+003,7.582718e+000
1.497362e+003,6.282791e+000
1.498326e+003,5.318588e+000
1.499290e+003,6.224991e+000
1.500255e+003,8.180603e+000
1.501219e+003,1.029323e+001
1.502183e+003,1.244432e+001
1.503147e+003,1.421638e+001
1.504111e+003,1.537209e+001
1.505076e+003,1.694350e+001
1.506040e+003,2.014874e+001
1.507004e+003,2.339622e+001
1.507968e+003,2.437642e+001
1.508933e+003,2.443365e+001
1.509897e+003,2.654449e+001
1.510861e+003,3.131133e+001
1.511825e+003,3.680240e+001
1.512790e+003,4.166779e+001
1.513754e+003,4.615506e+001
1.514718e+003,5.089352e+001
1.515682e+003,5.580534e+001
1.516646e+003,6.046718e+001
1.517611e+003,6.497935e+001
1.518575e+003,6.918437e+001
1.519539e+003,7.379146e+001
1.520503e+003,7.744992e+001
1.521468e+003,7.922900e+001
1.522432e+003,7.961891e+001
1.523396e+003,7.917871e+001
1.524360e+003,7.813773e+001
1.525325e+003,7.673817e+001
1.526289e+003,7.516879e+001
1.527253e+003,7.312709e+001
1.528217e+003,6.998013e+001
1.529182e+003,6.578360e+001
1.530146e+003,6.134705e+001
1.531110e+003,5.641425e+001
1.532074e+003,5.156862e+001
1.533039e+003,4.671510e+001
1.534003e+003,4.173491e+001
1.534967e+003,3.678593e+001
1.535931e+003,3.187120e+001
1.536896e+003,2.658582e+001
1.537860e+003,2.129900e+001
1.538824e+003,1.706645e+001
1.539788e+003,1.436385e+001
1.540752e+003,1.256178e+001
1.541717e+003,1.093327e+001
1.542681e+003,9.517212e+000
1.543645e+003,8.263306e+000
1.544609e+003,7.314987e+000
1.545573e+003,6.421127e+000
1.546538e+003,4.723602e+000
1.547502e+003,3.945084e+000
1.548466e+003,5.720413e+000
1.549430e+003,8.112030e+000
1.550395e+003,9.038269e+000
1.551359e+003,8.679031e+000
1.552323e+003,8.253159e+000
1.553287e+003,8.226532e+000
1.554252e+003,8.414413e+000
1.555216e+003,8.712265e+000
1.556180e+003,8.918854e+000
1.557144e+003,8.520340e+000
1.558109e+003,7.524689e+000
1.559073e+003,6.599030e+000
1.560037e+003,5.618439e+000
1.561001e+003,4.717072e+000
1.561966e+003,4.100113e+000
1.562930e+003,3.664886e+000
1.563894e+003,3.179245e+000
1.564858e+003,2.715073e+000
1.565823e+003,2.623718e+000
1.566787e+003,2.927551e+000
1.567751e+003,2.954742e+000
1.568715e+003,2.183563e+000
1.569679e+003,1.557846e+000
1.570644e+003,2.617813e+000
1.571608e+003,4.555237e+000
1.572572e+003,4.975739e+000
1.573536e+003,3.824997e+000
1.574500e+003,3.339417e+000
1.575465e+003,4.682465e+000
1.576429e+003,6.136841e+000
1.577393e+003,5.978745e+000
1.578357e+003,5.051239e+000
1.579322e+003,5.179962e+000
1.580286e+003,6.434402e+000
1.581250e+003,7.624878e+000
1.582214e+003,8.495483e+000
1.583179e+003,8.801453e+000
1.584143e+003,7.784882e+000
1.585107e+003,6.529831e+000
1.586071e+003,6.909912e+000
1.587036e+003,8.419250e+000
1.588000e+003,9.108139e+000
1.588964e+003,8.461624e+000
1.589928e+003,7.552734e+000
1.590893e+003,6.917465e+000
1.591857e+003,6.615723e+000
1.592821e+003,6.794769e+000
1.593785e+003,7.425293e+000
1.594750e+003,8.343674e+000
1.595714e+003,9.589142e+000
1.596678e+003,1.044078e+001
1.597642e+003,1.035593e+001
1.598606e+003,1.019032e+001
1.599571e+003,1.089432e+001
1.600535e+003,1.183038e+001
1.601499e+003,1.204553e+001
1.602463e+003,1.158745e+001
1.603427e+003,1.122200e+001
1.604392e+003,1.127666e+001
1.605356e+003,1.140851e+001
1.606320e+003,1.110925e+001
1.607284e+003,1.067627e+001
1.608249e+003,1.129343e+001
1.609213e+003,1.303276e+001
1.610177e+003,1.320615e+001
1.611141e+003,1.045445e+001
1.612106e+003,8.415848e+000
1.613070e+003,9.534698e+000
1.614034e+003,1.139030e+001
1.614998e+003,1.276538e+001
1.615963e+003,1.346657e+001
1.616927e+003,1.287315e+001
1.617891e+003,1.116235e+001
1.618855e+003,9.985245e+000
1.619820e+003,1.031744e+001
1.620784e+003,1.136226e+001
1.621748e+003,1.250330e+001
1.622712e+003,1.368523e+001
1.623677e+003,1.342769e+001
1.624641e+003,1.128970e+001
1.625605e+003,1.039519e+001
1.626569e+003,1.192555e+001
1.627533e+003,1.348509e+001
1.628498e+003,1.427771e+001
1.629462e+003,1.449828e+001
1.630426e+003,1.403886e+001
1.631390e+003,1.315895e+001
1.632354e+003,1.233614e+001
1.633319e+003,1.169423e+001
1.634283e+003,1.106578e+001
1.635247e+003,1.017638e+001
1.636211e+003,9.636978e+000
1.637176e+003,1.123280e+001
1.638140e+003,1.472865e+001
1.639104e+003,1.555133e+001
1.640068e+003,1.257658e+001
1.641033e+003,1.063506e+001
1.641997e+003,1.157195e+001
1.642961e+003,1.293106e+001
1.643925e+003,1.401195e+001
1.644890e+003,1.446396e+001
1.645854e+003,1.332379e+001
1.646818e+003,1.133632e+001
1.647782e+003,1.043587e+001
1.648747e+003,1.117746e+001
1.649711e+003,1.248082e+001
1.650675e+003,1.363107e+001
1.651639e+003,1.455519e+001
1.652604e+003,1.474512e+001
1.653568e+003,1.420781e+001
1.654532e+003,1.483893e+001
1.655496e+003,1.759766e+001
1.656460e+003,1.833423e+001
1.657425e+003,1.385931e+001
1.658389e+003,9.894699e+000
1.659353e+003,1.020633e+001
1.660317e+003,1.201732e+001
1.661281e+003,1.256458e+001
1.662246e+003,1.184641e+001
1.663210e+003,1.091397e+001
1.664174e+003,1.014314e+001
1.665138e+003,9.055817e+000
1.666103e+003,6.787796e+000
1.667067e+003,4.559387e+000
1.668031e+003,5.565079e+000
1.668995e+003,9.489029e+000
1.669960e+003,1.123906e+001
1.670924e+003,9.999496e+000
1.671888e+003,8.568481e+000
1.672852e+003,7.274216e+000
1.673817e+003,6.666901e+000
1.674781e+003,7.865387e+000
1.675745e+003,9.302307e+000
1.676709e+003,8.941696e+000
1.677674e+003,7.271240e+000
1.678638e+003,6.332840e+000
1.679602e+003,6.755508e+000
1.680566e+003,7.010040e+000
1.681531e+003,5.749161e+000
1.682495e+003,3.955765e+000
1.683459e+003,3.297516e+000
1.684423e+003,3.540375e+000
1.685387e+003,3.311111e+000
1.686352e+003,2.352295e+000
1.687316e+003,2.450623e+000
1.688280e+003,4.988602e+000
1.689244e+003,7.171738e+000
1.690208e+003,6.146759e+000
1.691173e+003,4.153473e+000
1.692137e+003,3.557419e+000
1.693101e+003,4.211700e+000
1.694065e+003,5.322937e+000
1.695030e+003,6.674118e+000
1.695994e+003,7.312180e+000
1.696958e+003,6.391403e+000
1.697922e+003,4.862350e+000
1.698887e+003,3.761429e+000
1.699851e+003,3.062836e+000
1.700815e+003,2.702484e+000
1.701779e+003,2.626083e+000
1.702744e+003,2.436157e+000
1.703708e+003,2.068649e+000
1.704672e+003,1.666779e+000
1.705636e+003,9.706879e-001
1.706601e+003,4.556580e-001
1.707565e+003,1.278351e+000
1.708529e+003,3.010422e+000
1.709493e+003,4.154694e+000
1.710458e+003,4.517746e+000
1.711422e+003,4.391830e+000
1.712386e+003,3.504395e+000
1.713350e+003,2.767410e+000
1.714314e+003,3.402542e+000
1.715279e+003,4.236481e+000
1.716243e+003,2.762375e+000
1.717207e+003,-4.654999e-001
1.718171e+003,-1.994995e+000
1.719135e+003,-8.592834e-001
1.720100e+003,8.913879e-001
1.721064e+003,2.107452e+000
1.722028e+003,2.522095e+000
1.722992e+003,1.418030e+000
1.723957e+003,-6.796875e-001
1.724921e+003,-9.851379e-001
1.725885e+003,7.964630e-001
1.726849e+003,1.499374e+000
1.727814e+003,-2.430267e-001
1.728778e+003,-1.663620e+000
1.729742e+003,-1.534210e+000
1.730706e+003,-6.519928e-001
1.731671e+003,5.016327e-001
1.732635e+003,1.526627e+000
1.733599e+003,1.977203e+000
1.734563e+003,1.862518e+000
1.735528e+003,1.312241e+000
1.736492e+003,3.630981e-001
1.737456e+003,-5.259552e-001
1.738420e+003,-7.996521e-001
1.739385e+003,-6.481628e-001
1.740349e+003,-5.137329e-001
1.741313e+003,-2.731628e-001
1.742277e+003,-3.877716e-001
1.743241e+003,-1.308258e+000
1.744206e+003,-1.731537e+000
1.745170e+003,-1.322418e+000
1.746134e+003,-6.598053e-001
1.747098e+003,2.492065e-001
1.748063e+003,9.948730e-001
1.749027e+003,1.057129e+000
1.749991e+003,5.974121e-001
1.750955e+003,1.006775e-001
1.751919e+003,-2.534332e-001
1.752884e+003,-5.447235e-001
1.753848e+003,-8.366852e-001
1.754812e+003,-1.171768e+000
1.755776e+003,-1.623077e+000
1.756741e+003,-2.107941e+000
1.757705e+003,-2.119522e+000
1.758669e+003,-1.742889e+000
1.759633e+003,-7.826996e-001
1.760598e+003,2.166779e+000
1.761562e+003,3.531570e+000
1.762526e+003,9.491577e-001
1.763490e+003,-2.043060e+000
1.764455e+003,-2.937759e+000
1.765419e+003,-2.559738e+000
1.766383e+003,-2.567810e+000
1.767347e+003,-3.098770e+000
1.768312e+003,-3.076843e+000
1.769276e+003,-2.005142e+000
1.770240e+003,-6.989899e-001
1.771204e+003,2.453308e-001
1.772168e+003,8.156586e-001
1.773133e+003,6.461639e-001
1.774097e+003,-1.700592e-001
1.775061e+003,-6.624146e-001
1.776025e+003,-8.036957e-001
1.776990e+003,-6.861115e-001
1.777954e+003,-8.120728e-002
1.778918e+003,4.773560e-001
1.779882e+003,7.549896e-001
1.780846e+003,4.861298e-001
1.781811e+003,-1.001236e+000
1.782775e+003,-3.190292e+000
1.783739e+003,-4.457443e+000
1.784703e+003,-4.537506e+000
1.785668e+003,-3.865875e+000
1.786632e+003,-2.046387e+000
1.787596e+003,-4.839020e-001
1.788560e+003,-1.496124e-001
1.789525e+003,-5.280914e-001
1.790489e+003,-1.686676e+000
1.791453e+003,-2.961258e+000
1.792417e+003,-1.892471e+000
1.793382e+003,1.694290e+000
1.794346e+003,4.291824e+000
1.795310e+003,4.014694e+000
1.796274e+003,2.247055e+000
1.797239e+003,3.875427e-001
1.798203e+003,-1.194016e+000
1.799167e+003,-1.533676e+000
1.800131e+003,-5.773926e-001
1.801095e+003,1.727448e-001
1.802060e+003,1.341019e+000
1.803024e+003,1.629761e+000
1.803988e+003,-1.194458e-001
1.804952e+003,-1.608063e+000
1.805917e+003,-1.450546e+000
1.806881e+003,-7.695160e-001
1.807845e+003,-6.731720e-001
1.808809e+003,-9.938354e-001
1.809773e+003,-1.098343e+000
1.810738e+003,-8.744812e-001
1.811702e+003,-7.265320e-001
1.812666e+003,-9.097290e-001
1.813630e+003,-1.134842e+000
1.814595e+003,-9.619293e-001
1.815559e+003,-5.903778e-001
1.816523e+003,-9.161835e-001
1.817487e+003,-2.056641e+000
1.818452e+003,-2.295349e+000
1.819416e+003,-1.212708e+000
1.820380e+003,6.391907e-002
1.821344e+003,1.984558e+000
1.822309e+003,2.790115e+000
1.823273e+003,5.458069e-002
1.824237e+003,-3.040833e+000
1.825201e+003,-2.817139e+000
1.826166e+003,-3.855896e-001
1.827130e+003,1.205826e+000
1.828094e+003,1.368958e+000
1.829058e+003,4.049072e-001
1.830022e+003,-2.144928e+000
1.830987e+003,-4.367935e+000
1.831951e+003,-4.455017e+000
1.832915e+003,-3.417267e+000
1.833879e+003,-2.551071e+000
1.834844e+003,-1.884506e+000
1.835808e+003,-1.245926e+000
1.836772e+003,-5.996857e-001
1.837736e+003,6.167603e-002
1.838700e+003,7.150879e-001
1.839665e+003,1.025345e+000
1.840629e+003,6.463013e-001
1.841593e+003,-3.634644e-002
1.842557e+003,-2.697296e-001
1.843522e+003,-6.221008e-002
1.844486e+003,2.305908e-001
1.845450e+003,9.371796e-001
1.846414e+003,1.269897e+000
1.847379e+003,5.973663e-001
1.848343e+003,1.717529e-001
1.849307e+003,9.545746e-001
1.850271e+003,1.572617e+000
1.851236e+003,6.490631e-001
1.852200e+003,-7.495117e-001
1.853164e+003,-1.021271e+000
1.854128e+003,-3.763885e-001
1.855093e+003,-1.972656e-001
1.856057e+003,-8.741913e-001
1.857021e+003,-1.319077e+000
1.857985e+003,-6.259613e-001
1.858949e+003,5.641785e-001
1.859914e+003,1.294281e+000
1.860878e+003,1.593903e+000
1.861842e+003,1.284607e+000
1.862806e+003,3.100739e-001
1.863771e+003,3.292389e-001
1.864735e+003,1.858597e+000
1.865699e+003,3.157028e+000
1.866663e+003,3.658508e+000
1.867627e+003,3.456955e+000
1.868592e+003,2.016235e+000
1.869556e+003,1.723022e-001
1.870520e+003,-9.768677e-002
1.871484e+003,8.970184e-001
1.872449e+003,1.003082e+000
1.873413e+003,-1.751251e-001
1.874377e+003,-6.567535e-001
1.875341e+003,6.607666e-001
1.876306e+003,1.739136e+000
1.877270e+003,1.053879e+000
1.878234e+003,-3.340149e-002
1.879198e+003,-1.248932e-001
1.880163e+003,4.834900e-001
1.881127e+003,1.050095e+000
1.882091e+003,1.502625e+000
1.883055e+003,2.415802e+000
1.884020e+003,3.887054e+000
1.884984e+003,4.547699e+000
1.885948e+003,3.099304e+000
1.886912e+003,8.985596e-001
1.887876e+003,8.430328e-001
1.888841e+003,2.682419e+000
1.889805e+003,3.110245e+000
1.890769e+003,1.806259e+000
1.891733e+003,7.064209e-001
1.892698e+003,-5.230408e-001
1.893662e+003,-3.517151e-001
1.894626e+003,3.207932e+000
1.895590e+003,6.444351e+000
1.896554e+003,6.746323e+000
1.897519e+003,5.465546e+000
1.898483e+003,3.463837e+000
1.899447e+003,1.169113e+000
1.900411e+003,-7.090759e-002
1.901376e+003,1.486206e-002
1.902340e+003,7.721405e-001
1.903304e+003,2.571564e+000
1.904268e+003,3.982849e+000
1.905233e+003,4.259384e+000
1.906197e+003,3.676010e+000
1.907161e+003,1.794907e+000
1.908125e+003,-3.380890e-001
1.909090e+003,-9.289093e-001
1.910054e+003,-5.233765e-002
1.911018e+003,1.423721e+000
1.911982e+003,3.039886e+000
1.912947e+003,3.826538e+000
1.913911e+003,3.051605e+000
1.914875e+003,2.010468e+000
1.915839e+003,2.870407e+000
1.916803e+003,4.886169e+000
1.917768e+003,4.151581e+000
1.918732e+003,-3.436279e-002
1.919696e+003,-1.902863e+000
1.920660e+003,-4.664307e-001
1.921625e+003,8.187103e-001
1.922589e+003,8.859863e-001
1.923553e+003,1.111435e+000
1.924517e+003,2.942947e+000
1.925481e+003,4.605515e+000
1.926446e+003,3.923615e+000
1.927410e+003,2.184937e+000
1.928374e+003,2.056213e+000
1.929338e+003,3.572464e+000
1.930303e+003,4.897263e+000
1.931267e+003,5.771622e+000
1.932231e+003,6.183243e+000
1.933195e+003,5.803116e+000
1.934160e+003,5.175308e+000
1.935124e+003,4.691666e+000
1.936088e+003,4.146423e+000
1.937052e+003,3.069168e+000
1.938017e+003,1.912811e+000
1.938981e+003,1.831879e+000
1.939945e+003,2.709976e+000
1.940909e+003,3.066040e+000
1.941874e+003,2.277817e+000
1.942838e+003,1.506882e+000
1.943802e+003,1.910553e+000
1.944766e+003,2.996292e+000
1.945730e+003,3.730103e+000
1.946695e+003,4.039185e+000
1.947659e+003,3.462860e+000
1.948623e+003,1.796234e+000
1.949587e+003,1.558411e+000
1.950552e+003,3.529785e+000
1.951516e+003,4.915924e+000
1.952480e+003,4.451981e+000
1.953444e+003,3.932938e+000
1.954408e+003,4.755051e+000
1.955373e+003,5.970657e+000
1.956337e+003,6.498215e+000
1.957301e+003,6.443314e+000
1.958265e+003,5.659637e+000
1.959230e+003,3.963821e+000
1.960194e+003,3.217026e+000
1.961158e+003,4.515793e+000
1.962122e+003,5.244278e+000
1.963087e+003,4.211685e+000
1.964051e+003,3.117157e+000
1.965015e+003,2.683823e+000
1.965979e+003,3.013397e+000
1.966944e+003,4.939072e+000
1.967908e+003,7.140564e+000
1.968872e+003,7.031860e+000
1.969836e+003,4.832581e+000
1.970801e+003,3.215790e+000
1.971765e+003,3.317001e+000
1.972729e+003,3.954056e+000
1.973693e+003,4.154175e+000
1.974657e+003,4.230545e+000
1.975622e+003,4.799759e+000
1.976586e+003,5.513107e+000
1.977550e+003,5.308029e+000
1.978514e+003,4.413818e+000
1.979479e+003,4.108475e+000
1.980443e+003,4.542343e+000
1.981407e+003,5.206436e+000
1.982371e+003,5.982529e+000
1.983335e+003,6.101044e+000
1.984300e+003,4.805923e+000
1.985264e+003,3.136169e+000
1.986228e+003,2.750778e+000
1.987192e+003,3.438324e+000
1.988157e+003,4.145096e+000
1.989121e+003,4.949722e+000
1.990085e+003,5.493881e+000
1.991049e+003,5.629074e+000
1.992014e+003,5.893997e+000
1.992978e+003,6.581131e+000
1.993942e+003,7.003860e+000
1.994906e+003,7.004715e+000
1.995871e+003,6.596573e+000
1.996835e+003,5.195755e+000
1.997799e+003,3.791580e+000
1.998763e+003,4.102493e+000
1.999728e+003,5.715088e+000
