5.003444e+002,3.435413e+001
5.013087e+002,3.275394e+001
5.022729e+002,3.214313e+001
5.032371e+002,3.262625e+001
5.042014e+002,3.380069e+001
5.051656e+002,3.555717e+001
5.061298e+002,3.712410e+001
5.070941e+002,3.775124e+001
5.080583e+002,3.717995e+001
5.090225e+002,3.651631e+001
5.099868e+002,3.579469e+001
5.109510e+002,3.497453e+001
5.119152e+002,3.390791e+001
5.128795e+002,3.256631e+001
5.138437e+002,3.165240e+001
5.148079e+002,3.181589e+001
5.157722e+002,3.214520e+001
5.167364e+002,3.240106e+001
5.177006e+002,3.239563e+001
5.186649e+002,3.190427e+001
5.196291e+002,3.019049e+001
5.205933e+002,2.847841e+001
5.215576e+002,2.817244e+001
5.225218e+002,2.917470e+001
5.234860e+002,3.055070e+001
5.244503e+002,3.078249e+001
5.254145e+002,2.962941e+001
5.263787e+002,2.878020e+001
5.273430e+002,2.843216e+001
5.283072e+002,2.825229e+001
5.292714e+002,2.764536e+001
5.302357e+002,2.592163e+001
5.311999e+002,2.484702e+001
5.321641e+002,2.543723e+001
5.331284e+002,2.637411e+001
5.340926e+002,2.642566e+001
5.350568e+002,2.500139e+001
5.360211e+002,2.343004e+001
5.369853e+002,2.335338e+001
5.379495e+002,2.379372e+001
5.389138e+002,2.400792e+001
5.398780e+002,2.363277e+001
5.408422e+002,2.272697e+001
5.418065e+002,2.115674e+001
5.427707e+002,1.909436e+001
5.437349e+002,1.806772e+001
5.446992e+002,1.871895e+001
5.456634e+002,2.049182e+001
5.466276e+002,2.147610e+001
5.475919e+002,2.084018e+001
5.485561e+002,2.046869e+001
5.495203e+002,2.040480e+001
5.504846e+002,2.053185e+001
5.514488e+002,2.088567e+001
5.524130e+002,2.199776e+001
5.533773e+002,2.230086e+001
5.543415e+002,2.049831e+001
5.553057e+002,1.795990e+001
5.562700e+002,1.602489e+001
5.572342e+002,1.549217e+001
5.581984e+002,1.580469e+001
5.591627e+002,1.583302e+001
5.601269e+002,1.575458e+001
5.610911e+002,1.575380e+001
5.620554e+002,1.588760e+001
5.630196e+002,1.607057e+001
5.639838e+002,1.604129e+001
5.649481e+002,1.558517e+001
5.659123e+002,1.524677e+001
5.668765e+002,1.550034e+001
5.678408e+002,1.615244e+001
5.688050e+002,1.638809e+001
5.697692e+002,1.542731e+001
5.707335e+002,1.433522e+001
5.716977e+002,1.370703e+001
5.726619e+002,1.319313e+001
5.736262e+002,1.214235e+001
5.745904e+002,9.986908e+000
5.755546e+002,7.848053e+000
5.765189e+002,7.211105e+000
5.774831e+002,7.582489e+000
5.784473e+002,8.635895e+000
5.794116e+002,1.019600e+001
5.803758e+002,1.217424e+001
5.813400e+002,1.184537e+001
5.823043e+002,8.143509e+000
5.832685e+002,5.081955e+000
5.842327e+002,4.538528e+000
5.851970e+002,6.190887e+000
5.861612e+002,7.318024e+000
5.871254e+002,6.559296e+000
5.880897e+002,6.187927e+000
5.890539e+002,6.848679e+000
5.900181e+002,8.063065e+000
5.909824e+002,9.061279e+000
5.919466e+002,9.447800e+000
5.929108e+002,9.382889e+000
5.938751e+002,9.060928e+000
5.948393e+002,8.554550e+000
5.958035e+002,7.950546e+000
5.967678e+002,7.335312e+000
5.977320e+002,6.796295e+000
5.986962e+002,6.504578e+000
5.996605e+002,6.197922e+000
6.006247e+002,6.329605e+000
6.015889e+002,7.567978e+000
6.025532e+002,9.782852e+000
6.035174e+002,1.083574e+001
6.044816e+002,9.214767e+000
6.054459e+002,8.032288e+000
6.064101e+002,8.017334e+000
6.073743e+002,8.677048e+000
6.083386e+002,9.059158e+000
6.093028e+002,8.624680e+000
6.102670e+002,7.988861e+000
6.112313e+002,7.342377e+000
6.121955e+002,6.889938e+000
6.131597e+002,7.186447e+000
6.141240e+002,8.557083e+000
6.150882e+002,1.033188e+001
6.160524e+002,8.931992e+000
6.170167e+002,5.018723e+000
6.179809e+002,2.148987e+000
6.189451e+002,2.133347e+000
6.199094e+002,4.482269e+000
6.208736e+002,5.918594e+000
6.218378e+002,5.791031e+000
6.228021e+002,5.700211e+000
6.237663e+002,5.762100e+000
6.247305e+002,5.992157e+000
6.256948e+002,6.397705e+000
6.266590e+002,7.059113e+000
6.276232e+002,7.328796e+000
6.285875e+002,6.598816e+000
6.295517e+002,5.690323e+000
6.305159e+002,5.628387e+000
6.314802e+002,6.863312e+000
6.324444e+002,8.515106e+000
6.334086e+002,7.992264e+000
6.343729e+002,6.087143e+000
6.353371e+002,4.346848e+000
6.363013e+002,3.208206e+000
6.372656e+002,2.632401e+000
6.382298e+002,2.634155e+000
6.391940e+002,4.431732e+000
6.401583e+002,5.017868e+000
6.411225e+002,3.413239e+000
6.420867e+002,1.352417e+000
6.430510e+002,1.048462e+000
6.440152e+002,3.584793e+000
6.449794e+002,5.593613e+000
6.459437e+002,5.066208e+000
6.469079e+002,3.633057e+000
6.478721e+002,2.447174e+000
6.488364e+002,1.996689e+000
6.498006e+002,1.967911e+000
6.507648e+002,1.633423e+000
6.517291e+002,1.223465e+000
6.526933e+002,1.688766e+000
6.536575e+002,3.271439e+000
6.546218e+002,5.056686e+000
6.555860e+002,5.213562e+000
6.565502e+002,2.319885e+000
6.575145e+002,8.146210e-001
6.584787e+002,1.695847e+000
6.594429e+002,2.992950e+000
6.604072e+002,3.064896e+000
6.613714e+002,1.569794e+000
6.623356e+002,1.988525e-001
6.632999e+002,-6.460724e-001
6.642641e+002,-1.010849e+000
6.652283e+002,-2.487946e-001
6.661926e+002,1.321045e+000
6.671568e+002,2.451569e+000
6.681210e+002,1.195343e+000
6.690853e+002,-1.356583e+000
6.700495e+002,-1.934433e+000
6.710137e+002,-5.768890e-001
6.719780e+002,1.147507e+000
6.729422e+002,1.539963e+000
6.739064e+002,2.493439e-001
6.748707e+002,-6.718597e-001
6.758349e+002,-1.299988e+000
6.767991e+002,-1.663208e+000
6.777634e+002,-1.684906e+000
6.787276e+002,-1.275970e+000
6.796918e+002,-3.626862e-001
6.806561e+002,1.899780e+000
6.816203e+002,3.456848e+000
6.825845e+002,3.119125e+000
6.835488e+002,1.629532e+000
6.845130e+002,2.172089e-001
6.854772e+002,-1.901093e-001
6.864415e+002,1.100311e-001
6.874057e+002,9.152222e-002
6.883699e+002,-2.107849e-001
6.893342e+002,-1.340790e-001
6.902984e+002,8.343506e-001
6.912626e+002,2.386612e+000
6.922269e+002,2.093063e+000
6.931911e+002,-3.105988e+000
6.941553e+002,-5.504456e+000
6.951196e+002,-2.565933e+000
6.960838e+002,2.620667e+000
6.970480e+002,5.072861e+000
6.980123e+002,2.750519e+000
6.989765e+002,3.984070e-001
6.999407e+002,-4.505768e-001
7.009050e+002,-2.657776e-001
7.018692e+002,1.093933e+000
7.028334e+002,3.394073e+000
7.037977e+002,5.531235e+000
7.047619e+002,5.608444e+000
7.057261e+002,4.392349e+000
7.066904e+002,3.070160e+000
7.076546e+002,1.820541e+000
7.086188e+002,7.329712e-001
7.095831e+002,-2.284241e-002
7.105473e+002,-3.569641e-001
7.115115e+002,-8.646393e-001
7.124758e+002,-2.035110e+000
7.134400e+002,-2.964493e+000
7.144042e+002,-3.110489e+000
7.153685e+002,-2.395432e+000
7.163327e+002,-1.063171e+000
7.172969e+002,1.877869e+000
7.182612e+002,4.441467e+000
7.192254e+002,6.095276e+000
7.201896e+002,6.596649e+000
7.211539e+002,5.471619e+000
7.221181e+002,2.084290e+000
7.230823e+002,-2.228195e+000
7.240466e+002,-3.934738e+000
7.250108e+002,-3.412567e+000
7.259750e+002,-2.010605e+000
7.269393e+002,-4.640350e-001
7.279035e+002,9.733734e-001
7.288677e+002,1.372742e+000
7.298320e+002,-3.799591e-001
7.307962e+002,-1.227325e+000
7.317604e+002,-8.331757e-001
7.327247e+002,5.571136e-001
7.336889e+002,2.869110e+000
7.346531e+002,6.469971e+000
7.356174e+002,8.709579e+000
7.365816e+002,8.466537e+000
7.375458e+002,6.857452e+000
7.385101e+002,3.786453e+000
7.394743e+002,-2.103729e-001
7.404385e+002,-3.514236e+000
7.414028e+002,-3.342209e+000
7.423670e+002,-6.053619e-001
7.433312e+002,1.305222e+000
7.442955e+002,2.410706e+000
7.452597e+002,2.814850e+000
7.462239e+002,2.257309e+000
7.471882e+002,1.081238e-001
7.481524e+002,-4.354248e-001
7.491166e+002,1.932373e+000
7.500809e+002,3.727829e+000
7.510451e+002,3.233643e+000
7.520093e+002,1.002289e+000
7.529736e+002,-6.993408e-001
7.539378e+002,-2.782593e-001
7.549020e+002,4.541016e-001
7.558663e+002,1.585388e-001
7.568306e+002,-6.028595e-001
7.577948e+002,-9.205170e-001
7.587590e+002,-3.411407e-001
7.597233e+002,4.655304e-001
7.606875e+002,-6.579895e-001
7.616517e+002,-3.315140e+000
7.626160e+002,-4.832214e+000
7.635802e+002,-4.355652e+000
7.645444e+002,-2.497604e+000
7.655087e+002,-3.157654e-001
7.664729e+002,3.105698e+000
7.674371e+002,4.495300e+000
7.684014e+002,2.425140e+000
7.693656e+002,-2.028046e-001
7.703298e+002,-1.875946e+000
7.712941e+002,-2.252670e+000
7.722583e+002,-1.414215e+000
7.732225e+002,1.914795e+000
7.741868e+002,5.175583e+000
7.751510e+002,6.008469e+000
7.761152e+002,5.019135e+000
7.770795e+002,4.118423e+000
7.780437e+002,4.988358e+000
7.790079e+002,7.152573e+000
7.799722e+002,6.115189e+000
7.809364e+002,1.553574e+000
7.819006e+002,-2.088974e+000
7.828649e+002,-2.675034e+000
7.838291e+002,-9.162292e-001
7.847933e+002,6.590729e-001
7.857576e+002,2.067886e+000
7.867218e+002,2.591568e+000
7.876860e+002,1.739441e+000
7.886503e+002,6.288910e-001
7.896145e+002,5.081177e-003
7.905787e+002,1.144867e-001
7.915430e+002,9.539795e-001
7.925072e+002,3.400345e+000
7.934714e+002,5.759491e+000
7.944357e+002,5.915802e+000
7.953999e+002,4.119171e+000
7.963641e+002,2.137436e+000
7.973284e+002,1.920410e+000
7.982926e+002,3.616013e+000
7.992568e+002,4.428238e+000
8.002211e+002,4.262680e+000
8.011853e+002,3.149460e+000
8.021495e+002,4.596252e-001
8.031138e+002,-2.903030e+000
8.040780e+002,-4.190140e+000
8.050422e+002,-1.706146e+000
8.060065e+002,5.824280e-001
8.069707e+002,1.306335e+000
8.079349e+002,1.129944e+000
8.088992e+002,4.564514e-001
8.098634e+002,-3.634491e-001
8.108276e+002,-6.226501e-001
8.117919e+002,1.248779e+000
8.127561e+002,3.855698e+000
8.137203e+002,4.628006e+000
8.146846e+002,3.446198e+000
8.156488e+002,1.729385e+000
8.166130e+002,1.063950e+000
8.175773e+002,1.509796e+000
8.185415e+002,2.474091e+000
8.195057e+002,4.765427e+000
8.204700e+002,6.252609e+000
8.214342e+002,5.680328e+000
8.223984e+002,3.764008e+000
8.233627e+002,2.431000e+000
8.243269e+002,2.490433e+000
8.252911e+002,3.070007e+000
8.262554e+002,4.136566e+000
8.272196e+002,5.017258e+000
8.281838e+002,4.494629e+000
8.291481e+002,2.435226e+000
8.301123e+002,4.598999e-001
8.310765e+002,1.826752e+000
8.320408e+002,6.111893e+000
8.330050e+002,8.084274e+000
8.339692e+002,7.112976e+000
8.349335e+002,5.057892e+000
8.358977e+002,3.680176e+000
8.368619e+002,3.102295e+000
8.378262e+002,2.876495e+000
8.387904e+002,2.981842e+000
8.397546e+002,3.215042e+000
8.407189e+002,3.695465e+000
8.416831e+002,4.260437e+000
8.426473e+002,4.559937e+000
8.436116e+002,4.348679e+000
8.445758e+002,4.345062e+000
8.455400e+002,5.446625e+000
8.465043e+002,6.805420e+000
8.474685e+002,7.613144e+000
8.484327e+002,7.779144e+000
8.493970e+002,7.821823e+000
8.503612e+002,8.456940e+000
8.513254e+002,9.791885e+000
8.522897e+002,1.030243e+001
8.532539e+002,9.698044e+000
8.542181e+002,8.602753e+000
8.551824e+002,7.307480e+000
8.561466e+002,6.008347e+000
8.571108e+002,5.151459e+000
8.580751e+002,4.155075e+000
8.590393e+002,3.937317e+000
8.600035e+002,5.635422e+000
8.609678e+002,8.021667e+000
8.619320e+002,9.695297e+000
8.628962e+002,1.007967e+001
8.638605e+002,9.819748e+000
8.648247e+002,9.430557e+000
8.657889e+002,9.289612e+000
8.667532e+002,1.081810e+001
8.677174e+002,1.418243e+001
8.686816e+002,1.721405e+001
8.696459e+002,1.721869e+001
8.706101e+002,1.366580e+001
8.715743e+002,1.165932e+001
8.725386e+002,1.221101e+001
8.735028e+002,1.287219e+001
8.744670e+002,1.247144e+001
8.754313e+002,1.170432e+001
8.763955e+002,1.230103e+001
8.773597e+002,1.535715e+001
8.783240e+002,1.823460e+001
8.792882e+002,1.856541e+001
8.802524e+002,1.805577e+001
8.812167e+002,1.829306e+001
8.821809e+002,1.949570e+001
8.831451e+002,2.066205e+001
8.841094e+002,2.044595e+001
8.850736e+002,1.906393e+001
8.860378e+002,1.921402e+001
8.870021e+002,2.118195e+001
8.879663e+002,2.310602e+001
8.889305e+002,2.417677e+001
8.898948e+002,2.433067e+001
8.908590e+002,2.323619e+001
8.918232e+002,1.910146e+001
8.927875e+002,1.704384e+001
8.937517e+002,1.948161e+001
8.947159e+002,2.317690e+001
8.956802e+002,2.554611e+001
8.966444e+002,2.587112e+001
8.976086e+002,2.501117e+001
8.985729e+002,2.335126e+001
8.995371e+002,2.179813e+001
9.005013e+002,2.178531e+001
9.014656e+002,2.317252e+001
9.024298e+002,2.491599e+001
9.033940e+002,2.620238e+001
9.043583e+002,2.690718e+001
9.053225e+002,2.694847e+001
9.062867e+002,2.536363e+001
9.072510e+002,2.414113e+001
9.082152e+002,2.366655e+001
9.091794e+002,2.366777e+001
9.101437e+002,2.391017e+001
9.111079e+002,2.434650e+001
9.120721e+002,2.476559e+001
9.130364e+002,2.473779e+001
9.140006e+002,2.467920e+001
9.149648e+002,2.512839e+001
9.159291e+002,2.591748e+001
9.168933e+002,2.652396e+001
9.178575e+002,2.651810e+001
9.188218e+002,2.598027e+001
9.197860e+002,2.542085e+001
9.207502e+002,2.479579e+001
9.217145e+002,2.373082e+001
9.226787e+002,2.197075e+001
9.236429e+002,2.024501e+001
9.246072e+002,1.947353e+001
9.255714e+002,1.970789e+001
9.265356e+002,2.005780e+001
9.274999e+002,2.063354e+001
9.284641e+002,2.089966e+001
9.294283e+002,2.039975e+001
9.303926e+002,1.962573e+001
9.313568e+002,1.977347e+001
9.323210e+002,2.157312e+001
9.332853e+002,2.305962e+001
9.342495e+002,1.925673e+001
9.352137e+002,1.333055e+001
9.361780e+002,1.061131e+001
9.371422e+002,1.232149e+001
9.381064e+002,1.602483e+001
9.390707e+002,1.839250e+001
9.400349e+002,1.909363e+001
9.409991e+002,1.972180e+001
9.419634e+002,2.050897e+001
9.429276e+002,2.087732e+001
9.438918e+002,2.073856e+001
9.448561e+002,2.012177e+001
9.458203e+002,1.881470e+001
9.467845e+002,1.653064e+001
9.477488e+002,1.493007e+001
9.487130e+002,1.600331e+001
9.496772e+002,1.767674e+001
9.506415e+002,1.833827e+001
9.516057e+002,1.791954e+001
9.525699e+002,1.728664e+001
9.535342e+002,1.727867e+001
9.544984e+002,1.771147e+001
9.554626e+002,1.735791e+001
9.564269e+002,1.622726e+001
9.573911e+002,1.544157e+001
9.583553e+002,1.565555e+001
9.593196e+002,1.614221e+001
9.602838e+002,1.540836e+001
9.612480e+002,1.277222e+001
9.622123e+002,1.140997e+001
9.631765e+002,1.368582e+001
9.641407e+002,1.605415e+001
9.651050e+002,1.681737e+001
9.660692e+002,1.624815e+001
9.670334e+002,1.524683e+001
9.679977e+002,1.441281e+001
9.689619e+002,1.423541e+001
9.699261e+002,1.654608e+001
9.708904e+002,2.015054e+001
9.718546e+002,2.123569e+001
9.728188e+002,1.838705e+001
9.737831e+002,1.498041e+001
9.747473e+002,1.631903e+001
9.757115e+002,2.400919e+001
9.766758e+002,2.789700e+001
9.776400e+002,2.497105e+001
9.786042e+002,2.212947e+001
9.795685e+002,2.118062e+001
9.805327e+002,2.093251e+001
9.814969e+002,1.943501e+001
9.824612e+002,1.612355e+001
9.834254e+002,1.312878e+001
9.843896e+002,1.308214e+001
9.853539e+002,1.392126e+001
9.863181e+002,1.324603e+001
9.872823e+002,1.110681e+001
9.882466e+002,9.104965e+000
9.892108e+002,8.745377e+000
9.901750e+002,9.951599e+000
9.911393e+002,1.080737e+001
9.921035e+002,1.019177e+001
9.930677e+002,1.031790e+001
9.940320e+002,1.232748e+001
9.949962e+002,1.456961e+001
9.959604e+002,1.502289e+001
9.969247e+002,1.371211e+001
9.978889e+002,1.376627e+001
9.988531e+002,1.822604e+001
9.998174e+002,2.199783e+001
1.000782e+003,2.166165e+001
1.001746e+003,1.903619e+001
1.002710e+003,1.657095e+001
1.003674e+003,1.544754e+001
1.004639e+003,1.538913e+001
1.005603e+003,1.604449e+001
1.006567e+003,1.744669e+001
1.007531e+003,1.791759e+001
1.008495e+003,1.734404e+001
1.009460e+003,1.621419e+001
1.010424e+003,1.437082e+001
1.011388e+003,1.218793e+001
1.012352e+003,1.115256e+001
1.013317e+003,1.182036e+001
1.014281e+003,1.277136e+001
1.015245e+003,1.415205e+001
1.016209e+003,1.496608e+001
1.017174e+003,1.420193e+001
1.018138e+003,1.212834e+001
1.019102e+003,1.004549e+001
1.020066e+003,9.079330e+000
1.021031e+003,8.807968e+000
1.021995e+003,7.510925e+000
1.022959e+003,5.326797e+000
1.023923e+003,3.738861e+000
1.024887e+003,3.180069e+000
1.025852e+003,3.455597e+000
1.026816e+003,4.901932e+000
1.027780e+003,8.475189e+000
1.028744e+003,9.130875e+000
1.029709e+003,2.460373e+000
1.030673e+003,-2.481339e+000
1.031637e+003,-1.792740e+000
1.032601e+003,1.659988e+000
1.033566e+003,3.806503e+000
1.034530e+003,3.251923e+000
1.035494e+003,1.783371e+000
1.036458e+003,1.118713e+000
1.037422e+003,8.309479e-001
1.038387e+003,-2.952576e-002
1.039351e+003,-1.374390e+000
1.040315e+003,-1.884781e+000
1.041279e+003,-3.250732e-001
1.042244e+003,2.699203e+000
1.043208e+003,3.810501e+000
1.044172e+003,1.013184e+000
1.045136e+003,-6.005554e-001
1.046101e+003,-2.726746e-001
1.047065e+003,6.573792e-001
1.048029e+003,1.574646e+000
1.048993e+003,2.292953e+000
1.049958e+003,2.562607e+000
1.050922e+003,2.117386e+000
1.051886e+003,1.828323e+000
1.052850e+003,3.013000e+000
1.053814e+003,4.625565e+000
1.054779e+003,5.125305e+000
1.055743e+003,4.262878e+000
1.056707e+003,3.133850e+000
1.057671e+003,3.097672e+000
1.058636e+003,4.135864e+000
1.059600e+003,4.368271e+000
1.060564e+003,3.009491e+000
1.061528e+003,2.370331e+000
1.062493e+003,3.085556e+000
1.063457e+003,4.185181e+000
1.064421e+003,4.940216e+000
1.065385e+003,5.286896e+000
1.066349e+003,4.658325e+000
1.067314e+003,1.311340e+000
1.068278e+003,-1.284576e+000
1.069242e+003,4.249268e-001
1.070206e+003,4.160873e+000
1.071171e+003,6.052979e+000
1.072135e+003,4.526535e+000
1.073099e+003,1.395569e+000
1.074063e+003,-1.959229e-001
1.075028e+003,-3.773499e-002
1.075992e+003,2.557373e-002
1.076956e+003,-3.715668e-001
1.077920e+003,-4.825897e-001
1.078885e+003,4.727020e-001
1.079849e+003,1.898895e+000
1.080813e+003,2.587128e+000
1.081777e+003,2.309036e+000
1.082741e+003,1.807526e+000
1.083706e+003,8.107147e-001
1.084670e+003,-2.717590e-002
1.085634e+003,-9.693909e-002
1.086598e+003,2.531128e-001
1.087563e+003,2.041168e-001
1.088527e+003,-5.760956e-001
1.089491e+003,-1.280182e+000
1.090455e+003,-4.081726e-001
1.091420e+003,2.149246e+000
1.092384e+003,3.977463e+000
1.093348e+003,5.155975e+000
1.094312e+003,5.333862e+000
1.095276e+003,4.036835e+000
1.096241e+003,1.755615e+000
1.097205e+003,-4.191437e-001
1.098169e+003,-2.818069e+000
1.099133e+003,-4.082336e+000
1.100098e+003,-3.142395e+000
1.101062e+003,-1.436829e+000
1.102026e+003,7.706299e-001
1.102990e+003,2.945480e+000
1.103955e+003,4.087814e+000
1.104919e+003,3.603287e+000
1.105883e+003,2.428894e+000
1.106847e+003,2.776688e+000
1.107812e+003,4.645370e+000
1.108776e+003,5.679779e+000
1.109740e+003,5.855438e+000
1.110704e+003,5.051544e+000
1.111668e+003,2.508286e+000
1.112633e+003,-1.056793e+000
1.113597e+003,-2.709518e+000
1.114561e+003,-1.599533e+000
1.115525e+003,-1.360474e-001
1.116490e+003,1.267227e+000
1.117454e+003,2.367966e+000
1.118418e+003,3.147568e+000
1.119382e+003,3.628204e+000
1.120347e+003,3.613983e+000
1.121311e+003,2.884583e+000
1.122275e+003,1.809418e+000
1.123239e+003,1.538803e+000
1.124203e+003,2.186218e+000
1.125168e+003,2.822601e+000
1.126132e+003,3.493439e+000
1.127096e+003,3.977814e+000
1.128060e+003,3.670929e+000
1.129025e+003,2.850464e+000
1.129989e+003,3.267059e+000
1.130953e+003,5.883911e+000
1.131917e+003,7.632401e+000
1.132882e+003,7.355988e+000
1.133846e+003,6.559097e+000
1.134810e+003,5.942413e+000
1.135774e+003,5.625610e+000
1.136739e+003,5.257477e+000
1.137703e+003,4.659225e+000
1.138667e+003,4.781036e+000
1.139631e+003,8.052078e+000
1.140595e+003,1.380293e+001
1.141560e+003,1.622658e+001
1.142524e+003,1.413554e+001
1.143488e+003,1.242638e+001
1.144452e+003,1.445326e+001
1.145417e+003,1.945427e+001
1.146381e+003,2.493355e+001
1.147345e+003,3.139813e+001
1.148309e+003,3.655377e+001
1.149274e+003,3.893484e+001
1.150238e+003,4.105701e+001
1.151202e+003,4.421472e+001
1.152166e+003,4.820111e+001
1.153130e+003,5.258353e+001
1.154095e+003,5.693103e+001
1.155059e+003,6.025368e+001
1.156023e+003,6.126689e+001
1.156987e+003,6.011058e+001
1.157952e+003,5.839082e+001
1.158916e+003,5.639497e+001
1.159880e+003,5.367101e+001
1.160844e+003,4.887367e+001
1.161809e+003,4.308414e+001
1.162773e+003,3.945999e+001
1.163737e+003,3.872171e+001
1.164701e+003,3.702081e+001
1.165666e+003,3.220862e+001
1.166630e+003,2.764450e+001
1.167594e+003,2.438263e+001
1.168558e+003,2.217755e+001
1.169522e+003,2.097008e+001
1.170487e+003,2.047704e+001
1.171451e+003,1.952760e+001
1.172415e+003,1.648036e+001
1.173379e+003,1.216817e+001
1.174344e+003,1.185068e+001
1.175308e+003,1.584242e+001
1.176272e+003,1.827274e+001
1.177236e+003,1.594635e+001
1.178201e+003,1.223288e+001
1.179165e+003,1.171144e+001
1.180129e+003,1.433508e+001
1.181093e+003,1.587146e+001
1.182057e+003,1.529730e+001
1.183022e+003,1.382312e+001
1.183986e+003,1.059363e+001
1.184950e+003,7.730576e+000
1.185914e+003,7.922272e+000
1.186879e+003,1.081326e+001
1.187843e+003,1.345337e+001
1.188807e+003,1.338524e+001
1.189771e+003,1.155769e+001
1.190736e+003,1.101802e+001
1.191700e+003,1.193512e+001
1.192664e+003,1.225916e+001
1.193628e+003,1.157661e+001
1.194593e+003,1.074901e+001
1.195557e+003,1.062463e+001
1.196521e+003,1.082109e+001
1.197485e+003,9.631317e+000
1.198449e+003,5.866669e+000
1.199414e+003,3.795853e+000
1.200378e+003,7.442780e+000
1.201342e+003,1.151810e+001
1.202306e+003,1.305919e+001
1.203271e+003,1.218692e+001
1.204235e+003,9.675232e+000
1.205199e+003,6.141922e+000
1.206163e+003,2.446121e+000
1.207128e+003,-2.758789e-002
1.208092e+003,-1.209030e+000
1.209056e+003,-1.565231e+000
1.210020e+003,-4.707489e-001
1.210984e+003,8.526611e-002
1.211949e+003,-8.136292e-001
1.212913e+003,-2.389328e+000
1.213877e+003,-3.735825e+000
1.214841e+003,-4.730347e+000
1.215806e+003,-5.203186e+000
1.216770e+003,-4.458405e+000
1.217734e+003,-4.276596e+000
1.218698e+003,-6.448898e+000
1.219663e+003,-9.537537e+000
1.220627e+003,-1.211618e+001
1.221591e+003,-1.366516e+001
1.222555e+003,-1.383482e+001
1.223520e+003,-1.221426e+001
1.224484e+003,-9.256683e+000
1.225448e+003,-7.363968e+000
1.226412e+003,-7.054153e+000
1.227376e+003,-6.868042e+000
1.228341e+003,-6.743393e+000
1.229305e+003,-6.891220e+000
1.230269e+003,-7.629028e+000
1.231233e+003,-8.679062e+000
1.232198e+003,-9.442886e+000
1.233162e+003,-9.706070e+000
1.234126e+003,-9.717041e+000
1.235090e+003,-9.437485e+000
1.236055e+003,-9.386520e+000
1.237019e+003,-1.068878e+001
1.237983e+003,-1.263832e+001
1.238947e+003,-1.296271e+001
1.239911e+003,-1.068759e+001
1.240876e+003,-7.829514e+000
1.241840e+003,-7.559036e+000
1.242804e+003,-1.004619e+001
1.243768e+003,-1.179340e+001
1.244733e+003,-1.281818e+001
1.245697e+003,-1.292012e+001
1.246661e+003,-1.134627e+001
1.247625e+003,-9.730408e+000
1.248590e+003,-9.430435e+000
1.249554e+003,-1.002194e+001
1.250518e+003,-9.884003e+000
1.251482e+003,-8.252747e+000
1.252447e+003,-6.869736e+000
1.253411e+003,-8.144348e+000
1.254375e+003,-1.084058e+001
1.255339e+003,-1.268594e+001
1.256303e+003,-1.348276e+001
1.257268e+003,-1.301155e+001
1.258232e+003,-1.088620e+001
1.259196e+003,-8.069382e+000
1.260160e+003,-6.453110e+000
1.261125e+003,-6.232468e+000
1.262089e+003,-5.354767e+000
1.263053e+003,-2.459442e+000
1.264017e+003,-6.281738e-001
1.264982e+003,-1.386337e+000
1.265946e+003,-2.824921e+000
1.266910e+003,-2.909012e+000
1.267874e+003,-1.795425e+000
1.268839e+003,-1.236679e+000
1.269803e+003,-2.391739e+000
1.270767e+003,-4.417007e+000
1.271731e+003,-5.705872e+000
1.272695e+003,-6.210464e+000
1.273660e+003,-6.904572e+000
1.274624e+003,-8.271301e+000
1.275588e+003,-9.111404e+000
1.276552e+003,-8.095779e+000
1.277517e+003,-6.210052e+000
1.278481e+003,-5.457764e+000
1.279445e+003,-6.036835e+000
1.280409e+003,-7.014542e+000
1.281374e+003,-8.787201e+000
1.282338e+003,-9.891861e+000
1.283302e+003,-8.848587e+000
1.284266e+003,-7.266953e+000
1.285230e+003,-7.351349e+000
1.286195e+003,-9.062851e+000
1.287159e+003,-1.026813e+001
1.288123e+003,-9.157104e+000
1.289087e+003,-6.576141e+000
1.290052e+003,-5.370438e+000
1.291016e+003,-6.151901e+000
1.291980e+003,-6.513840e+000
1.292944e+003,-5.823624e+000
1.293909e+003,-5.772247e+000
1.294873e+003,-7.465332e+000
1.295837e+003,-9.722260e+000
1.296801e+003,-1.089622e+001
1.297766e+003,-1.081067e+001
1.298730e+003,-1.064337e+001
1.299694e+003,-1.126773e+001
1.300658e+003,-1.171100e+001
1.301622e+003,-1.020091e+001
1.302587e+003,-7.964828e+000
1.303551e+003,-7.174515e+000
1.304515e+003,-8.082428e+000
1.305479e+003,-9.267685e+000
1.306444e+003,-9.688614e+000
1.307408e+003,-9.577484e+000
1.308372e+003,-9.546936e+000
1.309336e+003,-9.709198e+000
1.310301e+003,-9.628036e+000
1.311265e+003,-8.694504e+000
1.312229e+003,-8.112503e+000
1.313193e+003,-8.853638e+000
1.314157e+003,-9.763245e+000
1.315122e+003,-9.266479e+000
1.316086e+003,-7.575684e+000
1.317050e+003,-6.559204e+000
1.318014e+003,-7.450073e+000
1.318979e+003,-9.028671e+000
1.319943e+003,-9.075027e+000
1.320907e+003,-7.753937e+000
1.321871e+003,-7.172256e+000
1.322836e+003,-7.686279e+000
1.323800e+003,-8.524689e+000
1.324764e+003,-9.565781e+000
1.325728e+003,-1.048630e+001
1.326693e+003,-1.068343e+001
1.327657e+003,-1.019330e+001
1.328621e+003,-9.780182e+000
1.329585e+003,-9.241913e+000
1.330549e+003,-8.827576e+000
1.331514e+003,-9.099548e+000
1.332478e+003,-9.688492e+000
1.333442e+003,-1.008279e+001
1.334406e+003,-1.027936e+001
1.335371e+003,-1.091965e+001
1.336335e+003,-1.232819e+001
1.337299e+003,-1.329787e+001
1.338263e+003,-1.134642e+001
1.339228e+003,-5.856461e+000
1.340192e+003,-3.243225e+000
1.341156e+003,-5.786942e+000
1.342120e+003,-7.636139e+000
1.343084e+003,-7.899719e+000
1.344049e+003,-7.465912e+000
1.345013e+003,-6.508362e+000
1.345977e+003,-5.358505e+000
1.346941e+003,-5.010818e+000
1.347906e+003,-5.881790e+000
1.348870e+003,-6.791290e+000
1.349834e+003,-6.641937e+000
1.350798e+003,-5.908936e+000
1.351763e+003,-5.379639e+000
1.352727e+003,-5.013519e+000
1.353691e+003,-4.726318e+000
1.354655e+003,-4.480408e+000
1.355620e+003,-4.265060e+000
1.356584e+003,-4.175400e+000
1.357548e+003,-4.110153e+000
1.358512e+003,-3.273712e+000
1.359476e+003,-9.010162e-001
1.360441e+003,-1.421967e-001
1.361405e+003,-3.630936e+000
1.362369e+003,-6.756546e+000
1.363333e+003,-6.958313e+000
1.364298e+003,-5.509109e+000
1.365262e+003,-4.099091e+000
1.366226e+003,-3.377716e+000
1.367190e+003,-3.450836e+000
1.368155e+003,-4.440552e+000
1.369119e+003,-5.926605e+000
1.370083e+003,-6.583237e+000
1.371047e+003,-6.299301e+000
1.372011e+003,-5.085007e+000
1.372976e+003,-1.488266e+000
1.373940e+003,8.291168e-001
1.374904e+003,-2.719727e-001
1.375868e+003,-2.758575e+000
1.376833e+003,-4.335831e+000
1.377797e+003,-4.789047e+000
1.378761e+003,-4.553436e+000
1.379725e+003,-3.519257e+000
1.380690e+003,-2.676071e+000
1.381654e+003,-3.801819e+000
1.382618e+003,-5.316147e+000
1.383582e+003,-4.450912e+000
1.384547e+003,-1.500870e+000
1.385511e+003,2.572327e-001
1.386475e+003,-1.128754e+000
1.387439e+003,-3.606110e+000
1.388403e+003,-3.645538e+000
1.389368e+003,-1.272171e+000
1.390332e+003,-7.717896e-001
1.391296e+003,-3.350510e+000
1.392260e+003,-5.445297e+000
1.393225e+003,-6.096405e+000
1.394189e+003,-6.339508e+000
1.395153e+003,-6.713104e+000
1.396117e+003,-7.074554e+000
1.397082e+003,-6.822769e+000
1.398046e+003,-5.998642e+000
1.399010e+003,-5.880280e+000
1.399974e+003,-7.792648e+000
1.400938e+003,-1.061383e+001
1.401903e+003,-1.021790e+001
1.402867e+003,-5.074661e+000
1.403831e+003,-1.939667e+000
1.404795e+003,-2.434296e+000
1.405760e+003,-2.937698e+000
1.406724e+003,-1.816803e+000
1.407688e+003,-7.467346e-001
1.408652e+003,-2.097641e+000
1.409617e+003,-5.271515e+000
1.410581e+003,-6.823959e+000
1.411545e+003,-5.174850e+000
1.412509e+003,-2.843658e+000
1.413474e+003,-2.163513e+000
1.414438e+003,-2.638687e+000
1.415402e+003,-3.321060e+000
1.416366e+003,-4.037811e+000
1.417330e+003,-4.708572e+000
1.418295e+003,-5.427338e+000
1.419259e+003,-5.603317e+000
1.420223e+003,-4.215408e+000
1.421187e+003,-1.679779e+000
1.422152e+003,-1.268616e-001
1.423116e+003,4.513245e-001
1.424080e+003,3.309326e-001
1.425044e+003,-1.856094e+000
1.426009e+003,-3.416794e+000
1.426973e+003,-2.464554e+000
1.427937e+003,-7.308960e-001
1.428901e+003,-3.637543e-001
1.429865e+003,-1.392151e+000
1.430830e+003,-2.411331e+000
1.431794e+003,-2.537460e+000
1.432758e+003,-2.074173e+000
1.433722e+003,-1.408615e+000
1.434687e+003,-2.939453e-001
1.435651e+003,2.346344e-001
1.436615e+003,-1.225708e+000
1.437579e+003,-2.010971e+000
1.438544e+003,-8.802032e-001
1.439508e+003,7.435608e-002
1.440472e+003,-1.181564e+000
1.441436e+003,-3.261597e+000
1.442401e+003,-3.240143e+000
1.443365e+003,-6.347656e-001
1.444329e+003,2.048035e+000
1.445293e+003,3.047272e+000
1.446257e+003,2.991318e+000
1.447222e+003,2.894394e+000
1.448186e+003,2.683167e+000
1.449150e+003,1.886932e+000
1.450114e+003,1.633453e-001
1.451079e+003,-1.091949e+000
1.452043e+003,-7.956696e-001
1.453007e+003,2.715302e-001
1.453971e+003,1.103790e+000
1.454936e+003,1.618134e+000
1.455900e+003,1.745361e+000
1.456864e+003,1.493896e+000
1.457828e+003,9.941711e-001
1.458792e+003,-4.856873e-001
1.459757e+003,-1.593475e+000
1.460721e+003,-4.735565e-001
1.461685e+003,1.676788e+000
1.462649e+003,2.209335e+000
1.463614e+003,6.062622e-001
1.464578e+003,-1.133698e+000
1.465542e+003,-1.297409e+000
1.466506e+003,-3.878632e-001
1.467471e+003,4.307251e-001
1.468435e+003,1.470383e+000
1.469399e+003,1.569763e+000
1.470363e+003,-7.671661e-001
1.471328e+003,-2.303940e+000
1.472292e+003,-2.251877e+000
1.473256e+003,-1.514404e+000
1.474220e+003,-3.276062e-002
1.475184e+003,1.649063e+000
1.476149e+003,2.544403e+000
1.477113e+003,2.307404e+000
1.478077e+003,1.437653e+000
1.479041e+003,4.844971e-001
1.480006e+003,-2.707520e-001
1.480970e+003,-8.059692e-002
1.481934e+003,1.286652e+000
1.482898e+003,2.047440e+000
1.483863e+003,1.704010e+000
1.484827e+003,1.464325e+000
1.485791e+003,1.764297e+000
1.486755e+003,2.401627e+000
1.487719e+003,3.298492e+000
1.488684e+003,4.209488e+000
1.489648e+003,4.654266e+000
1.490612e+003,4.557861e+000
1.491576e+003,4.539642e+000
1.492541e+003,5.047134e+000
1.493505e+003,5.887360e+000
1.494469e+003,6.708939e+000
1.495433e+003,7.394958e+000
1.496398e+003,8.111160e+000
1.497362e+003,9.169785e+000
1.498326e+003,1.000513e+001
1.499290e+003,9.803619e+000
1.500255e+003,9.536133e+000
1.501219e+003,1.057866e+001
1.502183e+003,1.274338e+001
1.503147e+003,1.496164e+001
1.504111e+003,1.699155e+001
1.505076e+003,1.909207e+001
1.506040e+003,2.118857e+001
1.507004e+003,2.374472e+001
1.507968e+003,2.754276e+001
1.508933e+003,3.198662e+001
1.509897e+003,3.562608e+001
1.510861e+003,3.844185e+001
1.511825e+003,4.226985e+001
1.512790e+003,4.857307e+001
1.513754e+003,5.588951e+001
1.514718e+003,6.148720e+001
1.515682e+003,6.527942e+001
1.516646e+003,6.948962e+001
1.517611e+003,7.496127e+001
1.518575e+003,7.960202e+001
1.519539e+003,8.263199e+001
1.520503e+003,8.501620e+001
1.521468e+003,8.744217e+001
1.522432e+003,8.928906e+001
1.523396e+003,8.994533e+001
1.524360e+003,8.910960e+001
1.525325e+003,8.603261e+001
1.526289e+003,8.026439e+001
1.527253e+003,7.407701e+001
1.528217e+003,7.191179e+001
1.529182e+003,7.395177e+001
1.530146e+003,7.185684e+001
1.531110e+003,6.229050e+001
1.532074e+003,5.461063e+001
1.533039e+003,5.091815e+001
1.534003e+003,4.685770e+001
1.534967e+003,4.001874e+001
1.535931e+003,3.259561e+001
1.536896e+003,2.705835e+001
1.537860e+003,2.353218e+001
1.538824e+003,2.072377e+001
1.539788e+003,1.789668e+001
1.540752e+003,1.541103e+001
1.541717e+003,1.385490e+001
1.542681e+003,1.317406e+001
1.543645e+003,1.262816e+001
1.544609e+003,1.241167e+001
1.545573e+003,1.218576e+001
1.546538e+003,1.179129e+001
1.547502e+003,1.122452e+001
1.548466e+003,1.007036e+001
1.549430e+003,9.403809e+000
1.550395e+003,1.105466e+001
1.551359e+003,1.391592e+001
1.552323e+003,1.458011e+001
1.553287e+003,1.200636e+001
1.554252e+003,8.943085e+000
1.555216e+003,7.741898e+000
1.556180e+003,7.762589e+000
1.557144e+003,7.715591e+000
1.558109e+003,7.641251e+000
1.559073e+003,6.961945e+000
1.560037e+003,4.927200e+000
1.561001e+003,3.440018e+000
1.561966e+003,3.705444e+000
1.562930e+003,4.580154e+000
1.563894e+003,4.925690e+000
1.564858e+003,4.889801e+000
1.565823e+003,5.164124e+000
1.566787e+003,5.828720e+000
1.567751e+003,6.118820e+000
1.568715e+003,5.583237e+000
1.569679e+003,4.723984e+000
1.570644e+003,3.870956e+000
1.571608e+003,3.139236e+000
1.572572e+003,3.091675e+000
1.573536e+003,3.837967e+000
1.574500e+003,4.901215e+000
1.575465e+003,6.312119e+000
1.576429e+003,7.596863e+000
1.577393e+003,8.484512e+000
1.578357e+003,8.832382e+000
1.579322e+003,8.188614e+000
1.580286e+003,6.679108e+000
1.581250e+003,5.552307e+000
1.582214e+003,5.099258e+000
1.583179e+003,5.456818e+000
1.584143e+003,7.537140e+000
1.585107e+003,9.611404e+000
1.586071e+003,9.134216e+000
1.587036e+003,7.055527e+000
1.588000e+003,5.928116e+000
1.588964e+003,6.229431e+000
1.589928e+003,6.914932e+000
1.590893e+003,7.498611e+000
1.591857e+003,7.935272e+000
1.592821e+003,7.906845e+000
1.593785e+003,7.625717e+000
1.594750e+003,8.479492e+000
1.595714e+003,1.088806e+001
1.596678e+003,1.232684e+001
1.597642e+003,1.121306e+001
1.598606e+003,9.700409e+000
1.599571e+003,9.436874e+000
1.600535e+003,9.940155e+000
1.601499e+003,1.070952e+001
1.602463e+003,1.159984e+001
1.603427e+003,1.257841e+001
1.604392e+003,1.374509e+001
1.605356e+003,1.420343e+001
1.606320e+003,1.242819e+001
1.607284e+003,9.458603e+000
1.608249e+003,8.424789e+000
1.609213e+003,9.404617e+000
1.610177e+003,1.005223e+001
1.611141e+003,9.827820e+000
1.612106e+003,9.648590e+000
1.613070e+003,9.897781e+000
1.614034e+003,1.039244e+001
1.614998e+003,1.124413e+001
1.615963e+003,1.216603e+001
1.616927e+003,1.274278e+001
1.617891e+003,1.283934e+001
1.618855e+003,1.224319e+001
1.619820e+003,1.065182e+001
1.620784e+003,8.823685e+000
1.621748e+003,8.119919e+000
1.622712e+003,8.534378e+000
1.623677e+003,8.842911e+000
1.624641e+003,8.885361e+000
1.625605e+003,9.967346e+000
1.626569e+003,1.349440e+001
1.627533e+003,1.552147e+001
1.628498e+003,1.261159e+001
1.629462e+003,9.115540e+000
1.630426e+003,9.057922e+000
1.631390e+003,1.122874e+001
1.632354e+003,1.251866e+001
1.633319e+003,1.215540e+001
1.634283e+003,1.135861e+001
1.635247e+003,1.089771e+001
1.636211e+003,1.085062e+001
1.637176e+003,1.177994e+001
1.638140e+003,1.360480e+001
1.639104e+003,1.414310e+001
1.640068e+003,1.302689e+001
1.641033e+003,1.147713e+001
1.641997e+003,8.532684e+000
1.642961e+003,7.177246e+000
1.643925e+003,1.069725e+001
1.644890e+003,1.487520e+001
1.645854e+003,1.501591e+001
1.646818e+003,1.224004e+001
1.647782e+003,1.027989e+001
1.648747e+003,1.031946e+001
1.649711e+003,1.138531e+001
1.650675e+003,1.314685e+001
1.651639e+003,1.461661e+001
1.652604e+003,1.271924e+001
1.653568e+003,7.600876e+000
1.654532e+003,5.856491e+000
1.655496e+003,8.850021e+000
1.656460e+003,1.155782e+001
1.657425e+003,1.269649e+001
1.658389e+003,1.314680e+001
1.659353e+003,1.337816e+001
1.660317e+003,1.323875e+001
1.661281e+003,1.222789e+001
1.662246e+003,1.068221e+001
1.663210e+003,9.660660e+000
1.664174e+003,9.544312e+000
1.665138e+003,9.816711e+000
1.666103e+003,1.014444e+001
1.667067e+003,1.023904e+001
1.668031e+003,9.428452e+000
1.668995e+003,7.827789e+000
1.669960e+003,6.534531e+000
1.670924e+003,5.523056e+000
1.671888e+003,5.508163e+000
1.672852e+003,7.606918e+000
1.673817e+003,9.317749e+000
1.674781e+003,8.407562e+000
1.675745e+003,6.769150e+000
1.676709e+003,6.790298e+000
1.677674e+003,7.934677e+000
1.678638e+003,7.731918e+000
1.679602e+003,5.446274e+000
1.680566e+003,3.665787e+000
1.681531e+003,4.655853e+000
1.682495e+003,7.137848e+000
1.683459e+003,9.332474e+000
1.684423e+003,1.098865e+001
1.685387e+003,1.048232e+001
1.686352e+003,7.313858e+000
1.687316e+003,5.301559e+000
1.688280e+003,6.111481e+000
1.689244e+003,7.482346e+000
1.690208e+003,7.943634e+000
1.691173e+003,7.881821e+000
1.692137e+003,7.643478e+000
1.693101e+003,7.371490e+000
1.694065e+003,7.104813e+000
1.695030e+003,6.735779e+000
1.695994e+003,6.562653e+000
1.696958e+003,7.304520e+000
1.697922e+003,7.813385e+000
1.698887e+003,6.140854e+000
1.699851e+003,3.170731e+000
1.700815e+003,1.520065e+000
1.701779e+003,1.350296e+000
1.702744e+003,1.615387e+000
1.703708e+003,2.267776e+000
1.704672e+003,2.728088e+000
1.705636e+003,2.265396e+000
1.706601e+003,1.345276e+000
1.707565e+003,9.019623e-001
1.708529e+003,8.433075e-001
1.709493e+003,5.302734e-001
1.710458e+003,-1.888428e-001
1.711422e+003,-6.029358e-001
1.712386e+003,-5.255127e-001
1.713350e+003,2.690735e-001
1.714314e+003,2.618683e+000
1.715279e+003,5.222412e+000
1.716243e+003,5.743118e+000
1.717207e+003,4.467712e+000
1.718171e+003,3.635681e+000
1.719135e+003,3.893951e+000
1.720100e+003,3.889755e+000
1.721064e+003,2.482239e+000
1.722028e+003,9.581146e-001
1.722992e+003,1.763306e+000
1.723957e+003,4.276657e+000
1.724921e+003,3.808685e+000
1.725885e+003,-5.834808e-001
1.726849e+003,-3.111725e+000
1.727814e+003,-1.561523e+000
1.728778e+003,6.431732e-001
1.729742e+003,2.938995e+000
1.730706e+003,4.342636e+000
1.731671e+003,3.068893e+000
1.732635e+003,2.447510e-001
1.733599e+003,-1.577759e+000
1.734563e+003,-1.825226e+000
1.735528e+003,-1.345825e+000
1.736492e+003,-6.483154e-001
1.737456e+003,2.400665e-001
1.738420e+003,1.354584e+000
1.739385e+003,2.415482e+000
1.740349e+003,2.738571e+000
1.741313e+003,2.331772e+000
1.742277e+003,1.591797e+000
1.743241e+003,-3.291016e-001
1.744206e+003,-1.055420e+000
1.745170e+003,8.461761e-001
1.746134e+003,2.572021e+000
1.747098e+003,2.287476e+000
1.748063e+003,1.192902e+000
1.749027e+003,7.155609e-001
1.749991e+003,8.544617e-001
1.750955e+003,7.386627e-001
1.751919e+003,1.791229e-001
1.752884e+003,3.142700e-001
1.753848e+003,2.123291e+000
1.754812e+003,4.273926e+000
1.755776e+003,4.074554e+000
1.756741e+003,1.707169e+000
1.757705e+003,-5.313263e-001
1.758669e+003,-3.257111e+000
1.759633e+003,-4.267639e+000
1.760598e+003,-1.553406e+000
1.761562e+003,1.450043e-001
1.762526e+003,-1.486359e+000
1.763490e+003,-3.433487e+000
1.764455e+003,-3.570465e+000
1.765419e+003,-2.555145e+000
1.766383e+003,-1.461655e+000
1.767347e+003,-6.726990e-001
1.768312e+003,-3.753204e-001
1.769276e+003,-6.906281e-001
1.770240e+003,-1.582184e+000
1.771204e+003,-3.154358e+000
1.772168e+003,-4.784607e+000
1.773133e+003,-5.276093e+000
1.774097e+003,-4.707672e+000
1.775061e+003,-3.590073e+000
1.776025e+003,-1.898270e+000
1.776990e+003,-1.250305e+000
1.777954e+003,-2.657410e+000
1.778918e+003,-3.744720e+000
1.779882e+003,-2.337784e+000
1.780846e+003,-2.419586e-001
1.781811e+003,-5.813599e-003
1.782775e+003,-1.004868e+000
1.783739e+003,-1.124954e+000
1.784703e+003,6.695557e-002
1.785668e+003,9.668274e-001
1.786632e+003,6.088867e-001
1.787596e+003,-1.228790e-001
1.788560e+003,-5.858154e-001
1.789525e+003,-7.159119e-001
1.790489e+003,-3.017731e-001
1.791453e+003,2.805023e-001
1.792417e+003,-5.094910e-002
1.793382e+003,-1.409866e+000
1.794346e+003,-2.789444e+000
1.795310e+003,-3.738861e+000
1.796274e+003,-3.594849e+000
1.797239e+003,-1.139984e+000
1.798203e+003,2.488403e+000
1.799167e+003,2.963501e+000
1.800131e+003,-6.954041e-001
1.801095e+003,-2.602127e+000
1.802060e+003,-1.422363e+000
1.803024e+003,-3.313904e-001
1.803988e+003,6.452942e-001
1.804952e+003,9.658356e-001
1.805917e+003,-5.065308e-001
1.806881e+003,-2.019424e+000
1.807845e+003,-1.690201e+000
1.808809e+003,3.857422e-002
1.809773e+003,2.444122e+000
1.810738e+003,4.802414e+000
1.811702e+003,5.213425e+000
1.812666e+003,2.551010e+000
1.813630e+003,-7.147827e-001
1.814595e+003,-1.096909e+000
1.815559e+003,4.528351e-001
1.816523e+003,-1.531219e-001
1.817487e+003,-3.231094e+000
1.818452e+003,-4.397690e+000
1.819416e+003,-2.655151e+000
1.820380e+003,-9.763947e-001
1.821344e+003,-4.027863e-001
1.822309e+003,2.899170e-002
1.823273e+003,1.224716e+000
1.824237e+003,2.476395e+000
1.825201e+003,3.062714e+000
1.826166e+003,2.981125e+000
1.827130e+003,2.231354e+000
1.828094e+003,8.096619e-001
1.829058e+003,-3.672638e-001
1.830022e+003,-7.432404e-001
1.830987e+003,-7.961884e-001
1.831951e+003,-1.111740e+000
1.832915e+003,-1.204056e+000
1.833879e+003,1.907349e-001
1.834844e+003,2.330902e+000
1.835808e+003,2.597305e+000
1.836772e+003,8.458252e-001
1.837736e+003,-2.016754e-001
1.838700e+003,6.063995e-001
1.839665e+003,1.628723e+000
1.840629e+003,1.378006e+000
1.841593e+003,5.727539e-001
1.842557e+003,7.398987e-001
1.843522e+003,1.848557e+000
1.844486e+003,1.998093e+000
1.845450e+003,1.883240e-001
1.846414e+003,-3.249512e-001
1.847379e+003,2.036942e+000
1.848343e+003,3.110397e+000
1.849307e+003,-4.226685e-003
1.850271e+003,-2.919235e+000
1.851236e+003,-1.646027e+000
1.852200e+003,1.414841e+000
1.853164e+003,2.523254e+000
1.854128e+003,1.580765e+000
1.855093e+003,7.299957e-001
1.856057e+003,8.958588e-001
1.857021e+003,1.313416e+000
1.857985e+003,1.327042e+000
1.858949e+003,9.143677e-001
1.859914e+003,-4.665375e-001
1.860878e+003,-2.317596e+000
1.861842e+003,-1.529968e+000
1.862806e+003,1.950348e+000
1.863771e+003,4.253738e+000
1.864735e+003,4.625290e+000
1.865699e+003,4.067032e+000
1.866663e+003,2.703522e+000
1.867627e+003,1.353180e+000
1.868592e+003,6.968384e-001
1.869556e+003,3.217010e-001
1.870520e+003,-5.427704e-001
1.871484e+003,-1.740234e+000
1.872449e+003,-1.958466e+000
1.873413e+003,-3.348389e-001
1.874377e+003,7.637939e-001
1.875341e+003,-7.138519e-001
1.876306e+003,-1.679916e+000
1.877270e+003,4.745026e-001
1.878234e+003,2.971375e+000
1.879198e+003,2.658264e+000
1.880163e+003,8.036194e-001
1.881127e+003,-6.256104e-002
1.882091e+003,4.215851e-001
1.883055e+003,1.460419e+000
1.884020e+003,2.627167e+000
1.884984e+003,3.759460e+000
1.885948e+003,4.744797e+000
1.886912e+003,5.275467e+000
1.887876e+003,4.599579e+000
1.888841e+003,2.876740e+000
1.889805e+003,1.976334e+000
1.890769e+003,2.026657e+000
1.891733e+003,2.242737e+000
1.892698e+003,2.599884e+000
1.893662e+003,2.773209e+000
1.894626e+003,2.673767e+000
1.895590e+003,2.417770e+000
1.896554e+003,2.192368e+000
1.897519e+003,1.907074e+000
1.898483e+003,9.960327e-001
1.899447e+003,-2.507019e-001
1.900411e+003,-3.480225e-001
1.901376e+003,1.065979e+000
1.902340e+003,2.197220e+000
1.903304e+003,2.198624e+000
1.904268e+003,1.987823e+000
1.905233e+003,2.387787e+000
1.906197e+003,2.689026e+000
1.907161e+003,1.650574e+000
1.908125e+003,2.807617e-001
1.909090e+003,6.454620e-001
1.910054e+003,2.403900e+000
1.911018e+003,3.566116e+000
1.911982e+003,3.516617e+000
1.912947e+003,2.917694e+000
1.913911e+003,2.218933e+000
1.914875e+003,1.978165e+000
1.915839e+003,3.172211e+000
1.916803e+003,5.238846e+000
1.917768e+003,5.602982e+000
1.918732e+003,3.971100e+000
1.919696e+003,3.145035e+000
1.920660e+003,3.473877e+000
1.921625e+003,3.949860e+000
1.922589e+003,4.344040e+000
1.923553e+003,4.706161e+000
1.924517e+003,5.580444e+000
1.925481e+003,5.992691e+000
1.926446e+003,4.284927e+000
1.927410e+003,1.808868e+000
1.928374e+003,1.380783e+000
1.929338e+003,2.984390e+000
1.930303e+003,4.413681e+000
1.931267e+003,5.523880e+000
1.932231e+003,5.749130e+000
1.933195e+003,3.707123e+000
1.934160e+003,1.754028e+000
1.935124e+003,1.604446e+000
1.936088e+003,2.442688e+000
1.937052e+003,3.740768e+000
1.938017e+003,5.160065e+000
1.938981e+003,6.237793e+000
1.939945e+003,6.788696e+000
1.940909e+003,6.546188e+000
1.941874e+003,5.440628e+000
1.942838e+003,4.118546e+000
1.943802e+003,3.253311e+000
1.944766e+003,2.906235e+000
1.945730e+003,3.066177e+000
1.946695e+003,3.552399e+000
1.947659e+003,3.286499e+000
1.948623e+003,2.049881e+000
1.949587e+003,2.575729e+000
1.950552e+003,6.027374e+000
1.951516e+003,7.761734e+000
1.952480e+003,5.394760e+000
1.953444e+003,2.785507e+000
1.954408e+003,2.846771e+000
1.955373e+003,3.761459e+000
1.956337e+003,2.747421e+000
1.957301e+003,6.869507e-001
1.958265e+003,3.416748e-001
1.959230e+003,1.945740e+000
1.960194e+003,3.935959e+000
1.961158e+003,6.979813e+000
1.962122e+003,8.647461e+000
1.963087e+003,7.510132e+000
1.964051e+003,5.871826e+000
1.965015e+003,4.707275e+000
1.965979e+003,4.204849e+000
1.966944e+003,4.586365e+000
1.967908e+003,5.420975e+000
1.968872e+003,6.426117e+000
1.969836e+003,7.247467e+000
1.970801e+003,6.800461e+000
1.971765e+003,4.756699e+000
1.972729e+003,2.917389e+000
1.973693e+003,2.760834e+000
1.974657e+003,3.702774e+000
1.975622e+003,5.358307e+000
1.976586e+003,7.170731e+000
1.977550e+003,7.510132e+000
1.978514e+003,6.697159e+000
1.979479e+003,6.459946e+000
1.980443e+003,7.017288e+000
1.981407e+003,7.983902e+000
1.982371e+003,9.322464e+000
1.983335e+003,9.882797e+000
1.984300e+003,8.558670e+000
1.985264e+003,6.781494e+000
1.986228e+003,6.979095e+000
1.987192e+003,8.571747e+000
1.988157e+003,8.460785e+000
1.989121e+003,6.138031e+000
1.990085e+003,5.064499e+000
1.991049e+003,6.579056e+000
1.992014e+003,6.754990e+000
1.992978e+003,3.032990e+000
1.993942e+003,6.602325e-001
1.994906e+003,2.715897e+000
1.995871e+003,5.413971e+000
1.996835e+003,5.944275e+000
1.997799e+003,5.457001e+000
1.998763e+003,5.558670e+000
1.999728e+003,6.269287e+000
