5.003444e+002,4.216187e+001
5.013087e+002,4.105145e+001
5.022729e+002,3.992816e+001
5.032371e+002,3.912952e+001
5.042014e+002,3.904852e+001
5.051656e+002,3.960689e+001
5.061298e+002,4.025270e+001
5.070941e+002,4.043240e+001
5.080583e+002,3.991693e+001
5.090225e+002,3.969998e+001
5.099868e+002,4.035899e+001
5.109510e+002,4.063591e+001
5.119152e+002,3.953760e+001
5.128795e+002,3.691995e+001
5.138437e+002,3.510629e+001
5.148079e+002,3.564839e+001
5.157722e+002,3.652608e+001
5.167364e+002,3.702072e+001
5.177006e+002,3.690833e+001
5.186649e+002,3.634442e+001
5.196291e+002,3.527095e+001
5.205933e+002,3.436549e+001
5.215576e+002,3.433606e+001
5.225218e+002,3.503546e+001
5.234860e+002,3.583179e+001
5.244503e+002,3.576198e+001
5.254145e+002,3.471394e+001
5.263787e+002,3.390457e+001
5.273430e+002,3.377069e+001
5.283072e+002,3.358737e+001
5.292714e+002,3.199187e+001
5.302357e+002,2.721303e+001
5.311999e+002,2.453455e+001
5.321641e+002,2.618808e+001
5.331284e+002,2.890912e+001
5.340926e+002,2.987968e+001
5.350568e+002,2.786797e+001
5.360211e+002,2.566797e+001
5.369853e+002,2.669247e+001
5.379495e+002,2.863165e+001
5.389138e+002,2.942274e+001
5.398780e+002,2.830916e+001
5.408422e+002,2.618944e+001
5.418065e+002,2.575858e+001
5.427707e+002,2.673166e+001
5.437349e+002,2.708040e+001
5.446992e+002,2.612202e+001
5.456634e+002,2.423717e+001
5.466276e+002,2.281787e+001
5.475919e+002,2.216693e+001
5.485561e+002,2.186508e+001
5.495203e+002,2.214278e+001
5.504846e+002,2.254463e+001
5.514488e+002,2.253094e+001
5.524130e+002,2.203110e+001
5.533773e+002,2.100583e+001
5.543415e+002,1.857387e+001
5.553057e+002,1.615755e+001
5.562700e+002,1.558868e+001
5.572342e+002,1.793555e+001
5.581984e+002,2.135641e+001
5.591627e+002,2.093480e+001
5.601269e+002,1.827940e+001
5.610911e+002,1.667001e+001
5.620554e+002,1.786581e+001
5.630196e+002,2.127869e+001
5.639838e+002,2.204903e+001
5.649481e+002,1.779375e+001
5.659123e+002,1.440826e+001
5.668765e+002,1.348633e+001
5.678408e+002,1.434848e+001
5.688050e+002,1.476460e+001
5.697692e+002,1.325581e+001
5.707335e+002,1.214523e+001
5.716977e+002,1.270361e+001
5.726619e+002,1.399115e+001
5.736262e+002,1.464799e+001
5.745904e+002,1.367073e+001
5.755546e+002,1.222989e+001
5.765189e+002,1.204279e+001
5.774831e+002,1.256290e+001
5.784473e+002,1.310561e+001
5.794116e+002,1.326949e+001
5.803758e+002,1.318729e+001
5.813400e+002,1.318716e+001
5.823043e+002,1.302393e+001
5.832685e+002,1.291356e+001
5.842327e+002,1.344176e+001
5.851970e+002,1.448213e+001
5.861612e+002,1.451978e+001
5.871254e+002,1.145490e+001
5.880897e+002,9.219131e+000
5.890539e+002,9.126175e+000
5.900181e+002,1.016948e+001
5.909824e+002,1.061780e+001
5.919466e+002,9.298706e+000
5.929108e+002,7.397980e+000
5.938751e+002,6.048233e+000
5.948393e+002,5.149307e+000
5.958035e+002,4.523529e+000
5.967678e+002,4.064026e+000
5.977320e+002,3.914001e+000
5.986962e+002,5.217545e+000
5.996605e+002,7.916489e+000
6.006247e+002,9.826294e+000
6.015889e+002,9.219208e+000
6.025532e+002,6.402100e+000
6.035174e+002,5.666977e+000
6.044816e+002,1.066692e+001
6.054459e+002,1.390399e+001
6.064101e+002,1.309085e+001
6.073743e+002,9.958008e+000
6.083386e+002,7.828201e+000
6.093028e+002,8.822891e+000
6.102670e+002,1.046088e+001
6.112313e+002,1.091455e+001
6.121955e+002,1.055911e+001
6.131597e+002,9.824417e+000
6.141240e+002,9.010605e+000
6.150882e+002,8.142059e+000
6.160524e+002,7.204376e+000
6.170167e+002,6.289032e+000
6.179809e+002,6.133652e+000
6.189451e+002,7.277115e+000
6.199094e+002,9.393707e+000
6.208736e+002,1.051471e+001
6.218378e+002,1.026752e+001
6.228021e+002,9.611282e+000
6.237663e+002,8.230148e+000
6.247305e+002,6.630249e+000
6.256948e+002,5.473175e+000
6.266590e+002,4.816162e+000
6.276232e+002,4.817551e+000
6.285875e+002,6.269028e+000
6.295517e+002,8.073502e+000
6.305159e+002,8.898193e+000
6.314802e+002,8.020508e+000
6.324444e+002,6.150467e+000
6.334086e+002,5.652939e+000
6.343729e+002,6.117569e+000
6.353371e+002,5.844360e+000
6.363013e+002,3.968658e+000
6.372656e+002,1.181702e+000
6.382298e+002,1.257477e-001
6.391940e+002,3.199585e+000
6.401583e+002,4.802460e+000
6.411225e+002,4.272995e+000
6.420867e+002,2.868942e+000
6.430510e+002,2.035629e+000
6.440152e+002,2.259445e+000
6.449794e+002,2.047592e+000
6.459437e+002,-2.413483e-001
6.469079e+002,-2.605316e+000
6.478721e+002,-3.071045e+000
6.488364e+002,-1.133759e+000
6.498006e+002,1.552460e+000
6.507648e+002,1.648956e+000
6.517291e+002,1.535339e-001
6.526933e+002,-3.360291e-001
6.536575e+002,6.927795e-001
6.546218e+002,2.532104e+000
6.555860e+002,3.846603e+000
6.565502e+002,4.349945e+000
6.575145e+002,4.804016e+000
6.584787e+002,5.642136e+000
6.594429e+002,6.135651e+000
6.604072e+002,5.675079e+000
6.613714e+002,4.130600e+000
6.623356e+002,2.120087e+000
6.632999e+002,-1.698059e+000
6.642641e+002,-4.710846e+000
6.652283e+002,-4.730743e+000
6.661926e+002,-2.080292e+000
6.671568e+002,1.007248e+000
6.681210e+002,1.815674e+000
6.690853e+002,9.168701e-001
6.700495e+002,7.826233e-002
6.710137e+002,-5.948944e-001
6.719780e+002,-6.248932e-001
6.729422e+002,6.393585e-001
6.739064e+002,3.665222e+000
6.748707e+002,4.656906e+000
6.758349e+002,1.895615e+000
6.767991e+002,-3.748322e-001
6.777634e+002,2.674561e-001
6.787276e+002,3.488571e+000
6.796918e+002,5.956970e+000
6.806561e+002,5.901947e+000
6.816203e+002,5.073257e+000
6.825845e+002,3.637985e+000
6.835488e+002,2.032928e+000
6.845130e+002,7.809296e-001
6.854772e+002,2.878723e-001
6.864415e+002,5.260468e-001
6.874057e+002,1.374115e+000
6.883699e+002,2.452698e+000
6.893342e+002,3.144333e+000
6.902984e+002,3.136887e+000
6.912626e+002,2.544464e+000
6.922269e+002,1.850449e+000
6.931911e+002,1.132599e+000
6.941553e+002,6.175537e-001
6.951196e+002,-2.056427e-001
6.960838e+002,-8.984680e-001
6.970480e+002,-4.933014e-001
6.980123e+002,1.790253e+000
6.989765e+002,3.917755e+000
6.999407e+002,5.851166e+000
7.009050e+002,6.789627e+000
7.018692e+002,5.168076e+000
7.028334e+002,9.296417e-001
7.037977e+002,-3.317093e+000
7.047619e+002,-2.666595e+000
7.057261e+002,1.054855e+000
7.066904e+002,4.164749e+000
7.076546e+002,6.062195e+000
7.086188e+002,6.969131e+000
7.095831e+002,7.192703e+000
7.105473e+002,6.587082e+000
7.115115e+002,5.286148e+000
7.124758e+002,2.547287e+000
7.134400e+002,-1.020203e-001
7.144042e+002,-1.670471e+000
7.153685e+002,-2.075546e+000
7.163327e+002,-2.160965e+000
7.172969e+002,-2.306122e+000
7.182612e+002,-2.109406e+000
7.192254e+002,-1.148453e+000
7.201896e+002,2.088318e-001
7.211539e+002,1.264740e+000
7.221181e+002,1.424393e+000
7.230823e+002,1.044022e+000
7.240466e+002,1.375320e+000
7.250108e+002,2.294449e+000
7.259750e+002,2.690216e+000
7.269393e+002,1.691696e+000
7.279035e+002,-6.253815e-001
7.288677e+002,-2.388580e+000
7.298320e+002,-4.003464e+000
7.307962e+002,-3.788513e+000
7.317604e+002,4.208374e-002
7.327247e+002,5.158859e+000
7.336889e+002,8.258545e+000
7.346531e+002,8.074356e+000
7.356174e+002,6.269501e+000
7.365816e+002,3.345184e+000
7.375458e+002,3.448639e-001
7.385101e+002,-2.208130e+000
7.394743e+002,-4.036362e+000
7.404385e+002,-4.956879e+000
7.414028e+002,-4.498856e+000
7.423670e+002,-3.164139e+000
7.433312e+002,-2.185410e+000
7.442955e+002,-1.434875e+000
7.452597e+002,-6.923065e-001
7.462239e+002,1.991882e-001
7.471882e+002,1.219223e+000
7.481524e+002,2.163864e+000
7.491166e+002,3.020370e+000
7.500809e+002,3.434769e+000
7.510451e+002,2.954529e+000
7.520093e+002,1.878952e+000
7.529736e+002,1.297089e+000
7.539378e+002,2.360489e+000
7.549020e+002,3.395874e+000
7.558663e+002,3.146622e+000
7.568306e+002,2.227585e+000
7.577948e+002,1.362274e+000
7.587590e+002,9.668274e-001
7.597233e+002,9.216614e-001
7.606875e+002,1.385300e+000
7.616517e+002,2.375717e+000
7.626160e+002,3.125763e+000
7.635802e+002,3.569748e+000
7.645444e+002,3.602844e+000
7.655087e+002,2.727295e+000
7.664729e+002,-2.960052e-001
7.674371e+002,-1.442947e+000
7.684014e+002,8.029327e-001
7.693656e+002,3.426697e+000
7.703298e+002,4.485138e+000
7.712941e+002,3.814102e+000
7.722583e+002,2.938354e+000
7.732225e+002,3.278961e+000
7.741868e+002,3.465027e+000
7.751510e+002,2.019226e+000
7.761152e+002,-5.052643e-001
7.770795e+002,-2.762634e+000
7.780437e+002,-3.583694e+000
7.790079e+002,-3.132431e+000
7.799722e+002,-2.360886e+000
7.809364e+002,-1.359222e+000
7.819006e+002,-1.965332e-002
7.828649e+002,2.577454e+000
7.838291e+002,5.732635e+000
7.847933e+002,6.592514e+000
7.857576e+002,2.580917e+000
7.867218e+002,9.486389e-002
7.876860e+002,1.644318e+000
7.886503e+002,4.212540e+000
7.896145e+002,5.190170e+000
7.905787e+002,3.928162e+000
7.915430e+002,2.166382e+000
7.925072e+002,1.131393e+000
7.934714e+002,8.367767e-001
7.944357e+002,1.943985e+000
7.953999e+002,4.291702e+000
7.963641e+002,6.853104e+000
7.973284e+002,8.458725e+000
7.982926e+002,9.092804e+000
7.992568e+002,8.617355e+000
8.002211e+002,6.246170e+000
8.011853e+002,3.805374e+000
8.021495e+002,2.155807e+000
8.031138e+002,1.355637e+000
8.040780e+002,8.637085e-001
8.050422e+002,1.577759e-002
8.060065e+002,1.401367e-001
8.069707e+002,2.597870e+000
8.079349e+002,5.355972e+000
8.088992e+002,6.097702e+000
8.098634e+002,4.263596e+000
8.108276e+002,2.127625e+000
8.117919e+002,3.404968e+000
8.127561e+002,6.212799e+000
8.137203e+002,7.074371e+000
8.146846e+002,5.762039e+000
8.156488e+002,3.743851e+000
8.166130e+002,2.672104e+000
8.175773e+002,2.629532e+000
8.185415e+002,2.810333e+000
8.195057e+002,3.194336e+000
8.204700e+002,3.511139e+000
8.214342e+002,3.390656e+000
8.223984e+002,3.145676e+000
8.233627e+002,3.787460e+000
8.243269e+002,6.487106e+000
8.252911e+002,8.511520e+000
8.262554e+002,7.798813e+000
8.272196e+002,6.050034e+000
8.281838e+002,4.720474e+000
8.291481e+002,4.487747e+000
8.301123e+002,5.419418e+000
8.310765e+002,8.200150e+000
8.320408e+002,1.231851e+001
8.330050e+002,1.309222e+001
8.339692e+002,9.578033e+000
8.349335e+002,4.989166e+000
8.358977e+002,2.695389e+000
8.368619e+002,3.128540e+000
8.378262e+002,3.204498e+000
8.387904e+002,2.538849e+000
8.397546e+002,1.603073e+000
8.407189e+002,-4.746857e-001
8.416831e+002,-2.482010e+000
8.426473e+002,-1.933319e+000
8.436116e+002,2.918274e+000
8.445758e+002,7.868530e+000
8.455400e+002,7.701279e+000
8.465043e+002,5.193359e+000
8.474685e+002,3.429871e+000
8.484327e+002,3.424301e+000
8.493970e+002,4.313080e+000
8.503612e+002,4.464340e+000
8.513254e+002,3.624481e+000
8.522897e+002,3.419128e+000
8.532539e+002,4.271164e+000
8.542181e+002,4.947861e+000
8.551824e+002,4.408508e+000
8.561466e+002,3.058136e+000
8.571108e+002,3.214737e+000
8.580751e+002,6.227905e+000
8.590393e+002,9.025467e+000
8.600035e+002,1.084236e+001
8.609678e+002,1.206537e+001
8.619320e+002,1.328281e+001
8.628962e+002,1.467007e+001
8.638605e+002,1.557919e+001
8.648247e+002,1.446144e+001
8.657889e+002,1.228716e+001
8.667532e+002,1.137244e+001
8.677174e+002,1.201591e+001
8.686816e+002,1.298227e+001
8.696459e+002,1.276700e+001
8.706101e+002,1.112468e+001
8.715743e+002,1.078821e+001
8.725386e+002,1.259221e+001
8.735028e+002,1.451804e+001
8.744670e+002,1.614238e+001
8.754313e+002,1.733784e+001
8.763955e+002,1.803693e+001
8.773597e+002,1.819281e+001
8.783240e+002,1.820645e+001
8.792882e+002,1.820015e+001
8.802524e+002,1.818813e+001
8.812167e+002,1.818777e+001
8.821809e+002,1.822763e+001
8.831451e+002,1.838849e+001
8.841094e+002,1.881331e+001
8.850736e+002,1.959010e+001
8.860378e+002,2.023999e+001
8.870021e+002,2.057599e+001
8.879663e+002,2.110132e+001
8.889305e+002,2.222998e+001
8.898948e+002,2.374702e+001
8.908590e+002,2.473203e+001
8.918232e+002,2.489325e+001
8.927875e+002,2.512680e+001
8.937517e+002,2.566061e+001
8.947159e+002,2.631828e+001
8.956802e+002,2.695049e+001
8.966444e+002,2.740176e+001
8.976086e+002,2.741754e+001
8.985729e+002,2.645706e+001
8.995371e+002,2.553462e+001
9.005013e+002,2.638585e+001
9.014656e+002,2.878571e+001
9.024298e+002,3.126010e+001
9.033940e+002,3.263098e+001
9.043583e+002,3.287428e+001
9.053225e+002,3.275035e+001
9.062867e+002,3.188983e+001
9.072510e+002,3.088876e+001
9.082152e+002,2.970056e+001
9.091794e+002,2.874861e+001
9.101437e+002,2.860271e+001
9.111079e+002,2.935059e+001
9.120721e+002,2.979916e+001
9.130364e+002,2.861838e+001
9.140006e+002,2.719957e+001
9.149648e+002,2.640623e+001
9.159291e+002,2.622946e+001
9.168933e+002,2.623376e+001
9.178575e+002,2.605673e+001
9.188218e+002,2.591170e+001
9.197860e+002,2.716698e+001
9.207502e+002,2.987210e+001
9.217145e+002,3.066272e+001
9.226787e+002,2.801636e+001
9.236429e+002,2.436546e+001
9.246072e+002,2.297722e+001
9.255714e+002,2.421124e+001
9.265356e+002,2.520831e+001
9.274999e+002,2.587524e+001
9.284641e+002,2.570628e+001
9.294283e+002,2.387773e+001
9.303926e+002,2.132852e+001
9.313568e+002,1.969366e+001
9.323210e+002,1.984973e+001
9.332853e+002,2.059503e+001
9.342495e+002,1.981636e+001
9.352137e+002,1.832117e+001
9.361780e+002,1.768661e+001
9.371422e+002,1.832712e+001
9.381064e+002,1.898071e+001
9.390707e+002,1.759401e+001
9.400349e+002,1.337500e+001
9.409991e+002,1.155565e+001
9.419634e+002,1.404103e+001
9.429276e+002,1.606073e+001
9.438918e+002,1.574298e+001
9.448561e+002,1.444237e+001
9.458203e+002,1.482013e+001
9.467845e+002,1.804703e+001
9.477488e+002,2.097202e+001
9.487130e+002,2.018431e+001
9.496772e+002,1.878026e+001
9.506415e+002,1.967078e+001
9.516057e+002,2.259430e+001
9.525699e+002,2.493268e+001
9.535342e+002,2.406319e+001
9.544984e+002,2.050606e+001
9.554626e+002,1.955164e+001
9.564269e+002,2.197815e+001
9.573911e+002,2.370499e+001
9.583553e+002,2.334001e+001
9.593196e+002,2.170677e+001
9.602838e+002,1.989148e+001
9.612480e+002,1.761548e+001
9.622123e+002,1.634891e+001
9.631765e+002,1.776732e+001
9.641407e+002,1.910738e+001
9.651050e+002,1.888605e+001
9.660692e+002,1.746729e+001
9.670334e+002,1.580214e+001
9.679977e+002,1.452296e+001
9.689619e+002,1.408252e+001
9.699261e+002,1.631903e+001
9.708904e+002,1.998099e+001
9.718546e+002,2.120230e+001
9.728188e+002,1.864314e+001
9.737831e+002,1.523338e+001
9.747473e+002,1.491246e+001
9.757115e+002,1.821906e+001
9.766758e+002,2.206723e+001
9.776400e+002,2.859875e+001
9.786042e+002,3.328011e+001
9.795685e+002,3.409225e+001
9.805327e+002,3.259427e+001
9.814969e+002,3.109244e+001
9.824612e+002,3.044479e+001
9.834254e+002,2.940739e+001
9.843896e+002,2.552232e+001
9.853539e+002,2.106079e+001
9.863181e+002,1.876779e+001
9.872823e+002,1.845215e+001
9.882466e+002,1.848097e+001
9.892108e+002,1.763719e+001
9.901750e+002,1.618802e+001
9.911393e+002,1.470462e+001
9.921035e+002,1.213908e+001
9.930677e+002,1.056441e+001
9.940320e+002,1.066360e+001
9.949962e+002,1.159503e+001
9.959604e+002,1.274759e+001
9.969247e+002,1.406474e+001
9.978889e+002,1.541353e+001
9.988531e+002,1.659860e+001
9.998174e+002,1.752859e+001
1.000782e+003,1.854443e+001
1.001746e+003,1.938913e+001
1.002710e+003,1.957942e+001
1.003674e+003,1.891640e+001
1.004639e+003,1.760963e+001
1.005603e+003,1.589328e+001
1.006567e+003,1.367389e+001
1.007531e+003,1.333626e+001
1.008495e+003,1.572618e+001
1.009460e+003,1.823927e+001
1.010424e+003,1.946674e+001
1.011388e+003,1.962952e+001
1.012352e+003,1.940910e+001
1.013317e+003,1.857869e+001
1.014281e+003,1.779559e+001
1.015245e+003,1.707054e+001
1.016209e+003,1.648076e+001
1.017174e+003,1.655290e+001
1.018138e+003,1.695477e+001
1.019102e+003,1.646677e+001
1.020066e+003,1.399492e+001
1.021031e+003,1.048886e+001
1.021995e+003,8.305374e+000
1.022959e+003,7.100037e+000
1.023923e+003,6.512695e+000
1.024887e+003,6.511337e+000
1.025852e+003,6.865326e+000
1.026816e+003,7.544754e+000
1.027780e+003,9.027893e+000
1.028744e+003,9.042648e+000
1.029709e+003,5.765106e+000
1.030673e+003,2.889832e+000
1.031637e+003,1.275604e+000
1.032601e+003,7.340088e-001
1.033566e+003,1.411011e+000
1.034530e+003,3.305145e+000
1.035494e+003,4.661072e+000
1.036458e+003,2.584488e+000
1.037422e+003,-8.066559e-001
1.038387e+003,-1.572021e+000
1.039351e+003,1.333771e-001
1.040315e+003,1.693588e+000
1.041279e+003,1.078217e+000
1.042244e+003,-9.918060e-001
1.043208e+003,-1.124695e+000
1.044172e+003,2.322021e+000
1.045136e+003,4.682434e+000
1.046101e+003,5.815979e+000
1.047065e+003,6.109100e+000
1.048029e+003,5.177078e+000
1.048993e+003,3.486343e+000
1.049958e+003,2.728729e+000
1.050922e+003,4.184555e+000
1.051886e+003,5.737625e+000
1.052850e+003,4.955688e+000
1.053814e+003,3.049118e+000
1.054779e+003,1.212601e+000
1.055743e+003,-1.490326e-001
1.056707e+003,-6.453705e-001
1.057671e+003,3.176880e-001
1.058636e+003,2.727524e+000
1.059600e+003,3.278778e+000
1.060564e+003,1.921082e-001
1.061528e+003,-1.737869e+000
1.062493e+003,-1.471405e+000
1.063457e+003,-2.772827e-001
1.064421e+003,6.445465e-001
1.065385e+003,1.198883e+000
1.066349e+003,1.798355e+000
1.067314e+003,2.995010e+000
1.068278e+003,3.863937e+000
1.069242e+003,3.448975e+000
1.070206e+003,2.472015e+000
1.071171e+003,2.235809e+000
1.072135e+003,3.109024e+000
1.073099e+003,3.884949e+000
1.074063e+003,2.521332e+000
1.075028e+003,-1.263016e+000
1.075992e+003,-2.715439e+000
1.076956e+003,-1.115601e+000
1.077920e+003,8.677368e-001
1.078885e+003,2.959518e+000
1.079849e+003,4.746002e+000
1.080813e+003,5.141464e+000
1.081777e+003,3.734543e+000
1.082741e+003,2.548431e+000
1.083706e+003,2.406418e+000
1.084670e+003,2.685852e+000
1.085634e+003,3.415390e+000
1.086598e+003,4.262253e+000
1.087563e+003,4.791382e+000
1.088527e+003,4.810043e+000
1.089491e+003,4.449097e+000
1.090455e+003,3.675629e+000
1.091420e+003,2.323166e+000
1.092384e+003,1.777359e+000
1.093348e+003,2.414307e+000
1.094312e+003,2.953140e+000
1.095276e+003,2.605194e+000
1.096241e+003,1.748474e+000
1.097205e+003,1.380783e+000
1.098169e+003,1.784576e+000
1.099133e+003,1.868744e+000
1.100098e+003,7.893677e-001
1.101062e+003,-1.970520e-001
1.102026e+003,-1.805878e-001
1.102990e+003,6.090393e-001
1.103955e+003,1.420319e+000
1.104919e+003,1.769699e+000
1.105883e+003,1.827240e+000
1.106847e+003,2.017807e+000
1.107812e+003,2.326401e+000
1.108776e+003,2.623032e+000
1.109740e+003,2.915939e+000
1.110704e+003,3.175262e+000
1.111668e+003,3.736450e+000
1.112633e+003,4.454269e+000
1.113597e+003,4.115295e+000
1.114561e+003,1.730804e+000
1.115525e+003,1.090393e-001
1.116490e+003,3.858643e-001
1.117454e+003,1.284454e+000
1.118418e+003,2.374222e+000
1.119382e+003,3.481033e+000
1.120347e+003,4.467697e+000
1.121311e+003,5.146866e+000
1.122275e+003,5.260788e+000
1.123239e+003,4.460526e+000
1.124203e+003,2.995987e+000
1.125168e+003,1.954819e+000
1.126132e+003,1.467041e+000
1.127096e+003,1.378662e+000
1.128060e+003,1.434448e+000
1.129025e+003,1.675217e+000
1.129989e+003,2.577652e+000
1.130953e+003,4.402145e+000
1.131917e+003,6.262421e+000
1.132882e+003,8.166992e+000
1.133846e+003,9.897476e+000
1.134810e+003,1.160487e+001
1.135774e+003,1.301019e+001
1.136739e+003,1.343051e+001
1.137703e+003,1.249188e+001
1.138667e+003,1.088976e+001
1.139631e+003,9.704834e+000
1.140595e+003,8.991821e+000
1.141560e+003,8.873383e+000
1.142524e+003,9.402786e+000
1.143488e+003,1.075371e+001
1.144452e+003,1.305464e+001
1.145417e+003,1.622403e+001
1.146381e+003,2.009933e+001
1.147345e+003,2.497354e+001
1.148309e+003,2.960699e+001
1.149274e+003,3.320248e+001
1.150238e+003,3.712129e+001
1.151202e+003,4.230360e+001
1.152166e+003,4.840784e+001
1.153130e+003,5.482486e+001
1.154095e+003,6.108313e+001
1.155059e+003,6.662129e+001
1.156023e+003,7.103429e+001
1.156987e+003,7.407410e+001
1.157952e+003,7.438190e+001
1.158916e+003,7.162698e+001
1.159880e+003,6.937785e+001
1.160844e+003,7.067903e+001
1.161809e+003,7.299008e+001
1.162773e+003,7.055881e+001
1.163737e+003,6.240292e+001
1.164701e+003,5.394197e+001
1.165666e+003,4.558907e+001
1.166630e+003,3.836166e+001
1.167594e+003,3.264456e+001
1.168558e+003,2.826434e+001
1.169522e+003,2.512805e+001
1.170487e+003,2.310329e+001
1.171451e+003,2.197557e+001
1.172415e+003,2.158569e+001
1.173379e+003,2.170685e+001
1.174344e+003,2.117441e+001
1.175308e+003,1.995068e+001
1.176272e+003,1.929947e+001
1.177236e+003,2.028787e+001
1.178201e+003,2.162561e+001
1.179165e+003,2.153879e+001
1.180129e+003,1.992384e+001
1.181093e+003,1.791861e+001
1.182057e+003,1.520190e+001
1.183022e+003,1.310216e+001
1.183986e+003,1.246536e+001
1.184950e+003,1.235329e+001
1.185914e+003,1.171135e+001
1.186879e+003,1.063313e+001
1.187843e+003,1.027794e+001
1.188807e+003,1.158835e+001
1.189771e+003,1.369000e+001
1.190736e+003,1.394344e+001
1.191700e+003,1.209035e+001
1.192664e+003,1.087503e+001
1.193628e+003,1.075130e+001
1.194593e+003,1.116805e+001
1.195557e+003,1.191393e+001
1.196521e+003,1.285146e+001
1.197485e+003,1.370551e+001
1.198449e+003,1.474123e+001
1.199414e+003,1.476662e+001
1.200378e+003,1.208499e+001
1.201342e+003,9.295761e+000
1.202306e+003,7.824463e+000
1.203271e+003,7.535904e+000
1.204235e+003,8.258865e+000
1.205199e+003,9.705261e+000
1.206163e+003,1.056096e+001
1.207128e+003,8.370682e+000
1.208092e+003,2.910385e+000
1.209056e+003,-4.783630e-002
1.210020e+003,1.942291e-001
1.210984e+003,9.928589e-001
1.211949e+003,2.190231e+000
1.212913e+003,3.128616e+000
1.213877e+003,3.144196e+000
1.214841e+003,2.203873e+000
1.215806e+003,-9.671021e-002
1.216770e+003,-5.543228e+000
1.217734e+003,-9.801895e+000
1.218698e+003,-8.748001e+000
1.219663e+003,-5.811691e+000
1.220627e+003,-5.377914e+000
1.221591e+003,-7.990356e+000
1.222555e+003,-1.107692e+001
1.223520e+003,-1.223975e+001
1.224484e+003,-1.184167e+001
1.225448e+003,-1.187354e+001
1.226412e+003,-1.271063e+001
1.227376e+003,-1.319981e+001
1.228341e+003,-1.330972e+001
1.229305e+003,-1.320615e+001
1.230269e+003,-1.281625e+001
1.231233e+003,-1.233455e+001
1.232198e+003,-1.217038e+001
1.233162e+003,-1.240189e+001
1.234126e+003,-1.237793e+001
1.235090e+003,-1.113004e+001
1.236055e+003,-1.007906e+001
1.237019e+003,-1.107274e+001
1.237983e+003,-1.348407e+001
1.238947e+003,-1.568716e+001
1.239911e+003,-1.693176e+001
1.240876e+003,-1.704599e+001
1.241840e+003,-1.559702e+001
1.242804e+003,-1.242441e+001
1.243768e+003,-1.053868e+001
1.244733e+003,-1.058646e+001
1.245697e+003,-1.121980e+001
1.246661e+003,-1.353481e+001
1.247625e+003,-1.555582e+001
1.248590e+003,-1.525298e+001
1.249554e+003,-1.321252e+001
1.250518e+003,-1.178340e+001
1.251482e+003,-1.212167e+001
1.252447e+003,-1.298438e+001
1.253411e+003,-1.282317e+001
1.254375e+003,-1.197450e+001
1.255339e+003,-1.114980e+001
1.256303e+003,-1.035779e+001
1.257268e+003,-9.946304e+000
1.258232e+003,-1.053622e+001
1.259196e+003,-1.131525e+001
1.260160e+003,-9.898682e+000
1.261125e+003,-5.460785e+000
1.262089e+003,-3.411957e+000
1.263053e+003,-7.407394e+000
1.264017e+003,-1.021391e+001
1.264982e+003,-8.952454e+000
1.265946e+003,-6.555908e+000
1.266910e+003,-5.984802e+000
1.267874e+003,-7.195572e+000
1.268839e+003,-7.954865e+000
1.269803e+003,-6.759186e+000
1.270767e+003,-5.001923e+000
1.271731e+003,-5.638321e+000
1.272695e+003,-8.504822e+000
1.273660e+003,-9.789444e+000
1.274624e+003,-9.040863e+000
1.275588e+003,-8.156677e+000
1.276552e+003,-8.082687e+000
1.277517e+003,-8.371246e+000
1.278481e+003,-8.219620e+000
1.279445e+003,-7.568436e+000
1.280409e+003,-7.281067e+000
1.281374e+003,-7.928070e+000
1.282338e+003,-8.575363e+000
1.283302e+003,-8.457718e+000
1.284266e+003,-8.270004e+000
1.285230e+003,-9.171890e+000
1.286195e+003,-1.100330e+001
1.287159e+003,-1.225444e+001
1.288123e+003,-1.163040e+001
1.289087e+003,-9.691467e+000
1.290052e+003,-8.319046e+000
1.291016e+003,-7.494797e+000
1.291980e+003,-7.847992e+000
1.292944e+003,-1.067081e+001
1.293909e+003,-1.309166e+001
1.294873e+003,-1.396855e+001
1.295837e+003,-1.366661e+001
1.296801e+003,-1.240863e+001
1.297766e+003,-1.036736e+001
1.298730e+003,-8.538376e+000
1.299694e+003,-7.141800e+000
1.300658e+003,-6.942108e+000
1.301622e+003,-1.013786e+001
1.302587e+003,-1.437170e+001
1.303551e+003,-1.542374e+001
1.304515e+003,-1.276445e+001
1.305479e+003,-9.651031e+000
1.306444e+003,-8.650452e+000
1.307408e+003,-9.394119e+000
1.308372e+003,-1.075301e+001
1.309336e+003,-1.342261e+001
1.310301e+003,-1.453345e+001
1.311265e+003,-1.245345e+001
1.312229e+003,-1.056294e+001
1.313193e+003,-1.034863e+001
1.314157e+003,-1.051370e+001
1.315122e+003,-9.143204e+000
1.316086e+003,-6.538452e+000
1.317050e+003,-5.033661e+000
1.318014e+003,-6.161514e+000
1.318979e+003,-8.707474e+000
1.319943e+003,-1.094505e+001
1.320907e+003,-1.270865e+001
1.321871e+003,-1.325533e+001
1.322836e+003,-1.243860e+001
1.323800e+003,-1.135094e+001
1.324764e+003,-1.029570e+001
1.325728e+003,-9.423294e+000
1.326693e+003,-9.177872e+000
1.327657e+003,-9.643097e+000
1.328621e+003,-9.888367e+000
1.329585e+003,-9.186768e+000
1.330549e+003,-8.429306e+000
1.331514e+003,-8.193039e+000
1.332478e+003,-8.477417e+000
1.333442e+003,-9.593704e+000
1.334406e+003,-1.110085e+001
1.335371e+003,-1.178923e+001
1.336335e+003,-1.096964e+001
1.337299e+003,-9.548477e+000
1.338263e+003,-9.337662e+000
1.339228e+003,-1.055243e+001
1.340192e+003,-1.089127e+001
1.341156e+003,-9.480896e+000
1.342120e+003,-8.552155e+000
1.343084e+003,-8.854584e+000
1.344049e+003,-9.553116e+000
1.345013e+003,-9.805008e+000
1.345977e+003,-9.702301e+000
1.346941e+003,-9.999573e+000
1.347906e+003,-1.101718e+001
1.348870e+003,-1.193126e+001
1.349834e+003,-1.229836e+001
1.350798e+003,-1.183159e+001
1.351763e+003,-9.387100e+000
1.352727e+003,-5.453049e+000
1.353691e+003,-3.160019e+000
1.354655e+003,-3.886490e+000
1.355620e+003,-5.654068e+000
1.356584e+003,-5.940033e+000
1.357548e+003,-4.975235e+000
1.358512e+003,-5.407028e+000
1.359476e+003,-8.383987e+000
1.360441e+003,-1.034706e+001
1.361405e+003,-9.631226e+000
1.362369e+003,-8.438538e+000
1.363333e+003,-7.298767e+000
1.364298e+003,-6.603622e+000
1.365262e+003,-7.193192e+000
1.366226e+003,-8.869202e+000
1.367190e+003,-9.825638e+000
1.368155e+003,-8.411179e+000
1.369119e+003,-5.659271e+000
1.370083e+003,-4.878555e+000
1.371047e+003,-6.702072e+000
1.372011e+003,-7.638565e+000
1.372976e+003,-7.600403e+000
1.373940e+003,-7.090576e+000
1.374904e+003,-5.117737e+000
1.375868e+003,-3.428192e+000
1.376833e+003,-5.068542e+000
1.377797e+003,-9.687088e+000
1.378761e+003,-1.317192e+001
1.379725e+003,-1.383438e+001
1.380690e+003,-1.263123e+001
1.381654e+003,-8.843048e+000
1.382618e+003,-4.586365e+000
1.383582e+003,-3.258377e+000
1.384547e+003,-4.681305e+000
1.385511e+003,-6.004395e+000
1.386475e+003,-5.809143e+000
1.387439e+003,-5.025131e+000
1.388403e+003,-5.284683e+000
1.389368e+003,-6.591766e+000
1.390332e+003,-6.362579e+000
1.391296e+003,-2.997253e+000
1.392260e+003,-1.077988e+000
1.393225e+003,-2.491272e+000
1.394189e+003,-4.566177e+000
1.395153e+003,-6.402618e+000
1.396117e+003,-7.623993e+000
1.397082e+003,-7.766418e+000
1.398046e+003,-6.836716e+000
1.399010e+003,-5.461105e+000
1.399974e+003,-4.260773e+000
1.400938e+003,-3.413162e+000
1.401903e+003,-3.141632e+000
1.402867e+003,-3.278198e+000
1.403831e+003,-3.464676e+000
1.404795e+003,-4.254166e+000
1.405760e+003,-4.641129e+000
1.406724e+003,-3.874374e+000
1.407688e+003,-3.179779e+000
1.408652e+003,-4.346115e+000
1.409617e+003,-6.835297e+000
1.410581e+003,-7.731140e+000
1.411545e+003,-5.670425e+000
1.412509e+003,-2.954819e+000
1.413474e+003,-1.727554e+000
1.414438e+003,-1.520401e+000
1.415402e+003,-9.990234e-001
1.416366e+003,-2.933197e-001
1.417330e+003,-1.241547e+000
1.418295e+003,-5.059052e+000
1.419259e+003,-8.847794e+000
1.420223e+003,-8.712067e+000
1.421187e+003,-5.473053e+000
1.422152e+003,-4.034546e+000
1.423116e+003,-4.994202e+000
1.424080e+003,-5.708862e+000
1.425044e+003,-5.620392e+000
1.426009e+003,-5.187103e+000
1.426973e+003,-4.446625e+000
1.427937e+003,-3.555115e+000
1.428901e+003,-2.337631e+000
1.429865e+003,-1.019043e+000
1.430830e+003,-5.724792e-001
1.431794e+003,-1.655594e+000
1.432758e+003,-3.297379e+000
1.433722e+003,-3.353546e+000
1.434687e+003,-1.459366e+000
1.435651e+003,-6.020966e-001
1.436615e+003,-2.395386e+000
1.437579e+003,-3.567902e+000
1.438544e+003,-3.500488e+000
1.439508e+003,-2.975571e+000
1.440472e+003,-2.405060e+000
1.441436e+003,-1.665680e+000
1.442401e+003,-1.979370e-001
1.443365e+003,1.927734e+000
1.444329e+003,3.206161e+000
1.445293e+003,2.486176e+000
1.446257e+003,5.290680e-001
1.447222e+003,-1.930527e+000
1.448186e+003,-4.570038e+000
1.449150e+003,-5.015793e+000
1.450114e+003,-2.512543e+000
1.451079e+003,-2.336426e-001
1.452043e+003,2.814636e-001
1.453007e+003,-2.231903e-001
1.453971e+003,-1.209457e+000
1.454936e+003,-2.544540e+000
1.455900e+003,-2.835434e+000
1.456864e+003,-1.251038e+000
1.457828e+003,-3.282776e-001
1.458792e+003,-2.962494e+000
1.459757e+003,-5.696075e+000
1.460721e+003,-5.113831e+000
1.461685e+003,-2.604462e+000
1.462649e+003,-1.093323e+000
1.463614e+003,-1.315170e+000
1.464578e+003,-2.237808e+000
1.465542e+003,-3.147568e+000
1.466506e+003,-3.871353e+000
1.467471e+003,-3.510574e+000
1.468435e+003,-1.473587e+000
1.469399e+003,-6.994324e-001
1.470363e+003,-2.881607e+000
1.471328e+003,-4.424683e+000
1.472292e+003,-4.104828e+000
1.473256e+003,-3.527634e+000
1.474220e+003,-3.972473e+000
1.475184e+003,-4.802689e+000
1.476149e+003,-4.652420e+000
1.477113e+003,-3.228546e+000
1.478077e+003,-1.396667e+000
1.479041e+003,1.233063e-001
1.480006e+003,1.231339e+000
1.480970e+003,1.223557e+000
1.481934e+003,-6.071320e-001
1.482898e+003,-9.839172e-001
1.483863e+003,1.307541e+000
1.484827e+003,3.121323e+000
1.485791e+003,3.432541e+000
1.486755e+003,3.288849e+000
1.487719e+003,3.613663e+000
1.488684e+003,4.202988e+000
1.489648e+003,4.240723e+000
1.490612e+003,3.551712e+000
1.491576e+003,3.209717e+000
1.492541e+003,4.109558e+000
1.493505e+003,5.733688e+000
1.494469e+003,7.139648e+000
1.495433e+003,8.212311e+000
1.496398e+003,8.886765e+000
1.497362e+003,9.297806e+000
1.498326e+003,9.468933e+000
1.499290e+003,8.781738e+000
1.500255e+003,8.265915e+000
1.501219e+003,9.469193e+000
1.502183e+003,1.214119e+001
1.503147e+003,1.484389e+001
1.504111e+003,1.725775e+001
1.505076e+003,1.974237e+001
1.506040e+003,2.276910e+001
1.507004e+003,2.571088e+001
1.507968e+003,2.755003e+001
1.508933e+003,2.897031e+001
1.509897e+003,3.139249e+001
1.510861e+003,3.522588e+001
1.511825e+003,4.001886e+001
1.512790e+003,4.543417e+001
1.513754e+003,5.126385e+001
1.514718e+003,5.724510e+001
1.515682e+003,6.328236e+001
1.516646e+003,6.982867e+001
1.517611e+003,7.760159e+001
1.518575e+003,8.455927e+001
1.519539e+003,8.992816e+001
1.520503e+003,9.467314e+001
1.521468e+003,9.966646e+001
1.522432e+003,1.040439e+002
1.523396e+003,1.061990e+002
1.524360e+003,1.063037e+002
1.525325e+003,1.066250e+002
1.526289e+003,1.086896e+002
1.527253e+003,1.105690e+002
1.528217e+003,1.085842e+002
1.529182e+003,1.027679e+002
1.530146e+003,9.754558e+001
1.531110e+003,9.371672e+001
1.532074e+003,8.876230e+001
1.533039e+003,8.212024e+001
1.534003e+003,7.437189e+001
1.534967e+003,6.511504e+001
1.535931e+003,5.580940e+001
1.536896e+003,4.806155e+001
1.537860e+003,4.182062e+001
1.538824e+003,3.583119e+001
1.539788e+003,2.941003e+001
1.540752e+003,2.319069e+001
1.541717e+003,1.799419e+001
1.542681e+003,1.394031e+001
1.543645e+003,1.127272e+001
1.544609e+003,1.068520e+001
1.545573e+003,1.013618e+001
1.546538e+003,9.748123e+000
1.547502e+003,8.908218e+000
1.548466e+003,7.050171e+000
1.549430e+003,5.206787e+000
1.550395e+003,4.097290e+000
1.551359e+003,3.826401e+000
1.552323e+003,4.814957e+000
1.553287e+003,7.088150e+000
1.554252e+003,8.993515e+000
1.555216e+003,9.028763e+000
1.556180e+003,7.800064e+000
1.557144e+003,6.624863e+000
1.558109e+003,5.553741e+000
1.559073e+003,4.462753e+000
1.560037e+003,2.779343e+000
1.561001e+003,1.925552e+000
1.561966e+003,3.200150e+000
1.562930e+003,5.028183e+000
1.563894e+003,5.711288e+000
1.564858e+003,5.699585e+000
1.565823e+003,6.657196e+000
1.566787e+003,8.773178e+000
1.567751e+003,9.820877e+000
1.568715e+003,8.338425e+000
1.569679e+003,6.070358e+000
1.570644e+003,5.066833e+000
1.571608e+003,4.914276e+000
1.572572e+003,4.454376e+000
1.573536e+003,3.716080e+000
1.574500e+003,3.665359e+000
1.575465e+003,4.891922e+000
1.576429e+003,6.369934e+000
1.577393e+003,7.483398e+000
1.578357e+003,8.099976e+000
1.579322e+003,7.835068e+000
1.580286e+003,6.789978e+000
1.581250e+003,6.074493e+000
1.582214e+003,6.132568e+000
1.583179e+003,6.109085e+000
1.584143e+003,4.878632e+000
1.585107e+003,3.576965e+000
1.586071e+003,4.369766e+000
1.587036e+003,6.538696e+000
1.588000e+003,7.133453e+000
1.588964e+003,5.314896e+000
1.589928e+003,3.954865e+000
1.590893e+003,5.267715e+000
1.591857e+003,7.832764e+000
1.592821e+003,9.795258e+000
1.593785e+003,1.116328e+001
1.594750e+003,1.176866e+001
1.595714e+003,1.141875e+001
1.596678e+003,1.101833e+001
1.597642e+003,1.066338e+001
1.598606e+003,1.080437e+001
1.599571e+003,1.221567e+001
1.600535e+003,1.411703e+001
1.601499e+003,1.560655e+001
1.602463e+003,1.654764e+001
1.603427e+003,1.700253e+001
1.604392e+003,1.703253e+001
1.605356e+003,1.639447e+001
1.606320e+003,1.403943e+001
1.607284e+003,1.109236e+001
1.608249e+003,1.142157e+001
1.609213e+003,1.519426e+001
1.610177e+003,1.683104e+001
1.611141e+003,1.477232e+001
1.612106e+003,1.214764e+001
1.613070e+003,9.289963e+000
1.614034e+003,7.506561e+000
1.614998e+003,8.482193e+000
1.615963e+003,1.093039e+001
1.616927e+003,1.279189e+001
1.617891e+003,1.365381e+001
1.618855e+003,1.384706e+001
1.619820e+003,1.340314e+001
1.620784e+003,1.284590e+001
1.621748e+003,1.354991e+001
1.622712e+003,1.525291e+001
1.623677e+003,1.486699e+001
1.624641e+003,1.178766e+001
1.625605e+003,1.023410e+001
1.626569e+003,1.174635e+001
1.627533e+003,1.326169e+001
1.628498e+003,1.327756e+001
1.629462e+003,1.293872e+001
1.630426e+003,1.298528e+001
1.631390e+003,1.345992e+001
1.632354e+003,1.461346e+001
1.633319e+003,1.631735e+001
1.634283e+003,1.719838e+001
1.635247e+003,1.608936e+001
1.636211e+003,1.398444e+001
1.637176e+003,1.263753e+001
1.638140e+003,1.206743e+001
1.639104e+003,1.173895e+001
1.640068e+003,1.159465e+001
1.641033e+003,1.166972e+001
1.641997e+003,1.234151e+001
1.642961e+003,1.282269e+001
1.643925e+003,1.256288e+001
1.644890e+003,1.205598e+001
1.645854e+003,1.162387e+001
1.646818e+003,1.136098e+001
1.647782e+003,1.131644e+001
1.648747e+003,1.152167e+001
1.649711e+003,1.226143e+001
1.650675e+003,1.398212e+001
1.651639e+003,1.614920e+001
1.652604e+003,1.768839e+001
1.653568e+003,1.852986e+001
1.654532e+003,1.803662e+001
1.655496e+003,1.563257e+001
1.656460e+003,1.387196e+001
1.657425e+003,1.413643e+001
1.658389e+003,1.441177e+001
1.659353e+003,1.336127e+001
1.660317e+003,1.192889e+001
1.661281e+003,1.082266e+001
1.662246e+003,1.024529e+001
1.663210e+003,1.082747e+001
1.664174e+003,1.272566e+001
1.665138e+003,1.406258e+001
1.666103e+003,1.289172e+001
1.667067e+003,1.059041e+001
1.668031e+003,1.023596e+001
1.668995e+003,1.168074e+001
1.669960e+003,1.223044e+001
1.670924e+003,1.149023e+001
1.671888e+003,1.088963e+001
1.672852e+003,1.106059e+001
1.673817e+003,1.105731e+001
1.674781e+003,9.419556e+000
1.675745e+003,7.905701e+000
1.676709e+003,9.269485e+000
1.677674e+003,1.246065e+001
1.678638e+003,1.361511e+001
1.679602e+003,1.155501e+001
1.680566e+003,9.391464e+000
1.681531e+003,9.877823e+000
1.682495e+003,1.135057e+001
1.683459e+003,1.048782e+001
1.684423e+003,7.730026e+000
1.685387e+003,6.522644e+000
1.686352e+003,7.440521e+000
1.687316e+003,7.895996e+000
1.688280e+003,6.712799e+000
1.689244e+003,5.538452e+000
1.690208e+003,6.085907e+000
1.691173e+003,6.884583e+000
1.692137e+003,6.066162e+000
1.693101e+003,4.210266e+000
1.694065e+003,3.040802e+000
1.695030e+003,2.878433e+000
1.695994e+003,3.427994e+000
1.696958e+003,5.160492e+000
1.697922e+003,6.827255e+000
1.698887e+003,6.554169e+000
1.699851e+003,5.021240e+000
1.700815e+003,4.304977e+000
1.701779e+003,4.515396e+000
1.702744e+003,4.252182e+000
1.703708e+003,2.969757e+000
1.704672e+003,2.083740e+000
1.705636e+003,2.784958e+000
1.706601e+003,3.988419e+000
1.707565e+003,4.466599e+000
1.708529e+003,4.313690e+000
1.709493e+003,3.261459e+000
1.710458e+003,1.095749e+000
1.711422e+003,-3.783569e-001
1.712386e+003,1.357117e-001
1.713350e+003,1.090073e+000
1.714314e+003,8.692474e-001
1.715279e+003,3.049316e-001
1.716243e+003,1.333984e+000
1.717207e+003,3.578842e+000
1.718171e+003,4.451492e+000
1.719135e+003,3.262772e+000
1.720100e+003,1.897583e+000
1.721064e+003,1.511353e+000
1.722028e+003,1.692780e+000
1.722992e+003,2.200592e+000
1.723957e+003,2.929245e+000
1.724921e+003,2.592575e+000
1.725885e+003,8.434143e-001
1.726849e+003,-7.872314e-001
1.727814e+003,-2.370422e+000
1.728778e+003,-3.006470e+000
1.729742e+003,-1.471161e+000
1.730706e+003,3.546448e-001
1.731671e+003,8.869934e-002
1.732635e+003,-1.326797e+000
1.733599e+003,-9.966583e-001
1.734563e+003,1.240799e+000
1.735528e+003,2.187286e+000
1.736492e+003,1.210175e-001
1.737456e+003,-2.315262e+000
1.738420e+003,-1.887436e+000
1.739385e+003,3.543091e-001
1.740349e+003,7.470398e-001
1.741313e+003,-1.264206e+000
1.742277e+003,-1.903687e+000
1.743241e+003,3.799744e-001
1.744206e+003,1.685501e+000
1.745170e+003,8.763428e-001
1.746134e+003,-3.807526e-001
1.747098e+003,-1.515442e+000
1.748063e+003,-2.356979e+000
1.749027e+003,-2.824539e+000
1.749991e+003,-2.866394e+000
1.750955e+003,-2.111465e+000
1.751919e+003,-7.060242e-001
1.752884e+003,-1.502075e-001
1.753848e+003,-1.724075e+000
1.754812e+003,-3.980789e+000
1.755776e+003,-3.752396e+000
1.756741e+003,-1.066925e+000
1.757705e+003,4.898071e-002
1.758669e+003,-1.340073e+000
1.759633e+003,-1.792282e+000
1.760598e+003,-3.811798e-001
1.761562e+003,1.002975e+000
1.762526e+003,2.594711e+000
1.763490e+003,3.363754e+000
1.764455e+003,2.038589e+000
1.765419e+003,-2.777863e-001
1.766383e+003,-2.234589e+000
1.767347e+003,-3.478195e+000
1.768312e+003,-3.707855e+000
1.769276e+003,-2.792465e+000
1.770240e+003,-1.571152e+000
1.771204e+003,-5.312042e-001
1.772168e+003,1.317902e-001
1.773133e+003,-7.826691e-001
1.774097e+003,-2.983139e+000
1.775061e+003,-3.099350e+000
1.776025e+003,-5.286255e-001
1.776990e+003,1.208588e+000
1.777954e+003,8.064270e-001
1.778918e+003,-2.284241e-002
1.779882e+003,-3.040771e-001
1.780846e+003,-3.079071e-001
1.781811e+003,-2.291107e-001
1.782775e+003,-8.120728e-002
1.783739e+003,1.373138e-001
1.784703e+003,5.227203e-001
1.785668e+003,2.400970e-001
1.786632e+003,-1.946854e+000
1.787596e+003,-3.956650e+000
1.788560e+003,-3.982086e+000
1.789525e+003,-2.853409e+000
1.790489e+003,-1.360840e+000
1.791453e+003,2.182007e-003
1.792417e+003,-1.712189e-001
1.793382e+003,-1.909943e+000
1.794346e+003,-2.551254e+000
1.795310e+003,-5.989227e-001
1.796274e+003,1.714874e+000
1.797239e+003,1.882080e+000
1.798203e+003,6.237946e-001
1.799167e+003,-1.918945e-001
1.800131e+003,-7.303314e-001
1.801095e+003,-1.171890e+000
1.802060e+003,-1.162613e+000
1.803024e+003,-1.234482e+000
1.803988e+003,-2.275223e+000
1.804952e+003,-2.520737e+000
1.805917e+003,1.109619e-001
1.806881e+003,2.875092e+000
1.807845e+003,2.459045e+000
1.808809e+003,2.132111e-001
1.809773e+003,-4.481201e-001
1.810738e+003,1.006790e+000
1.811702e+003,2.237228e+000
1.812666e+003,1.775970e+000
1.813630e+003,6.842804e-001
1.814595e+003,4.066772e-001
1.815559e+003,6.454163e-001
1.816523e+003,1.398163e-001
1.817487e+003,-1.231476e+000
1.818452e+003,-1.562088e+000
1.819416e+003,-1.809082e-001
1.820380e+003,8.029938e-001
1.821344e+003,3.409729e-001
1.822309e+003,-1.682281e-001
1.823273e+003,3.862915e-001
1.824237e+003,1.214935e+000
1.825201e+003,1.409149e+000
1.826166e+003,1.126816e+000
1.827130e+003,1.108582e+000
1.828094e+003,1.418121e+000
1.829058e+003,9.020844e-001
1.830022e+003,-1.587097e+000
1.830987e+003,-3.591644e+000
1.831951e+003,-2.440048e+000
1.832915e+003,-2.967834e-002
1.833879e+003,1.121124e+000
1.834844e+003,1.063858e+000
1.835808e+003,1.562500e-002
1.836772e+003,-1.748337e+000
1.837736e+003,-2.626801e+000
1.838700e+003,-1.944870e+000
1.839665e+003,-8.131104e-001
1.840629e+003,-1.234894e-001
1.841593e+003,1.947021e-001
1.842557e+003,1.731110e-001
1.843522e+003,-1.874847e-001
1.844486e+003,-4.219818e-001
1.845450e+003,-5.176849e-001
1.846414e+003,-2.393951e-001
1.847379e+003,7.814484e-001
1.848343e+003,1.331116e+000
1.849307e+003,3.808594e-001
1.850271e+003,-3.412628e-001
1.851236e+003,1.386810e+000
1.852200e+003,3.607391e+000
1.853164e+003,2.775513e+000
1.854128e+003,-4.549255e-001
1.855093e+003,-2.274933e+000
1.856057e+003,-1.246323e+000
1.857021e+003,5.985565e-001
1.857985e+003,1.609634e+000
1.858949e+003,1.923386e+000
1.859914e+003,1.535950e+000
1.860878e+003,6.834717e-001
1.861842e+003,7.188721e-001
1.862806e+003,1.645386e+000
1.863771e+003,1.925751e+000
1.864735e+003,1.095657e+000
1.865699e+003,4.013672e-001
1.866663e+003,5.520325e-001
1.867627e+003,8.343201e-001
1.868592e+003,1.427307e-001
1.869556e+003,-7.093658e-001
1.870520e+003,6.763458e-001
1.871484e+003,3.704056e+000
1.872449e+003,4.064407e+000
1.873413e+003,6.121368e-001
1.874377e+003,-1.526093e+000
1.875341e+003,-6.839600e-001
1.876306e+003,1.043549e+000
1.877270e+003,3.576416e+000
1.878234e+003,5.471741e+000
1.879198e+003,4.656281e+000
1.880163e+003,2.510147e+000
1.881127e+003,1.775360e+000
1.882091e+003,2.543961e+000
1.883055e+003,2.888672e+000
1.884020e+003,2.059158e+000
1.884984e+003,1.411728e+000
1.885948e+003,2.217529e+000
1.886912e+003,3.568512e+000
1.887876e+003,3.570984e+000
1.888841e+003,2.385025e+000
1.889805e+003,1.884628e+000
1.890769e+003,2.196075e+000
1.891733e+003,2.552597e+000
1.892698e+003,2.971420e+000
1.893662e+003,3.002182e+000
1.894626e+003,2.126892e+000
1.895590e+003,1.373581e+000
1.896554e+003,1.420380e+000
1.897519e+003,2.087692e+000
1.898483e+003,3.531494e+000
1.899447e+003,5.251038e+000
1.900411e+003,5.781570e+000
1.901376e+003,4.847443e+000
1.902340e+003,4.079208e+000
1.903304e+003,4.297913e+000
1.904268e+003,4.456863e+000
1.905233e+003,3.882553e+000
1.906197e+003,3.052795e+000
1.907161e+003,2.388443e+000
1.908125e+003,1.908783e+000
1.909090e+003,1.344223e+000
1.910054e+003,7.995758e-001
1.911018e+003,1.136337e+000
1.911982e+003,2.504623e+000
1.912947e+003,3.306198e+000
1.913911e+003,2.336685e+000
1.914875e+003,1.287003e+000
1.915839e+003,3.002350e+000
1.916803e+003,6.464767e+000
1.917768e+003,6.456833e+000
1.918732e+003,2.207809e+000
1.919696e+003,4.644775e-002
1.920660e+003,6.344910e-001
1.921625e+003,1.928925e+000
1.922589e+003,4.074600e+000
1.923553e+003,5.775055e+000
1.924517e+003,6.136826e+000
1.925481e+003,5.953293e+000
1.926446e+003,5.773224e+000
1.927410e+003,5.619690e+000
1.928374e+003,5.659409e+000
1.929338e+003,5.762161e+000
1.930303e+003,4.884842e+000
1.931267e+003,2.292130e+000
1.932231e+003,7.210388e-001
1.933195e+003,1.784683e+000
1.934160e+003,3.611343e+000
1.935124e+003,5.454453e+000
1.936088e+003,6.739471e+000
1.937052e+003,6.540833e+000
1.938017e+003,5.532684e+000
1.938981e+003,5.058487e+000
1.939945e+003,5.319839e+000
1.940909e+003,5.908905e+000
1.941874e+003,6.539017e+000
1.942838e+003,6.710632e+000
1.943802e+003,6.003220e+000
1.944766e+003,5.038574e+000
1.945730e+003,4.916550e+000
1.946695e+003,5.448746e+000
1.947659e+003,5.609177e+000
1.948623e+003,5.329163e+000
1.949587e+003,5.256454e+000
1.950552e+003,5.692261e+000
1.951516e+003,5.467560e+000
1.952480e+003,3.534698e+000
1.953444e+003,2.310043e+000
1.954408e+003,4.266739e+000
1.955373e+003,6.951920e+000
1.956337e+003,6.497482e+000
1.957301e+003,4.089401e+000
1.958265e+003,3.803162e+000
1.959230e+003,6.062851e+000
1.960194e+003,7.658127e+000
1.961158e+003,7.761169e+000
1.962122e+003,7.432281e+000
1.963087e+003,6.618393e+000
1.964051e+003,5.881729e+000
1.965015e+003,5.687195e+000
1.965979e+003,5.780991e+000
1.966944e+003,5.746353e+000
1.967908e+003,5.667877e+000
1.968872e+003,5.977402e+000
1.969836e+003,6.611252e+000
1.970801e+003,6.929840e+000
1.971765e+003,6.699722e+000
1.972729e+003,6.521622e+000
1.973693e+003,6.928589e+000
1.974657e+003,7.552231e+000
1.975622e+003,7.856705e+000
1.976586e+003,7.871109e+000
1.977550e+003,7.511993e+000
1.978514e+003,7.029312e+000
1.979479e+003,7.985291e+000
1.980443e+003,1.042848e+001
1.981407e+003,1.153926e+001
1.982371e+003,1.026057e+001
1.983335e+003,8.329819e+000
1.984300e+003,6.832855e+000
1.985264e+003,6.153320e+000
1.986228e+003,7.166183e+000
1.987192e+003,9.357880e+000
1.988157e+003,9.989410e+000
1.989121e+003,8.649124e+000
1.990085e+003,8.101624e+000
1.991049e+003,9.058228e+000
1.992014e+003,9.480942e+000
1.992978e+003,8.561386e+000
1.993942e+003,7.742218e+000
1.994906e+003,7.525314e+000
1.995871e+003,7.576035e+000
1.996835e+003,7.699234e+000
1.997799e+003,7.969910e+000
1.998763e+003,8.684082e+000
1.999728e+003,9.583069e+000
