5.003444e+002,4.642229e+001
5.013087e+002,4.552612e+001
5.022729e+002,4.494301e+001
5.032371e+002,4.478801e+001
5.042014e+002,4.492436e+001
5.051656e+002,4.532045e+001
5.061298e+002,4.565488e+001
5.070941e+002,4.559068e+001
5.080583e+002,4.495818e+001
5.090225e+002,4.449974e+001
5.099868e+002,4.438773e+001
5.109510e+002,4.420779e+001
5.119152e+002,4.369794e+001
5.128795e+002,4.283101e+001
5.138437e+002,4.208574e+001
5.148079e+002,4.188040e+001
5.157722e+002,4.165474e+001
5.167364e+002,4.115596e+001
5.177006e+002,4.031128e+001
5.186649e+002,3.921074e+001
5.196291e+002,3.797240e+001
5.205933e+002,3.674933e+001
5.215576e+002,3.531903e+001
5.225218e+002,3.369380e+001
5.234860e+002,3.229970e+001
5.244503e+002,3.203525e+001
5.254145e+002,3.348003e+001
5.263787e+002,3.470285e+001
5.273430e+002,3.581279e+001
5.283072e+002,3.664259e+001
5.292714e+002,3.686404e+001
5.302357e+002,3.604240e+001
5.311999e+002,3.509691e+001
5.321641e+002,3.423431e+001
5.331284e+002,3.351022e+001
5.340926e+002,3.291725e+001
5.350568e+002,3.239859e+001
5.360211e+002,3.185796e+001
5.369853e+002,3.146602e+001
5.379495e+002,3.109424e+001
5.389138e+002,3.052396e+001
5.398780e+002,2.968091e+001
5.408422e+002,2.871785e+001
5.418065e+002,2.815749e+001
5.427707e+002,2.792970e+001
5.437349e+002,2.745779e+001
5.446992e+002,2.641255e+001
5.456634e+002,2.510472e+001
5.466276e+002,2.468732e+001
5.475919e+002,2.656190e+001
5.485561e+002,2.771294e+001
5.495203e+002,2.754041e+001
5.504846e+002,2.665982e+001
5.514488e+002,2.604771e+001
5.524130e+002,2.630150e+001
5.533773e+002,2.638527e+001
5.543415e+002,2.542903e+001
5.553057e+002,2.422908e+001
5.562700e+002,2.376953e+001
5.572342e+002,2.462254e+001
5.581984e+002,2.586549e+001
5.591627e+002,2.516551e+001
5.601269e+002,2.326614e+001
5.610911e+002,2.134111e+001
5.620554e+002,1.993353e+001
5.630196e+002,1.899365e+001
5.639838e+002,1.847978e+001
5.649481e+002,1.865140e+001
5.659123e+002,1.887352e+001
5.668765e+002,1.896313e+001
5.678408e+002,1.916434e+001
5.688050e+002,2.015450e+001
5.697692e+002,2.339864e+001
5.707335e+002,2.517236e+001
5.716977e+002,2.391888e+001
5.726619e+002,2.088411e+001
5.736262e+002,1.736505e+001
5.745904e+002,1.395886e+001
5.755546e+002,1.175211e+001
5.765189e+002,1.263922e+001
5.774831e+002,1.534595e+001
5.784473e+002,1.795358e+001
5.794116e+002,1.919164e+001
5.803758e+002,1.922945e+001
5.813400e+002,1.914539e+001
5.823043e+002,1.878023e+001
5.832685e+002,1.834027e+001
5.842327e+002,1.791287e+001
5.851970e+002,1.758759e+001
5.861612e+002,1.752351e+001
5.871254e+002,1.830684e+001
5.880897e+002,1.853452e+001
5.890539e+002,1.749397e+001
5.900181e+002,1.574426e+001
5.909824e+002,1.418050e+001
5.919466e+002,1.328412e+001
5.929108e+002,1.311182e+001
5.938751e+002,1.398224e+001
5.948393e+002,1.528294e+001
5.958035e+002,1.601898e+001
5.967678e+002,1.549049e+001
5.977320e+002,1.396663e+001
5.986962e+002,1.322513e+001
5.996605e+002,1.312546e+001
6.006247e+002,1.304970e+001
6.015889e+002,1.269298e+001
6.025532e+002,1.209731e+001
6.035174e+002,1.169907e+001
6.044816e+002,1.124026e+001
6.054459e+002,1.138181e+001
6.064101e+002,1.273296e+001
6.073743e+002,1.466628e+001
6.083386e+002,1.617131e+001
6.093028e+002,1.687444e+001
6.102670e+002,1.666594e+001
6.112313e+002,1.492770e+001
6.121955e+002,1.265675e+001
6.131597e+002,1.127994e+001
6.141240e+002,1.174367e+001
6.150882e+002,1.340192e+001
6.160524e+002,1.365099e+001
6.170167e+002,1.279459e+001
6.179809e+002,1.105905e+001
6.189451e+002,7.888748e+000
6.199094e+002,3.695160e+000
6.208736e+002,2.030685e+000
6.218378e+002,6.407013e+000
6.228021e+002,9.636093e+000
6.237663e+002,1.070183e+001
6.247305e+002,1.038986e+001
6.256948e+002,9.893707e+000
6.266590e+002,9.342041e+000
6.276232e+002,9.159683e+000
6.285875e+002,1.005959e+001
6.295517e+002,1.125627e+001
6.305159e+002,1.181595e+001
6.314802e+002,1.122974e+001
6.324444e+002,9.969955e+000
6.334086e+002,9.572372e+000
6.343729e+002,9.789459e+000
6.353371e+002,9.577789e+000
6.363013e+002,8.387222e+000
6.372656e+002,6.683609e+000
6.382298e+002,6.257858e+000
6.391940e+002,9.160706e+000
6.401583e+002,1.055403e+001
6.411225e+002,9.214340e+000
6.420867e+002,7.135376e+000
6.430510e+002,6.878799e+000
6.440152e+002,9.688751e+000
6.449794e+002,1.193353e+001
6.459437e+002,1.158171e+001
6.469079e+002,1.017010e+001
6.478721e+002,8.762314e+000
6.488364e+002,7.804611e+000
6.498006e+002,6.997803e+000
6.507648e+002,5.417999e+000
6.517291e+002,3.569885e+000
6.526933e+002,3.014450e+000
6.536575e+002,4.102859e+000
6.546218e+002,5.965088e+000
6.555860e+002,6.956955e+000
6.565502e+002,6.738693e+000
6.575145e+002,6.122391e+000
6.584787e+002,4.631683e+000
6.594429e+002,3.186249e+000
6.604072e+002,2.648788e+000
6.613714e+002,3.237305e+000
6.623356e+002,3.688904e+000
6.632999e+002,3.073807e+000
6.642641e+002,2.331131e+000
6.652283e+002,2.043106e+000
6.661926e+002,2.253464e+000
6.671568e+002,2.613815e+000
6.681210e+002,2.723434e+000
6.690853e+002,2.522552e+000
6.700495e+002,1.731079e+000
6.710137e+002,4.533844e-001
6.719780e+002,-1.488342e-001
6.729422e+002,1.276520e+000
6.739064e+002,5.231110e+000
6.748707e+002,7.981430e+000
6.758349e+002,1.009685e+001
6.767991e+002,1.078679e+001
6.777634e+002,9.089310e+000
6.787276e+002,5.443161e+000
6.796918e+002,2.395523e+000
6.806561e+002,2.196655e-001
6.816203e+002,-4.144897e-001
6.825845e+002,2.097092e+000
6.835488e+002,6.035858e+000
6.845130e+002,8.681671e+000
6.854772e+002,7.941010e+000
6.864415e+002,5.360916e+000
6.874057e+002,4.185913e+000
6.883699e+002,3.987198e+000
6.893342e+002,4.086548e+000
6.902984e+002,4.161957e+000
6.912626e+002,4.244827e+000
6.922269e+002,4.361115e+000
6.931911e+002,4.646820e+000
6.941553e+002,5.052124e+000
6.951196e+002,5.707016e+000
6.960838e+002,6.278564e+000
6.970480e+002,6.291962e+000
6.980123e+002,5.573990e+000
6.989765e+002,4.560562e+000
6.999407e+002,2.482147e+000
7.009050e+002,8.438568e-001
7.018692e+002,1.524063e+000
7.028334e+002,4.775757e+000
7.037977e+002,8.235687e+000
7.047619e+002,7.583817e+000
7.057261e+002,4.639816e+000
7.066904e+002,2.935791e+000
7.076546e+002,3.028336e+000
7.086188e+002,4.166229e+000
7.095831e+002,5.258087e+000
7.105473e+002,6.507156e+000
7.115115e+002,6.703827e+000
7.124758e+002,5.182709e+000
7.134400e+002,3.449768e+000
7.144042e+002,2.384888e+000
7.153685e+002,2.064362e+000
7.163327e+002,1.969376e+000
7.172969e+002,1.758453e+000
7.182612e+002,1.906143e+000
7.192254e+002,2.873840e+000
7.201896e+002,4.307251e+000
7.211539e+002,5.581741e+000
7.221181e+002,6.210815e+000
7.230823e+002,6.252014e+000
7.240466e+002,5.841232e+000
7.250108e+002,5.161423e+000
7.259750e+002,4.605072e+000
7.269393e+002,4.281921e+000
7.279035e+002,4.127029e+000
7.288677e+002,4.368027e+000
7.298320e+002,6.351898e+000
7.307962e+002,7.376587e+000
7.317604e+002,6.375839e+000
7.327247e+002,4.692062e+000
7.336889e+002,4.354767e+000
7.346531e+002,6.274063e+000
7.356174e+002,7.542191e+000
7.365816e+002,6.438248e+000
7.375458e+002,4.586182e+000
7.385101e+002,2.908600e+000
7.394743e+002,1.807663e+000
7.404385e+002,1.312973e+000
7.414028e+002,1.595383e+000
7.423670e+002,2.345001e+000
7.433312e+002,2.842850e+000
7.442955e+002,3.168304e+000
7.452597e+002,3.503860e+000
7.462239e+002,3.984421e+000
7.471882e+002,4.583023e+000
7.481524e+002,5.266052e+000
7.491166e+002,5.785858e+000
7.500809e+002,6.383698e+000
7.510451e+002,7.753296e+000
7.520093e+002,9.383942e+000
7.529736e+002,9.460251e+000
7.539378e+002,6.145493e+000
7.549020e+002,2.805649e+000
7.558663e+002,1.318146e+000
7.568306e+002,1.195175e+000
7.577948e+002,1.838287e+000
7.587590e+002,2.813095e+000
7.597233e+002,3.975937e+000
7.606875e+002,5.281769e+000
7.616517e+002,6.733765e+000
7.626160e+002,7.337936e+000
7.635802e+002,6.485611e+000
7.645444e+002,5.037445e+000
7.655087e+002,4.905167e+000
7.664729e+002,7.127228e+000
7.674371e+002,8.307877e+000
7.684014e+002,7.601944e+000
7.693656e+002,6.559738e+000
7.703298e+002,6.143524e+000
7.712941e+002,6.484695e+000
7.722583e+002,7.008240e+000
7.732225e+002,7.227356e+000
7.741868e+002,7.554611e+000
7.751510e+002,8.657776e+000
7.761152e+002,1.016226e+001
7.770795e+002,1.112863e+001
7.780437e+002,1.070470e+001
7.790079e+002,9.070175e+000
7.799722e+002,7.844330e+000
7.809364e+002,6.910156e+000
7.819006e+002,6.516327e+000
7.828649e+002,7.271667e+000
7.838291e+002,8.759659e+000
7.847933e+002,9.368317e+000
7.857576e+002,8.268234e+000
7.867218e+002,7.281189e+000
7.876860e+002,6.589554e+000
7.886503e+002,6.380920e+000
7.896145e+002,6.989044e+000
7.905787e+002,8.421387e+000
7.915430e+002,9.963287e+000
7.925072e+002,1.090416e+001
7.934714e+002,1.128839e+001
7.944357e+002,1.121933e+001
7.953999e+002,1.078543e+001
7.963641e+002,9.955246e+000
7.973284e+002,8.586990e+000
7.982926e+002,6.580826e+000
7.992568e+002,6.383652e+000
8.002211e+002,8.712646e+000
8.011853e+002,1.067639e+001
8.021495e+002,1.169669e+001
8.031138e+002,1.182317e+001
8.040780e+002,1.061092e+001
8.050422e+002,6.325256e+000
8.060065e+002,3.196686e+000
8.069707e+002,2.416946e+000
8.079349e+002,3.220810e+000
8.088992e+002,5.623886e+000
8.098634e+002,9.327240e+000
8.108276e+002,1.255496e+001
8.117919e+002,1.184618e+001
8.127561e+002,8.860443e+000
8.137203e+002,7.472427e+000
8.146846e+002,8.195282e+000
8.156488e+002,9.390259e+000
8.166130e+002,8.866882e+000
8.175773e+002,6.048843e+000
8.185415e+002,4.869965e+000
8.195057e+002,6.593781e+000
8.204700e+002,7.905365e+000
8.214342e+002,7.051712e+000
8.223984e+002,4.954895e+000
8.233627e+002,4.255783e+000
8.243269e+002,6.509476e+000
8.252911e+002,9.080307e+000
8.262554e+002,1.085368e+001
8.272196e+002,1.183029e+001
8.281838e+002,1.184824e+001
8.291481e+002,1.093918e+001
8.301123e+002,9.403671e+000
8.310765e+002,7.583328e+000
8.320408e+002,5.607117e+000
8.330050e+002,4.755371e+000
8.339692e+002,5.357864e+000
8.349335e+002,6.371185e+000
8.358977e+002,6.663147e+000
8.368619e+002,6.098923e+000
8.378262e+002,6.227692e+000
8.387904e+002,7.987869e+000
8.397546e+002,9.260529e+000
8.407189e+002,9.318649e+000
8.416831e+002,8.600067e+000
8.426473e+002,7.873749e+000
8.436116e+002,7.450897e+000
8.445758e+002,7.276413e+000
8.455400e+002,7.026337e+000
8.465043e+002,6.887512e+000
8.474685e+002,7.364014e+000
8.484327e+002,8.581924e+000
8.493970e+002,1.020375e+001
8.503612e+002,1.160857e+001
8.513254e+002,1.284227e+001
8.522897e+002,1.241856e+001
8.532539e+002,8.866592e+000
8.542181e+002,5.645050e+000
8.551824e+002,5.241379e+000
8.561466e+002,7.383163e+000
8.571108e+002,8.987488e+000
8.580751e+002,8.386383e+000
8.590393e+002,8.151505e+000
8.600035e+002,9.461868e+000
8.609678e+002,1.151476e+001
8.619320e+002,1.359207e+001
8.628962e+002,1.530756e+001
8.638605e+002,1.633600e+001
8.648247e+002,1.554619e+001
8.657889e+002,1.387138e+001
8.667532e+002,1.356168e+001
8.677174e+002,1.490453e+001
8.686816e+002,1.659584e+001
8.696459e+002,1.717921e+001
8.706101e+002,1.657217e+001
8.715743e+002,1.577168e+001
8.725386e+002,1.379919e+001
8.735028e+002,1.287514e+001
8.744670e+002,1.423488e+001
8.754313e+002,1.674164e+001
8.763955e+002,1.826602e+001
8.773597e+002,1.793129e+001
8.783240e+002,1.740964e+001
8.792882e+002,1.766928e+001
8.802524e+002,1.838892e+001
8.812167e+002,1.969070e+001
8.821809e+002,2.133682e+001
8.831451e+002,2.251094e+001
8.841094e+002,2.206033e+001
8.850736e+002,2.019574e+001
8.860378e+002,2.025424e+001
8.870021e+002,2.269861e+001
8.879663e+002,2.494443e+001
8.889305e+002,2.522467e+001
8.898948e+002,2.396449e+001
8.908590e+002,2.357646e+001
8.918232e+002,2.518459e+001
8.927875e+002,2.619984e+001
8.937517e+002,2.568736e+001
8.947159e+002,2.473076e+001
8.956802e+002,2.404248e+001
8.966444e+002,2.380801e+001
8.976086e+002,2.393387e+001
8.985729e+002,2.455521e+001
8.995371e+002,2.551393e+001
9.005013e+002,2.635931e+001
9.014656e+002,2.716136e+001
9.024298e+002,2.823674e+001
9.033940e+002,2.984184e+001
9.043583e+002,3.172562e+001
9.053225e+002,3.247981e+001
9.062867e+002,3.118263e+001
9.072510e+002,2.967854e+001
9.082152e+002,2.748676e+001
9.091794e+002,2.566534e+001
9.101437e+002,2.557127e+001
9.111079e+002,2.743243e+001
9.120721e+002,2.901532e+001
9.130364e+002,2.848041e+001
9.140006e+002,2.754831e+001
9.149648e+002,2.691286e+001
9.159291e+002,2.684637e+001
9.168933e+002,2.790804e+001
9.178575e+002,3.038907e+001
9.188218e+002,3.321059e+001
9.197860e+002,3.207452e+001
9.207502e+002,2.677557e+001
9.217145e+002,2.379018e+001
9.226787e+002,2.553194e+001
9.236429e+002,2.916420e+001
9.246072e+002,3.076265e+001
9.255714e+002,2.983351e+001
9.265356e+002,2.914258e+001
9.274999e+002,2.958548e+001
9.284641e+002,2.977119e+001
9.294283e+002,2.930116e+001
9.303926e+002,2.827600e+001
9.313568e+002,2.672499e+001
9.323210e+002,2.458778e+001
9.332853e+002,2.264085e+001
9.342495e+002,2.237544e+001
9.352137e+002,2.309602e+001
9.361780e+002,2.437857e+001
9.371422e+002,2.614265e+001
9.381064e+002,2.733380e+001
9.390707e+002,2.619562e+001
9.400349e+002,2.197348e+001
9.409991e+002,1.993764e+001
9.419634e+002,2.146744e+001
9.429276e+002,2.303287e+001
9.438918e+002,2.397197e+001
9.448561e+002,2.433073e+001
9.458203e+002,2.422911e+001
9.467845e+002,2.367705e+001
9.477488e+002,2.292528e+001
9.487130e+002,2.181609e+001
9.496772e+002,2.079250e+001
9.506415e+002,2.023318e+001
9.516057e+002,2.014011e+001
9.525699e+002,2.042685e+001
9.535342e+002,2.102948e+001
9.544984e+002,2.172621e+001
9.554626e+002,2.051694e+001
9.564269e+002,1.698134e+001
9.573911e+002,1.448940e+001
9.583553e+002,1.430145e+001
9.593196e+002,1.546111e+001
9.602838e+002,1.660085e+001
9.612480e+002,1.775133e+001
9.622123e+002,1.837344e+001
9.631765e+002,1.811765e+001
9.641407e+002,1.758159e+001
9.651050e+002,1.642763e+001
9.660692e+002,1.523012e+001
9.670334e+002,1.520235e+001
9.679977e+002,1.717409e+001
9.689619e+002,2.015279e+001
9.699261e+002,2.197897e+001
9.708904e+002,2.285400e+001
9.718546e+002,2.311877e+001
9.728188e+002,2.260582e+001
9.737831e+002,2.234798e+001
9.747473e+002,2.421259e+001
9.757115e+002,2.900166e+001
9.766758e+002,3.166435e+001
9.776400e+002,3.087325e+001
9.786042e+002,2.971655e+001
9.795685e+002,2.880443e+001
9.805327e+002,2.783427e+001
9.814969e+002,2.623541e+001
9.824612e+002,2.387549e+001
9.834254e+002,2.161954e+001
9.843896e+002,2.048422e+001
9.853539e+002,1.963382e+001
9.863181e+002,1.812100e+001
9.872823e+002,1.594098e+001
9.882466e+002,1.362392e+001
9.892108e+002,1.168880e+001
9.901750e+002,1.027736e+001
9.911393e+002,9.676376e+000
9.921035e+002,1.038126e+001
9.930677e+002,1.065479e+001
9.940320e+002,1.032796e+001
9.949962e+002,9.798355e+000
9.959604e+002,9.206802e+000
9.969247e+002,8.631531e+000
9.978889e+002,8.792435e+000
9.988531e+002,1.081761e+001
9.998174e+002,1.243028e+001
1.000782e+003,1.193857e+001
1.001746e+003,1.041862e+001
1.002710e+003,9.324005e+000
1.003674e+003,9.331863e+000
1.004639e+003,1.024779e+001
1.005603e+003,1.193463e+001
1.006567e+003,1.444574e+001
1.007531e+003,1.455620e+001
1.008495e+003,1.110686e+001
1.009460e+003,7.731598e+000
1.010424e+003,6.688004e+000
1.011388e+003,7.527893e+000
1.012352e+003,8.565948e+000
1.013317e+003,1.028204e+001
1.014281e+003,1.059302e+001
1.015245e+003,7.610687e+000
1.016209e+003,4.329224e+000
1.017174e+003,3.247391e+000
1.018138e+003,4.211823e+000
1.019102e+003,5.089722e+000
1.020066e+003,4.109619e+000
1.021031e+003,2.082886e+000
1.021995e+003,1.042740e+000
1.022959e+003,7.653046e-001
1.023923e+003,1.163025e+000
1.024887e+003,2.522461e+000
1.025852e+003,3.963715e+000
1.026816e+003,3.874054e+000
1.027780e+003,1.772156e+000
1.028744e+003,7.333984e-001
1.029709e+003,2.394974e+000
1.030673e+003,3.447433e+000
1.031637e+003,2.221634e+000
1.032601e+003,2.987671e-002
1.033566e+003,-1.254059e+000
1.034530e+003,-9.470978e-001
1.035494e+003,2.718201e-001
1.036458e+003,2.464035e+000
1.037422e+003,4.471313e+000
1.038387e+003,3.943146e+000
1.039351e+003,1.086349e+000
1.040315e+003,-1.697311e+000
1.041279e+003,-2.638229e+000
1.042244e+003,-1.961594e+000
1.043208e+003,-8.381042e-001
1.044172e+003,1.334595e+000
1.045136e+003,2.701660e+000
1.046101e+003,2.806900e+000
1.047065e+003,2.649704e+000
1.048029e+003,2.871735e+000
1.048993e+003,3.373642e+000
1.049958e+003,3.603714e+000
1.050922e+003,3.260376e+000
1.051886e+003,2.827652e+000
1.052850e+003,3.019699e+000
1.053814e+003,3.308044e+000
1.054779e+003,2.688492e+000
1.055743e+003,1.101852e+000
1.056707e+003,-1.994019e-001
1.057671e+003,3.831329e-001
1.058636e+003,2.850311e+000
1.059600e+003,3.789398e+000
1.060564e+003,2.134491e+000
1.061528e+003,7.920074e-001
1.062493e+003,5.651855e-002
1.063457e+003,-2.929382e-001
1.064421e+003,-2.470245e-001
1.065385e+003,1.946869e-001
1.066349e+003,3.043671e-001
1.067314e+003,-6.552429e-001
1.068278e+003,-1.611115e+000
1.069242e+003,-1.841888e+000
1.070206e+003,-1.512466e+000
1.071171e+003,-8.962097e-001
1.072135e+003,-1.718903e-001
1.073099e+003,5.592194e-001
1.074063e+003,1.159363e+000
1.075028e+003,1.617950e+000
1.075992e+003,2.684479e+000
1.076956e+003,5.125702e+000
1.077920e+003,6.712463e+000
1.078885e+003,6.052490e+000
1.079849e+003,4.326035e+000
1.080813e+003,3.897018e+000
1.081777e+003,5.440521e+000
1.082741e+003,6.337082e+000
1.083706e+003,3.916061e+000
1.084670e+003,1.489670e+000
1.085634e+003,1.066055e+000
1.086598e+003,2.056808e+000
1.087563e+003,3.214447e+000
1.088527e+003,3.807724e+000
1.089491e+003,3.795868e+000
1.090455e+003,2.872055e+000
1.091420e+003,8.475494e-001
1.092384e+003,-5.924988e-001
1.093348e+003,-1.703064e+000
1.094312e+003,-1.947083e+000
1.095276e+003,-1.457062e-001
1.096241e+003,2.829483e+000
1.097205e+003,3.946365e+000
1.098169e+003,2.092667e+000
1.099133e+003,4.229431e-001
1.100098e+003,1.010590e-001
1.101062e+003,3.973236e-001
1.102026e+003,1.142166e+000
1.102990e+003,2.111145e+000
1.103955e+003,3.039581e+000
1.104919e+003,3.750671e+000
1.105883e+003,4.211655e+000
1.106847e+003,4.455917e+000
1.107812e+003,4.426392e+000
1.108776e+003,3.527252e+000
1.109740e+003,1.153137e+000
1.110704e+003,-8.912201e-001
1.111668e+003,-1.024139e+000
1.112633e+003,3.810120e-001
1.113597e+003,1.550735e+000
1.114561e+003,2.365082e+000
1.115525e+003,2.661575e+000
1.116490e+003,1.963669e+000
1.117454e+003,1.201004e+000
1.118418e+003,1.265350e+000
1.119382e+003,1.857208e+000
1.120347e+003,1.891510e+000
1.121311e+003,6.456299e-001
1.122275e+003,-1.221710e+000
1.123239e+003,-2.265472e+000
1.124203e+003,-2.380005e+000
1.125168e+003,-1.746643e+000
1.126132e+003,1.277771e-001
1.127096e+003,1.507629e+000
1.128060e+003,4.724884e-001
1.129025e+003,-2.348450e+000
1.129989e+003,-3.722870e+000
1.130953e+003,-2.859802e+000
1.131917e+003,-1.906784e+000
1.132882e+003,-1.340424e+000
1.133846e+003,-9.187317e-001
1.134810e+003,-5.770721e-001
1.135774e+003,-2.337799e-001
1.136739e+003,1.761475e-001
1.137703e+003,6.871185e-001
1.138667e+003,1.387939e+000
1.139631e+003,2.653534e+000
1.140595e+003,4.295166e+000
1.141560e+003,4.826950e+000
1.142524e+003,3.806137e+000
1.143488e+003,3.230850e+000
1.144452e+003,5.148376e+000
1.145417e+003,8.587158e+000
1.146381e+003,9.679337e+000
1.147345e+003,6.963242e+000
1.148309e+003,5.490768e+000
1.149274e+003,6.873840e+000
1.150238e+003,9.364319e+000
1.151202e+003,1.279845e+001
1.152166e+003,1.655621e+001
1.153130e+003,1.981885e+001
1.154095e+003,2.214079e+001
1.155059e+003,2.368608e+001
1.156023e+003,2.488179e+001
1.156987e+003,2.557401e+001
1.157952e+003,2.478200e+001
1.158916e+003,2.236926e+001
1.159880e+003,1.998500e+001
1.160844e+003,1.835136e+001
1.161809e+003,1.715471e+001
1.162773e+003,1.599226e+001
1.163737e+003,1.498557e+001
1.164701e+003,1.349280e+001
1.165666e+003,1.082530e+001
1.166630e+003,8.266190e+000
1.167594e+003,5.814713e+000
1.168558e+003,3.957840e+000
1.169522e+003,3.651978e+000
1.170487e+003,4.930054e+000
1.171451e+003,6.358459e+000
1.172415e+003,6.303146e+000
1.173379e+003,5.012100e+000
1.174344e+003,4.003632e+000
1.175308e+003,3.345139e+000
1.176272e+003,2.403488e+000
1.177236e+003,4.932251e-001
1.178201e+003,-1.389282e+000
1.179165e+003,-1.909668e+000
1.180129e+003,-1.102600e+000
1.181093e+003,-1.863098e-001
1.182057e+003,1.158325e+000
1.183022e+003,1.767471e+000
1.183986e+003,5.296631e-001
1.184950e+003,-1.054214e+000
1.185914e+003,-1.198624e+000
1.186879e+003,-4.934692e-002
1.187843e+003,5.471802e-001
1.188807e+003,-9.635010e-001
1.189771e+003,-3.715073e+000
1.190736e+003,-5.091072e+000
1.191700e+003,-5.014061e+000
1.192664e+003,-4.032562e+000
1.193628e+003,-9.972992e-001
1.194593e+003,1.469131e+000
1.195557e+003,1.366150e+000
1.196521e+003,-8.423615e-001
1.197485e+003,-3.848831e+000
1.198449e+003,-8.123184e+000
1.199414e+003,-1.102031e+001
1.200378e+003,-1.055968e+001
1.201342e+003,-9.055038e+000
1.202306e+003,-7.472725e+000
1.203271e+003,-6.097984e+000
1.204235e+003,-4.998894e+000
1.205199e+003,-4.215256e+000
1.206163e+003,-3.814423e+000
1.207128e+003,-3.944885e+000
1.208092e+003,-4.625130e+000
1.209056e+003,-5.578583e+000
1.210020e+003,-7.003471e+000
1.210984e+003,-8.247192e+000
1.211949e+003,-9.159065e+000
1.212913e+003,-9.802101e+000
1.213877e+003,-1.009828e+001
1.214841e+003,-1.005412e+001
1.215806e+003,-1.024957e+001
1.216770e+003,-1.104552e+001
1.217734e+003,-1.196136e+001
1.218698e+003,-1.278780e+001
1.219663e+003,-1.350351e+001
1.220627e+003,-1.427750e+001
1.221591e+003,-1.497427e+001
1.222555e+003,-1.483150e+001
1.223520e+003,-1.306586e+001
1.224484e+003,-1.026566e+001
1.225448e+003,-9.386536e+000
1.226412e+003,-1.168601e+001
1.227376e+003,-1.323671e+001
1.228341e+003,-1.356426e+001
1.229305e+003,-1.374995e+001
1.230269e+003,-1.480419e+001
1.231233e+003,-1.602135e+001
1.232198e+003,-1.564148e+001
1.233162e+003,-1.309638e+001
1.234126e+003,-1.055255e+001
1.235090e+003,-9.515312e+000
1.236055e+003,-9.419983e+000
1.237019e+003,-9.737694e+000
1.237983e+003,-1.041006e+001
1.238947e+003,-1.146039e+001
1.239911e+003,-1.285386e+001
1.240876e+003,-1.400758e+001
1.241840e+003,-1.396943e+001
1.242804e+003,-1.263039e+001
1.243768e+003,-1.204485e+001
1.244733e+003,-1.321815e+001
1.245697e+003,-1.381783e+001
1.246661e+003,-1.343276e+001
1.247625e+003,-1.275258e+001
1.248590e+003,-1.196441e+001
1.249554e+003,-1.128024e+001
1.250518e+003,-1.131769e+001
1.251482e+003,-1.246127e+001
1.252447e+003,-1.367351e+001
1.253411e+003,-1.345724e+001
1.254375e+003,-1.243816e+001
1.255339e+003,-1.226371e+001
1.256303e+003,-1.290409e+001
1.257268e+003,-1.267929e+001
1.258232e+003,-1.023501e+001
1.259196e+003,-7.068199e+000
1.260160e+003,-6.431076e+000
1.261125e+003,-8.841797e+000
1.262089e+003,-1.022284e+001
1.263053e+003,-9.486328e+000
1.264017e+003,-8.597160e+000
1.264982e+003,-7.587898e+000
1.265946e+003,-6.899872e+000
1.266910e+003,-7.248802e+000
1.267874e+003,-8.337479e+000
1.268839e+003,-8.949509e+000
1.269803e+003,-8.264000e+000
1.270767e+003,-7.018250e+000
1.271731e+003,-6.574791e+000
1.272695e+003,-6.933853e+000
1.273660e+003,-7.663956e+000
1.274624e+003,-9.076675e+000
1.275588e+003,-1.025910e+001
1.276552e+003,-1.055631e+001
1.277517e+003,-1.026386e+001
1.278481e+003,-9.979660e+000
1.279445e+003,-9.757980e+000
1.280409e+003,-9.496292e+000
1.281374e+003,-9.067154e+000
1.282338e+003,-8.709251e+000
1.283302e+003,-8.271767e+000
1.284266e+003,-8.139641e+000
1.285230e+003,-9.262184e+000
1.286195e+003,-1.131216e+001
1.287159e+003,-1.242413e+001
1.288123e+003,-1.102486e+001
1.289087e+003,-8.184120e+000
1.290052e+003,-7.346352e+000
1.291016e+003,-9.382248e+000
1.291980e+003,-1.053098e+001
1.292944e+003,-9.870972e+000
1.293909e+003,-9.698441e+000
1.294873e+003,-1.156339e+001
1.295837e+003,-1.395163e+001
1.296801e+003,-1.461075e+001
1.297766e+003,-1.333834e+001
1.298730e+003,-1.191384e+001
1.299694e+003,-1.119291e+001
1.300658e+003,-1.089098e+001
1.301622e+003,-1.066986e+001
1.302587e+003,-1.056210e+001
1.303551e+003,-1.080657e+001
1.304515e+003,-1.136048e+001
1.305479e+003,-1.157414e+001
1.306444e+003,-1.082449e+001
1.307408e+003,-9.583771e+000
1.308372e+003,-9.553253e+000
1.309336e+003,-1.149784e+001
1.310301e+003,-1.228327e+001
1.311265e+003,-1.040888e+001
1.312229e+003,-8.985764e+000
1.313193e+003,-9.334045e+000
1.314157e+003,-1.032796e+001
1.315122e+003,-1.082605e+001
1.316086e+003,-1.066225e+001
1.317050e+003,-1.015736e+001
1.318014e+003,-9.445244e+000
1.318979e+003,-8.905792e+000
1.319943e+003,-9.438629e+000
1.320907e+003,-1.086720e+001
1.321871e+003,-1.177843e+001
1.322836e+003,-1.218559e+001
1.323800e+003,-1.212318e+001
1.324764e+003,-1.145820e+001
1.325728e+003,-1.038883e+001
1.326693e+003,-8.921364e+000
1.327657e+003,-7.067635e+000
1.328621e+003,-6.706421e+000
1.329585e+003,-9.170212e+000
1.330549e+003,-1.146912e+001
1.331514e+003,-1.238972e+001
1.332478e+003,-1.247134e+001
1.333442e+003,-1.177137e+001
1.334406e+003,-1.063632e+001
1.335371e+003,-9.903992e+000
1.336335e+003,-1.006435e+001
1.337299e+003,-1.057462e+001
1.338263e+003,-1.038579e+001
1.339228e+003,-9.358276e+000
1.340192e+003,-8.931709e+000
1.341156e+003,-9.721146e+000
1.342120e+003,-1.016898e+001
1.343084e+003,-1.004366e+001
1.344049e+003,-9.617805e+000
1.345013e+003,-8.680649e+000
1.345977e+003,-7.578705e+000
1.346941e+003,-7.543335e+000
1.347906e+003,-9.106636e+000
1.348870e+003,-1.039902e+001
1.349834e+003,-9.359207e+000
1.350798e+003,-7.210236e+000
1.351763e+003,-6.307938e+000
1.352727e+003,-6.469986e+000
1.353691e+003,-6.629822e+000
1.354655e+003,-6.391335e+000
1.355620e+003,-6.033661e+000
1.356584e+003,-5.819870e+000
1.357548e+003,-5.736633e+000
1.358512e+003,-5.849388e+000
1.359476e+003,-6.236595e+000
1.360441e+003,-6.838348e+000
1.361405e+003,-7.792526e+000
1.362369e+003,-8.717316e+000
1.363333e+003,-9.665863e+000
1.364298e+003,-1.035027e+001
1.365262e+003,-1.033586e+001
1.366226e+003,-9.587967e+000
1.367190e+003,-8.394951e+000
1.368155e+003,-6.986496e+000
1.369119e+003,-5.702583e+000
1.370083e+003,-5.698586e+000
1.371047e+003,-7.460236e+000
1.372011e+003,-8.291382e+000
1.372976e+003,-7.770805e+000
1.373940e+003,-7.060509e+000
1.374904e+003,-5.953209e+000
1.375868e+003,-5.239380e+000
1.376833e+003,-6.528679e+000
1.377797e+003,-9.528847e+000
1.378761e+003,-1.140508e+001
1.379725e+003,-1.075533e+001
1.380690e+003,-9.267387e+000
1.381654e+003,-8.495300e+000
1.382618e+003,-8.021660e+000
1.383582e+003,-7.114418e+000
1.384547e+003,-5.863426e+000
1.385511e+003,-5.222336e+000
1.386475e+003,-5.812393e+000
1.387439e+003,-6.847572e+000
1.388403e+003,-7.182442e+000
1.389368e+003,-6.823624e+000
1.390332e+003,-5.957710e+000
1.391296e+003,-3.599472e+000
1.392260e+003,-2.717621e+000
1.393225e+003,-5.508484e+000
1.394189e+003,-8.172432e+000
1.395153e+003,-8.358223e+000
1.396117e+003,-7.060654e+000
1.397082e+003,-5.871399e+000
1.398046e+003,-5.352638e+000
1.399010e+003,-5.301140e+000
1.399974e+003,-5.584541e+000
1.400938e+003,-6.155762e+000
1.401903e+003,-6.694008e+000
1.402867e+003,-7.095512e+000
1.403831e+003,-7.107780e+000
1.404795e+003,-7.127663e+000
1.405760e+003,-6.410706e+000
1.406724e+003,-3.661240e+000
1.407688e+003,-9.616852e-001
1.408652e+003,-1.013580e+000
1.409617e+003,-3.461166e+000
1.410581e+003,-5.610558e+000
1.411545e+003,-6.396965e+000
1.412509e+003,-6.729767e+000
1.413474e+003,-7.821053e+000
1.414438e+003,-8.826569e+000
1.415402e+003,-7.851685e+000
1.416366e+003,-5.195473e+000
1.417330e+003,-3.101250e+000
1.418295e+003,-2.461670e+000
1.419259e+003,-2.575981e+000
1.420223e+003,-2.794823e+000
1.421187e+003,-3.149910e+000
1.422152e+003,-3.690842e+000
1.423116e+003,-4.569870e+000
1.424080e+003,-4.902763e+000
1.425044e+003,-4.089211e+000
1.426009e+003,-3.167000e+000
1.426973e+003,-2.360840e+000
1.427937e+003,-1.808304e+000
1.428901e+003,-1.742279e+000
1.429865e+003,-2.039902e+000
1.430830e+003,-2.251907e+000
1.431794e+003,-2.112778e+000
1.432758e+003,-1.868309e+000
1.433722e+003,-1.923256e+000
1.434687e+003,-2.203705e+000
1.435651e+003,-2.572105e+000
1.436615e+003,-3.358009e+000
1.437579e+003,-4.152344e+000
1.438544e+003,-5.163200e+000
1.439508e+003,-5.864014e+000
1.440472e+003,-5.859245e+000
1.441436e+003,-5.232117e+000
1.442401e+003,-3.937096e+000
1.443365e+003,-2.133209e+000
1.444329e+003,-9.897766e-001
1.445293e+003,-1.495415e+000
1.446257e+003,-2.728989e+000
1.447222e+003,-2.982803e+000
1.448186e+003,-2.440041e+000
1.449150e+003,-1.945122e+000
1.450114e+003,-1.504456e+000
1.451079e+003,-1.448555e+000
1.452043e+003,-2.274582e+000
1.453007e+003,-3.270119e+000
1.453971e+003,-3.425888e+000
1.454936e+003,-2.857025e+000
1.455900e+003,-2.272957e+000
1.456864e+003,-1.662384e+000
1.457828e+003,-1.495903e+000
1.458792e+003,-2.739204e+000
1.459757e+003,-3.990982e+000
1.460721e+003,-3.886063e+000
1.461685e+003,-2.961906e+000
1.462649e+003,-2.361908e+000
1.463614e+003,-2.363167e+000
1.464578e+003,-2.469612e+000
1.465542e+003,-2.217957e+000
1.466506e+003,-1.887375e+000
1.467471e+003,-2.392113e+000
1.468435e+003,-3.994324e+000
1.469399e+003,-4.755379e+000
1.470363e+003,-3.911812e+000
1.471328e+003,-3.294983e+000
1.472292e+003,-3.645348e+000
1.473256e+003,-4.145126e+000
1.474220e+003,-3.993401e+000
1.475184e+003,-3.453117e+000
1.476149e+003,-3.338547e+000
1.477113e+003,-3.859779e+000
1.478077e+003,-4.277435e+000
1.479041e+003,-3.811966e+000
1.480006e+003,-2.756538e+000
1.480970e+003,-2.228439e+000
1.481934e+003,-2.482468e+000
1.482898e+003,-2.459778e+000
1.483863e+003,-1.729691e+000
1.484827e+003,-1.384567e+000
1.485791e+003,-2.134048e+000
1.486755e+003,-2.922379e+000
1.487719e+003,-2.697449e+000
1.488684e+003,-1.754768e+000
1.489648e+003,-1.045990e+000
1.490612e+003,-8.432541e-001
1.491576e+003,-6.142578e-001
1.492541e+003,1.342392e-001
1.493505e+003,1.012154e+000
1.494469e+003,9.559555e-001
1.495433e+003,1.155014e-001
1.496398e+003,-3.775787e-002
1.497362e+003,1.080292e+000
1.498326e+003,1.891701e+000
1.499290e+003,1.164040e+000
1.500255e+003,-5.577850e-002
1.501219e+003,-6.005630e-001
1.502183e+003,-4.123993e-001
1.503147e+003,8.612900e-001
1.504111e+003,3.547386e+000
1.505076e+003,6.026527e+000
1.506040e+003,7.288086e+000
1.507004e+003,8.005028e+000
1.507968e+003,8.303162e+000
1.508933e+003,8.770935e+000
1.509897e+003,1.093486e+001
1.510861e+003,1.504202e+001
1.511825e+003,1.915826e+001
1.512790e+003,2.173880e+001
1.513754e+003,2.367836e+001
1.514718e+003,2.699356e+001
1.515682e+003,3.162159e+001
1.516646e+003,3.536515e+001
1.517611e+003,3.817718e+001
1.518575e+003,3.999517e+001
1.519539e+003,4.032972e+001
1.520503e+003,4.026623e+001
1.521468e+003,4.031991e+001
1.522432e+003,4.027062e+001
1.523396e+003,3.976477e+001
1.524360e+003,3.876648e+001
1.525325e+003,3.735825e+001
1.526289e+003,3.561885e+001
1.527253e+003,3.408600e+001
1.528217e+003,3.389191e+001
1.529182e+003,3.511333e+001
1.530146e+003,3.453378e+001
1.531110e+003,3.085525e+001
1.532074e+003,2.769086e+001
1.533039e+003,2.595577e+001
1.534003e+003,2.372160e+001
1.534967e+003,1.935777e+001
1.535931e+003,1.480398e+001
1.536896e+003,1.266369e+001
1.537860e+003,1.257059e+001
1.538824e+003,1.202280e+001
1.539788e+003,9.729729e+000
1.540752e+003,6.811295e+000
1.541717e+003,4.687874e+000
1.542681e+003,3.427498e+000
1.543645e+003,3.247581e+000
1.544609e+003,4.904808e+000
1.545573e+003,5.874107e+000
1.546538e+003,5.661324e+000
1.547502e+003,5.260414e+000
1.548466e+003,4.879539e+000
1.549430e+003,4.758125e+000
1.550395e+003,5.198662e+000
1.551359e+003,6.007347e+000
1.552323e+003,6.789146e+000
1.553287e+003,7.379913e+000
1.554252e+003,7.549370e+000
1.555216e+003,7.063026e+000
1.556180e+003,6.066826e+000
1.557144e+003,4.754326e+000
1.558109e+003,3.145355e+000
1.559073e+003,2.190117e+000
1.560037e+003,2.114243e+000
1.561001e+003,2.061607e+000
1.561966e+003,1.868652e+000
1.562930e+003,1.636620e+000
1.563894e+003,1.323769e+000
1.564858e+003,1.000145e+000
1.565823e+003,8.114929e-001
1.566787e+003,7.935028e-001
1.567751e+003,1.080757e+000
1.568715e+003,1.775421e+000
1.569679e+003,2.841209e+000
1.570644e+003,4.782234e+000
1.571608e+003,6.801636e+000
1.572572e+003,6.392982e+000
1.573536e+003,3.454659e+000
1.574500e+003,1.460823e+000
1.575465e+003,1.901466e+000
1.576429e+003,2.994339e+000
1.577393e+003,3.185951e+000
1.578357e+003,3.049561e+000
1.579322e+003,4.024750e+000
1.580286e+003,6.089478e+000
1.581250e+003,7.444794e+000
1.582214e+003,7.430511e+000
1.583179e+003,7.032318e+000
1.584143e+003,6.784996e+000
1.585107e+003,6.643600e+000
1.586071e+003,6.595276e+000
1.587036e+003,6.710434e+000
1.588000e+003,7.096283e+000
1.588964e+003,7.764915e+000
1.589928e+003,8.154770e+000
1.590893e+003,7.864471e+000
1.591857e+003,7.140915e+000
1.592821e+003,5.846016e+000
1.593785e+003,4.330360e+000
1.594750e+003,4.982506e+000
1.595714e+003,8.532578e+000
1.596678e+003,1.114954e+001
1.597642e+003,1.084880e+001
1.598606e+003,9.831306e+000
1.599571e+003,9.872322e+000
1.600535e+003,1.032920e+001
1.601499e+003,1.000214e+001
1.602463e+003,9.140167e+000
1.603427e+003,9.657951e+000
1.604392e+003,1.253216e+001
1.605356e+003,1.541122e+001
1.606320e+003,1.566300e+001
1.607284e+003,1.417410e+001
1.608249e+003,1.348839e+001
1.609213e+003,1.364050e+001
1.610177e+003,1.357030e+001
1.611141e+003,1.288637e+001
1.612106e+003,1.252441e+001
1.613070e+003,1.359740e+001
1.614034e+003,1.452680e+001
1.614998e+003,1.370818e+001
1.615963e+003,1.214310e+001
1.616927e+003,1.182880e+001
1.617891e+003,1.284759e+001
1.618855e+003,1.321433e+001
1.619820e+003,1.158700e+001
1.620784e+003,9.444069e+000
1.621748e+003,9.083305e+000
1.622712e+003,1.029916e+001
1.623677e+003,1.135571e+001
1.624641e+003,1.226066e+001
1.625605e+003,1.289630e+001
1.626569e+003,1.280972e+001
1.627533e+003,1.284546e+001
1.628498e+003,1.340327e+001
1.629462e+003,1.438975e+001
1.630426e+003,1.648000e+001
1.631390e+003,1.871204e+001
1.632354e+003,1.866379e+001
1.633319e+003,1.603503e+001
1.634283e+003,1.375814e+001
1.635247e+003,1.405759e+001
1.636211e+003,1.572320e+001
1.637176e+003,1.680131e+001
1.638140e+003,1.732540e+001
1.639104e+003,1.738616e+001
1.640068e+003,1.689858e+001
1.641033e+003,1.613305e+001
1.641997e+003,1.479176e+001
1.642961e+003,1.377233e+001
1.643925e+003,1.361628e+001
1.644890e+003,1.385860e+001
1.645854e+003,1.407135e+001
1.646818e+003,1.425468e+001
1.647782e+003,1.467026e+001
1.648747e+003,1.535139e+001
1.649711e+003,1.574885e+001
1.650675e+003,1.539517e+001
1.651639e+003,1.463327e+001
1.652604e+003,1.392304e+001
1.653568e+003,1.325174e+001
1.654532e+003,1.346943e+001
1.655496e+003,1.504451e+001
1.656460e+003,1.599567e+001
1.657425e+003,1.567433e+001
1.658389e+003,1.474572e+001
1.659353e+003,1.284406e+001
1.660317e+003,1.109949e+001
1.661281e+003,1.093978e+001
1.662246e+003,1.198457e+001
1.663210e+003,1.300150e+001
1.664174e+003,1.357580e+001
1.665138e+003,1.367888e+001
1.666103e+003,1.328550e+001
1.667067e+003,1.233651e+001
1.668031e+003,1.022730e+001
1.668995e+003,7.171478e+000
1.669960e+003,6.315994e+000
1.670924e+003,8.563812e+000
1.671888e+003,1.015674e+001
1.672852e+003,9.246269e+000
1.673817e+003,8.365166e+000
1.674781e+003,9.951210e+000
1.675745e+003,1.179250e+001
1.676709e+003,1.084838e+001
1.677674e+003,7.986366e+000
1.678638e+003,6.525795e+000
1.679602e+003,7.494591e+000
1.680566e+003,8.926407e+000
1.681531e+003,9.431396e+000
1.682495e+003,9.410553e+000
1.683459e+003,9.456627e+000
1.684423e+003,9.510765e+000
1.685387e+003,9.423706e+000
1.686352e+003,9.207405e+000
1.687316e+003,8.796463e+000
1.688280e+003,8.081314e+000
1.689244e+003,7.321625e+000
1.690208e+003,6.258606e+000
1.691173e+003,5.548363e+000
1.692137e+003,6.400558e+000
1.693101e+003,8.310585e+000
1.694065e+003,9.454308e+000
1.695030e+003,9.323868e+000
1.695994e+003,8.828003e+000
1.696958e+003,8.580299e+000
1.697922e+003,8.247253e+000
1.698887e+003,7.159592e+000
1.699851e+003,5.693626e+000
1.700815e+003,5.056076e+000
1.701779e+003,5.306549e+000
1.702744e+003,5.473816e+000
1.703708e+003,5.333626e+000
1.704672e+003,4.984940e+000
1.705636e+003,4.262619e+000
1.706601e+003,3.456375e+000
1.707565e+003,3.130470e+000
1.708529e+003,3.190964e+000
1.709493e+003,3.178452e+000
1.710458e+003,2.990021e+000
1.711422e+003,3.133202e+000
1.712386e+003,4.579178e+000
1.713350e+003,5.602478e+000
1.714314e+003,4.057289e+000
1.715279e+003,1.523880e+000
1.716243e+003,6.173859e-001
1.717207e+003,1.369919e+000
1.718171e+003,3.165863e+000
1.719135e+003,5.840462e+000
1.720100e+003,7.015503e+000
1.721064e+003,4.604034e+000
1.722028e+003,1.291031e+000
1.722992e+003,1.308739e+000
1.723957e+003,3.913841e+000
1.724921e+003,4.331520e+000
1.725885e+003,2.080276e+000
1.726849e+003,3.503952e-001
1.727814e+003,-2.782593e-001
1.728778e+003,-2.324677e-001
1.729742e+003,9.751663e-001
1.730706e+003,2.135406e+000
1.731671e+003,1.479706e+000
1.732635e+003,-3.318787e-002
1.733599e+003,1.126251e-001
1.734563e+003,2.107666e+000
1.735528e+003,3.820145e+000
1.736492e+003,4.101532e+000
1.737456e+003,3.399910e+000
1.738420e+003,2.072472e+000
1.739385e+003,5.559464e-001
1.740349e+003,7.515488e-001
1.741313e+003,3.319878e+000
1.742277e+003,4.428391e+000
1.743241e+003,2.918777e+000
1.744206e+003,1.957687e+000
1.745170e+003,2.383575e+000
1.746134e+003,2.873100e+000
1.747098e+003,2.468582e+000
1.748063e+003,1.889923e+000
1.749027e+003,2.319397e+000
1.749991e+003,3.345039e+000
1.750955e+003,3.456787e+000
1.751919e+003,2.263115e+000
1.752884e+003,9.663162e-001
1.753848e+003,5.622177e-001
1.754812e+003,6.969604e-001
1.755776e+003,7.304916e-001
1.756741e+003,7.085342e-001
1.757705e+003,5.566101e-001
1.758669e+003,-3.593445e-002
1.759633e+003,4.749298e-002
1.760598e+003,1.582222e+000
1.761562e+003,2.763664e+000
1.762526e+003,2.840897e+000
1.763490e+003,2.708824e+000
1.764455e+003,3.241814e+000
1.765419e+003,3.888123e+000
1.766383e+003,3.498924e+000
1.767347e+003,2.147926e+000
1.768312e+003,1.080429e+000
1.769276e+003,8.701782e-001
1.770240e+003,8.892212e-001
1.771204e+003,5.269165e-001
1.772168e+003,4.462433e-002
1.773133e+003,3.147888e-002
1.774097e+003,4.103470e-001
1.775061e+003,3.887787e-001
1.776025e+003,-2.061920e-001
1.776990e+003,-9.704361e-001
1.777954e+003,-2.071663e+000
1.778918e+003,-2.442848e+000
1.779882e+003,-4.808655e-001
1.780846e+003,1.878639e+000
1.781811e+003,1.664978e+000
1.782775e+003,-2.703552e-001
1.783739e+003,-9.914246e-001
1.784703e+003,4.789734e-002
1.785668e+003,8.533936e-001
1.786632e+003,4.162750e-001
1.787596e+003,-3.716812e-001
1.788560e+003,-1.162148e+000
1.789525e+003,-1.562317e+000
1.790489e+003,-5.677872e-001
1.791453e+003,1.158836e+000
1.792417e+003,1.293053e+000
1.793382e+003,-4.340210e-001
1.794346e+003,-1.439888e+000
1.795310e+003,-3.079758e-001
1.796274e+003,1.336639e+000
1.797239e+003,1.680588e+000
1.798203e+003,1.140305e+000
1.799167e+003,7.652512e-001
1.800131e+003,3.604431e-001
1.801095e+003,7.264481e-001
1.802060e+003,3.407478e+000
1.803024e+003,4.520378e+000
1.803988e+003,2.272774e+000
1.804952e+003,6.466675e-002
1.805917e+003,-6.318436e-001
1.806881e+003,-4.075546e-001
1.807845e+003,6.478882e-001
1.808809e+003,1.859428e+000
1.809773e+003,1.732361e+000
1.810738e+003,3.518372e-001
1.811702e+003,7.617188e-002
1.812666e+003,2.321228e+000
1.813630e+003,4.868324e+000
1.814595e+003,4.639229e+000
1.815559e+003,2.327507e+000
1.816523e+003,7.040787e-001
1.817487e+003,-2.112427e-001
1.818452e+003,-3.980331e-001
1.819416e+003,3.855743e-001
1.820380e+003,1.357666e+000
1.821344e+003,2.636459e+000
1.822309e+003,3.482582e+000
1.823273e+003,3.489609e+000
1.824237e+003,2.937576e+000
1.825201e+003,1.690163e+000
1.826166e+003,1.375732e-001
1.827130e+003,-6.980820e-001
1.828094e+003,-6.722870e-001
1.829058e+003,-5.161362e-001
1.830022e+003,-5.636215e-001
1.830987e+003,-5.135498e-001
1.831951e+003,-1.510162e-001
1.832915e+003,4.852142e-001
1.833879e+003,1.787704e+000
1.834844e+003,3.242310e+000
1.835808e+003,2.947479e+000
1.836772e+003,8.880920e-001
1.837736e+003,-2.775650e-001
1.838700e+003,6.095352e-001
1.839665e+003,1.959541e+000
1.840629e+003,2.392357e+000
1.841593e+003,2.231834e+000
1.842557e+003,2.086960e+000
1.843522e+003,1.956108e+000
1.844486e+003,1.925209e+000
1.845450e+003,1.974197e+000
1.846414e+003,2.305618e+000
1.847379e+003,3.130508e+000
1.848343e+003,3.774178e+000
1.849307e+003,4.297607e+000
1.850271e+003,4.367027e+000
1.851236e+003,3.318268e+000
1.852200e+003,1.996094e+000
1.853164e+003,1.532455e+000
1.854128e+003,1.838211e+000
1.855093e+003,2.239403e+000
1.856057e+003,2.467346e+000
1.857021e+003,2.397278e+000
1.857985e+003,1.826591e+000
1.858949e+003,1.208923e+000
1.859914e+003,1.513847e+000
1.860878e+003,2.530479e+000
1.861842e+003,2.784592e+000
1.862806e+003,2.216751e+000
1.863771e+003,2.704170e+000
1.864735e+003,4.916748e+000
1.865699e+003,6.413551e+000
1.866663e+003,5.993126e+000
1.867627e+003,4.898727e+000
1.868592e+003,3.948662e+000
1.869556e+003,3.121162e+000
1.870520e+003,2.305717e+000
1.871484e+003,1.590340e+000
1.872449e+003,1.756973e+000
1.873413e+003,3.358589e+000
1.874377e+003,4.563972e+000
1.875341e+003,4.510765e+000
1.876306e+003,4.135757e+000
1.877270e+003,3.573372e+000
1.878234e+003,3.221672e+000
1.879198e+003,3.724701e+000
1.880163e+003,4.647758e+000
1.881127e+003,5.218132e+000
1.882091e+003,5.337753e+000
1.883055e+003,5.262337e+000
1.884020e+003,5.113693e+000
1.884984e+003,4.843323e+000
1.885948e+003,4.390343e+000
1.886912e+003,4.066719e+000
1.887876e+003,4.629173e+000
1.888841e+003,5.954529e+000
1.889805e+003,6.287460e+000
1.890769e+003,5.329422e+000
1.891733e+003,5.045891e+000
1.892698e+003,5.916359e+000
1.893662e+003,6.670494e+000
1.894626e+003,7.282394e+000
1.895590e+003,7.159691e+000
1.896554e+003,4.921623e+000
1.897519e+003,2.478455e+000
1.898483e+003,2.266487e+000
1.899447e+003,3.788292e+000
1.900411e+003,5.369644e+000
1.901376e+003,6.804527e+000
1.902340e+003,7.509842e+000
1.903304e+003,6.966660e+000
1.904268e+003,6.101852e+000
1.905233e+003,5.029526e+000
1.906197e+003,4.368088e+000
1.907161e+003,5.611519e+000
1.908125e+003,7.319450e+000
1.909090e+003,6.356804e+000
1.910054e+003,3.146019e+000
1.911018e+003,6.410370e-001
1.911982e+003,-5.562592e-002
1.912947e+003,5.172272e-001
1.913911e+003,1.948341e+000
1.914875e+003,3.839500e+000
1.915839e+003,5.646927e+000
1.916803e+003,7.159607e+000
1.917768e+003,7.342354e+000
1.918732e+003,5.962555e+000
1.919696e+003,4.940842e+000
1.920660e+003,4.140396e+000
1.921625e+003,4.341629e+000
1.922589e+003,6.546837e+000
1.923553e+003,8.356911e+000
1.924517e+003,8.194016e+000
1.925481e+003,7.372849e+000
1.926446e+003,6.776833e+000
1.927410e+003,6.466270e+000
1.928374e+003,6.627060e+000
1.929338e+003,7.178276e+000
1.930303e+003,7.407684e+000
1.931267e+003,7.105614e+000
1.932231e+003,6.830757e+000
1.933195e+003,6.798988e+000
1.934160e+003,6.808464e+000
1.935124e+003,6.485840e+000
1.936088e+003,6.273987e+000
1.937052e+003,7.190773e+000
1.938017e+003,8.569382e+000
1.938981e+003,8.547920e+000
1.939945e+003,7.194084e+000
1.940909e+003,6.606880e+000
1.941874e+003,7.620056e+000
1.942838e+003,8.387367e+000
1.943802e+003,7.160034e+000
1.944766e+003,5.314079e+000
1.945730e+003,5.702728e+000
1.946695e+003,7.926689e+000
1.947659e+003,8.868187e+000
1.948623e+003,8.385666e+000
1.949587e+003,8.142441e+000
1.950552e+003,8.432228e+000
1.951516e+003,8.580078e+000
1.952480e+003,8.360519e+000
1.953444e+003,7.947403e+000
1.954408e+003,7.417816e+000
1.955373e+003,6.739983e+000
1.956337e+003,5.646271e+000
1.957301e+003,4.472954e+000
1.958265e+003,4.232750e+000
1.959230e+003,5.004036e+000
1.960194e+003,6.317825e+000
1.961158e+003,9.053215e+000
1.962122e+003,1.071881e+001
1.963087e+003,1.033871e+001
1.964051e+003,9.157013e+000
1.965015e+003,6.721329e+000
1.965979e+003,4.945557e+000
1.966944e+003,6.710136e+000
1.967908e+003,9.985947e+000
1.968872e+003,1.067658e+001
1.969836e+003,8.697090e+000
1.970801e+003,7.093620e+000
1.971765e+003,7.179115e+000
1.972729e+003,7.783234e+000
1.973693e+003,7.905014e+000
1.974657e+003,8.012726e+000
1.975622e+003,9.040062e+000
1.976586e+003,1.049143e+001
1.977550e+003,1.089330e+001
1.978514e+003,1.047737e+001
1.979479e+003,1.082391e+001
1.980443e+003,1.207359e+001
1.981407e+003,1.255483e+001
1.982371e+003,1.163009e+001
1.983335e+003,1.056763e+001
1.984300e+003,1.029929e+001
1.985264e+003,1.031263e+001
1.986228e+003,9.829041e+000
1.987192e+003,9.001778e+000
1.988157e+003,8.635452e+000
1.989121e+003,8.783562e+000
1.990085e+003,9.275444e+000
1.991049e+003,1.073090e+001
1.992014e+003,1.133001e+001
1.992978e+003,1.007648e+001
1.993942e+003,8.945023e+000
1.994906e+003,8.670731e+000
1.995871e+003,8.692177e+000
1.996835e+003,8.413078e+000
1.997799e+003,8.312271e+000
1.998763e+003,9.478172e+000
1.999728e+003,1.148666e+001
