5.003444e+002,3.334552e+001
5.013087e+002,2.822327e+001
5.022729e+002,2.505841e+001
5.032371e+002,2.420776e+001
5.042014e+002,2.461078e+001
5.051656e+002,2.615784e+001
5.061298e+002,2.796460e+001
5.070941e+002,2.918359e+001
5.080583e+002,2.957257e+001
5.090225e+002,2.921002e+001
5.099868e+002,2.751801e+001
5.109510e+002,2.589453e+001
5.119152e+002,2.514551e+001
5.128795e+002,2.538916e+001
5.138437e+002,2.571448e+001
5.148079e+002,2.557385e+001
5.157722e+002,2.586243e+001
5.167364e+002,2.731189e+001
5.177006e+002,2.956683e+001
5.186649e+002,3.125970e+001
5.196291e+002,3.112079e+001
5.205933e+002,2.993060e+001
5.215576e+002,2.688794e+001
5.225218e+002,2.215186e+001
5.234860e+002,1.770581e+001
5.244503e+002,1.769183e+001
5.254145e+002,2.456885e+001
5.263787e+002,2.827808e+001
5.273430e+002,2.744495e+001
5.283072e+002,2.442761e+001
5.292714e+002,2.216461e+001
5.302357e+002,2.036322e+001
5.311999e+002,1.872699e+001
5.321641e+002,1.790363e+001
5.331284e+002,1.760986e+001
5.340926e+002,1.731470e+001
5.350568e+002,1.657446e+001
5.360211e+002,1.592871e+001
5.369853e+002,1.759064e+001
5.379495e+002,1.947772e+001
5.389138e+002,1.891907e+001
5.398780e+002,1.518756e+001
5.408422e+002,1.025903e+001
5.418065e+002,1.045239e+001
5.427707e+002,1.494824e+001
5.437349e+002,1.821014e+001
5.446992e+002,1.840771e+001
5.456634e+002,1.652930e+001
5.466276e+002,1.629602e+001
5.475919e+002,2.160663e+001
5.485561e+002,2.385803e+001
5.495203e+002,2.005957e+001
5.504846e+002,1.358997e+001
5.514488e+002,9.546204e+000
5.524130e+002,1.069928e+001
5.533773e+002,1.293622e+001
5.543415e+002,1.443652e+001
5.553057e+002,1.541223e+001
5.562700e+002,1.613690e+001
5.572342e+002,1.671198e+001
5.581984e+002,1.662421e+001
5.591627e+002,1.418842e+001
5.601269e+002,1.069189e+001
5.610911e+002,8.686707e+000
5.620554e+002,9.533142e+000
5.630196e+002,1.247729e+001
5.639838e+002,1.204626e+001
5.649481e+002,4.361755e+000
5.659123e+002,-1.008911e+000
5.668765e+002,-6.287231e-001
5.678408e+002,3.832703e+000
5.688050e+002,6.899841e+000
5.697692e+002,5.404358e+000
5.707335e+002,3.587463e+000
5.716977e+002,2.860291e+000
5.726619e+002,2.903870e+000
5.736262e+002,3.187622e+000
5.745904e+002,3.428223e+000
5.755546e+002,3.873108e+000
5.765189e+002,4.792603e+000
5.774831e+002,5.544373e+000
5.784473e+002,5.386658e+000
5.794116e+002,3.997375e+000
5.803758e+002,1.807068e+000
5.813400e+002,7.841187e-001
5.823043e+002,5.798340e-001
5.832685e+002,3.082275e-001
5.842327e+002,1.911621e-001
5.851970e+002,4.294434e-001
5.861612e+002,5.402222e-001
5.871254e+002,-6.608276e-001
5.880897e+002,-1.337830e+000
5.890539e+002,-9.067383e-001
5.900181e+002,0.000000e+000
5.909824e+002,3.333740e-001
5.919466e+002,-7.162476e-001
5.929108e+002,-1.696045e+000
5.938751e+002,-8.132324e-001
5.948393e+002,1.019348e+000
5.958035e+002,2.436768e+000
5.967678e+002,2.513855e+000
5.977320e+002,1.637146e+000
5.986962e+002,1.396729e+000
5.996605e+002,1.194702e+000
6.006247e+002,1.390808e+000
6.015889e+002,2.639893e+000
6.025532e+002,4.848999e+000
6.035174e+002,5.941895e+000
6.044816e+002,4.813843e+000
6.054459e+002,3.801086e+000
6.064101e+002,3.331116e+000
6.073743e+002,3.131775e+000
6.083386e+002,2.746826e+000
6.093028e+002,2.133423e+000
6.102670e+002,1.093445e+000
6.112313e+002,-1.599976e+000
6.121955e+002,-4.492065e+000
6.131597e+002,-5.425659e+000
6.141240e+002,-2.984314e+000
6.150882e+002,1.713257e+000
6.160524e+002,4.322205e+000
6.170167e+002,5.410767e+000
6.179809e+002,6.019592e+000
6.189451e+002,6.378540e+000
6.199094e+002,6.246643e+000
6.208736e+002,5.341064e+000
6.218378e+002,2.705627e+000
6.228021e+002,1.323730e+000
6.237663e+002,3.092163e+000
6.247305e+002,5.998474e+000
6.256948e+002,6.238892e+000
6.266590e+002,6.085205e-001
6.276232e+002,-4.881775e+000
6.285875e+002,-6.612854e+000
6.295517e+002,-5.748840e+000
6.305159e+002,-3.036316e+000
6.314802e+002,8.272705e-001
6.324444e+002,4.782166e+000
6.334086e+002,6.489502e+000
6.343729e+002,6.747803e+000
6.353371e+002,5.863525e+000
6.363013e+002,3.586121e+000
6.372656e+002,3.421021e-001
6.382298e+002,-1.963928e+000
6.391940e+002,-2.117859e+000
6.401583e+002,-3.212341e+000
6.411225e+002,-5.786926e+000
6.420867e+002,-8.201050e+000
6.430510e+002,-8.417175e+000
6.440152e+002,-5.395020e+000
6.449794e+002,-3.507324e+000
6.459437e+002,-6.145508e+000
6.469079e+002,-9.776672e+000
6.478721e+002,-1.174219e+001
6.488364e+002,-1.094891e+001
6.498006e+002,-8.195190e+000
6.507648e+002,-4.020447e+000
6.517291e+002,5.584717e-001
6.526933e+002,3.095154e+000
6.536575e+002,3.034241e+000
6.546218e+002,1.449768e+000
6.555860e+002,4.988403e-001
6.565502e+002,1.170837e+000
6.575145e+002,-6.365967e-002
6.584787e+002,-5.083801e+000
6.594429e+002,-1.019629e+001
6.604072e+002,-1.245776e+001
6.613714e+002,-1.129279e+001
6.623356e+002,-9.005432e+000
6.632999e+002,-5.132080e+000
6.642641e+002,-2.307678e+000
6.652283e+002,-2.386108e+000
6.661926e+002,-4.766663e+000
6.671568e+002,-7.014893e+000
6.681210e+002,-6.210327e+000
6.690853e+002,-3.736084e+000
6.700495e+002,-2.962341e+000
6.710137e+002,-3.863098e+000
6.719780e+002,-5.298584e+000
6.729422e+002,-6.294067e+000
6.739064e+002,-7.311279e+000
6.748707e+002,-5.606384e+000
6.758349e+002,2.088379e+000
6.767991e+002,7.810425e+000
6.777634e+002,7.344238e+000
6.787276e+002,1.829834e+000
6.796918e+002,-1.960632e+000
6.806561e+002,-1.219788e+000
6.816203e+002,7.189331e-001
6.825845e+002,3.966614e+000
6.835488e+002,7.245239e+000
6.845130e+002,8.714783e+000
6.854772e+002,6.953125e+000
6.864415e+002,3.625854e+000
6.874057e+002,1.867676e+000
6.883699e+002,7.955322e-001
6.893342e+002,-8.292236e-001
6.902984e+002,-3.635376e+000
6.912626e+002,-7.190247e+000
6.922269e+002,-9.420898e+000
6.931911e+002,-8.779907e+000
6.941553e+002,-7.652283e+000
6.951196e+002,-6.318848e+000
6.960838e+002,-5.281677e+000
6.970480e+002,-5.240234e+000
6.980123e+002,-6.862366e+000
6.989765e+002,-7.467712e+000
6.999407e+002,-4.774963e+000
7.009050e+002,-1.811523e+000
7.018692e+002,-1.662354e+000
7.028334e+002,-5.047607e+000
7.037977e+002,-9.099487e+000
7.047619e+002,-8.200378e+000
7.057261e+002,-4.411316e+000
7.066904e+002,-2.704346e+000
7.076546e+002,-3.901733e+000
7.086188e+002,-6.629517e+000
7.095831e+002,-8.902405e+000
7.105473e+002,-1.138745e+001
7.115115e+002,-1.153546e+001
7.124758e+002,-7.668396e+000
7.134400e+002,-3.903259e+000
7.144042e+002,-2.335938e+000
7.153685e+002,-2.927124e+000
7.163327e+002,-4.560364e+000
7.172969e+002,-9.220215e+000
7.182612e+002,-1.237512e+001
7.192254e+002,-1.117163e+001
7.201896e+002,-7.187500e+000
7.211539e+002,-3.467346e+000
7.221181e+002,-2.375305e+000
7.230823e+002,-3.606018e+000
7.240466e+002,-6.838684e+000
7.250108e+002,-1.110364e+001
7.259750e+002,-1.355640e+001
7.269393e+002,-1.277881e+001
7.279035e+002,-9.563110e+000
7.288677e+002,-6.938721e+000
7.298320e+002,-2.943542e+000
7.307962e+002,-3.957520e-001
7.317604e+002,-6.166992e-001
7.327247e+002,-1.832092e+000
7.336889e+002,-1.945496e+000
7.346531e+002,-9.109497e-001
7.356174e+002,1.544189e-001
7.365816e+002,2.577026e+000
7.375458e+002,4.897522e+000
7.385101e+002,5.502747e+000
7.394743e+002,4.240295e+000
7.404385e+002,2.640747e+000
7.414028e+002,3.130310e+000
7.423670e+002,4.175049e+000
7.433312e+002,2.613403e+000
7.442955e+002,-1.358582e+000
7.452597e+002,-5.139343e+000
7.462239e+002,-5.976135e+000
7.471882e+002,-3.223083e+000
7.481524e+002,-1.088623e+000
7.491166e+002,-1.379700e+000
7.500809e+002,-1.382751e+000
7.510451e+002,8.470459e-001
7.520093e+002,4.425476e+000
7.529736e+002,6.080566e+000
7.539378e+002,3.673279e+000
7.549020e+002,9.741821e-001
7.558663e+002,-2.443237e-001
7.568306e+002,-1.221313e-001
7.577948e+002,1.326172e+000
7.587590e+002,3.827209e+000
7.597233e+002,6.393738e+000
7.606875e+002,6.860229e+000
7.616517e+002,5.761047e+000
7.626160e+002,3.769531e+000
7.635802e+002,5.534668e-001
7.645444e+002,-2.790955e+000
7.655087e+002,-3.913513e+000
7.664729e+002,-1.656189e+000
7.674371e+002,1.244507e-001
7.684014e+002,1.060608e+000
7.693656e+002,1.558777e+000
7.703298e+002,1.678650e+000
7.712941e+002,1.608093e+000
7.722583e+002,2.108826e+000
7.732225e+002,4.862183e+000
7.741868e+002,7.205811e+000
7.751510e+002,6.544922e+000
7.761152e+002,3.690491e+000
7.770795e+002,6.023560e-001
7.780437e+002,-1.062378e+000
7.790079e+002,-1.462280e+000
7.799722e+002,-2.611694e-001
7.809364e+002,2.865845e+000
7.819006e+002,4.703186e+000
7.828649e+002,3.356384e+000
7.838291e+002,1.992188e-001
7.847933e+002,-6.714478e-001
7.857576e+002,2.443420e+000
7.867218e+002,3.809814e+000
7.876860e+002,1.568359e+000
7.886503e+002,-1.123230e+000
7.896145e+002,-1.599976e+000
7.905787e+002,7.836304e-001
7.915430e+002,4.267273e+000
7.925072e+002,8.208374e+000
7.934714e+002,1.050220e+001
7.944357e+002,7.924194e+000
7.953999e+002,1.494019e+000
7.963641e+002,-4.414368e+000
7.973284e+002,-4.992065e+000
7.982926e+002,1.650391e-001
7.992568e+002,3.587219e+000
8.002211e+002,4.514343e+000
8.011853e+002,3.735657e+000
8.021495e+002,1.177551e+000
8.031138e+002,-1.774658e+000
8.040780e+002,-1.905029e+000
8.050422e+002,2.890991e+000
8.060065e+002,6.726624e+000
8.069707e+002,6.496521e+000
8.079349e+002,4.717834e+000
8.088992e+002,4.350952e+000
8.098634e+002,6.481628e+000
8.108276e+002,9.118103e+000
8.117919e+002,8.576172e+000
8.127561e+002,5.612671e+000
8.137203e+002,3.329712e+000
8.146846e+002,2.540405e+000
8.156488e+002,2.388977e+000
8.166130e+002,1.355957e+000
8.175773e+002,-1.207703e+000
8.185415e+002,-1.384827e+000
8.195057e+002,1.854553e+000
8.204700e+002,4.874634e+000
8.214342e+002,6.256592e+000
8.223984e+002,6.519531e+000
8.233627e+002,7.445740e+000
8.243269e+002,1.081085e+001
8.252911e+002,1.274701e+001
8.262554e+002,1.027344e+001
8.272196e+002,6.006470e+000
8.281838e+002,2.113892e+000
8.291481e+002,-3.643188e-001
8.301123e+002,-1.424500e+000
8.310765e+002,-8.344727e-001
8.320408e+002,1.314697e+000
8.330050e+002,4.001587e+000
8.339692e+002,7.534729e+000
8.349335e+002,1.083771e+001
8.358977e+002,1.287061e+001
8.368619e+002,1.376117e+001
8.378262e+002,1.442236e+001
8.387904e+002,1.340405e+001
8.397546e+002,1.314758e+001
8.407189e+002,1.566650e+001
8.416831e+002,1.910895e+001
8.426473e+002,1.986316e+001
8.436116e+002,1.579730e+001
8.445758e+002,1.133594e+001
8.455400e+002,1.137482e+001
8.465043e+002,1.268610e+001
8.474685e+002,1.208875e+001
8.484327e+002,9.156250e+000
8.493970e+002,5.779358e+000
8.503612e+002,4.587219e+000
8.513254e+002,5.804321e+000
8.522897e+002,6.482788e+000
8.532539e+002,6.306702e+000
8.542181e+002,5.522888e+000
8.551824e+002,4.279846e+000
8.561466e+002,3.173828e+000
8.571108e+002,3.623413e+000
8.580751e+002,5.711243e+000
8.590393e+002,7.548706e+000
8.600035e+002,9.101379e+000
8.609678e+002,1.057446e+001
8.619320e+002,1.206604e+001
8.628962e+002,1.357135e+001
8.638605e+002,1.515735e+001
8.648247e+002,1.757355e+001
8.657889e+002,1.984381e+001
8.667532e+002,1.949847e+001
8.677174e+002,1.622607e+001
8.686816e+002,1.262860e+001
8.696459e+002,1.191687e+001
8.706101e+002,1.483032e+001
8.715743e+002,1.692511e+001
8.725386e+002,1.731305e+001
8.735028e+002,1.818652e+001
8.744670e+002,2.024524e+001
8.754313e+002,2.249463e+001
8.763955e+002,2.309973e+001
8.773597e+002,2.100049e+001
8.783240e+002,1.979681e+001
8.792882e+002,2.375214e+001
8.802524e+002,2.824133e+001
8.812167e+002,2.872516e+001
8.821809e+002,2.478430e+001
8.831451e+002,1.950165e+001
8.841094e+002,1.688934e+001
8.850736e+002,1.729834e+001
8.860378e+002,1.865015e+001
8.870021e+002,2.081079e+001
8.879663e+002,2.319910e+001
8.889305e+002,2.560980e+001
8.898948e+002,2.778973e+001
8.908590e+002,2.898627e+001
8.918232e+002,2.845923e+001
8.927875e+002,2.888940e+001
8.937517e+002,3.196808e+001
8.947159e+002,3.533643e+001
8.956802e+002,3.641296e+001
8.966444e+002,3.466699e+001
8.976086e+002,3.226770e+001
8.985729e+002,3.201178e+001
8.995371e+002,3.284039e+001
9.005013e+002,3.227631e+001
9.014656e+002,3.068134e+001
9.024298e+002,2.906921e+001
9.033940e+002,2.783795e+001
9.043583e+002,2.680206e+001
9.053225e+002,2.719092e+001
9.062867e+002,2.997662e+001
9.072510e+002,3.242572e+001
9.082152e+002,3.669580e+001
9.091794e+002,4.008740e+001
9.101437e+002,3.846942e+001
9.111079e+002,3.106317e+001
9.120721e+002,2.547247e+001
9.130364e+002,2.749548e+001
9.140006e+002,3.091803e+001
9.149648e+002,3.308527e+001
9.159291e+002,3.428455e+001
9.168933e+002,3.565698e+001
9.178575e+002,3.777655e+001
9.188218e+002,3.969336e+001
9.197860e+002,3.804480e+001
9.207502e+002,3.243475e+001
9.217145e+002,2.981567e+001
9.226787e+002,3.399127e+001
9.236429e+002,4.038165e+001
9.246072e+002,4.206384e+001
9.255714e+002,3.767438e+001
9.265356e+002,3.406024e+001
9.274999e+002,3.327203e+001
9.284641e+002,3.203497e+001
9.294283e+002,2.916534e+001
9.303926e+002,2.537671e+001
9.313568e+002,2.190430e+001
9.323210e+002,1.933929e+001
9.332853e+002,1.724512e+001
9.342495e+002,1.384192e+001
9.352137e+002,1.059845e+001
9.361780e+002,1.172174e+001
9.371422e+002,1.829083e+001
9.381064e+002,2.567554e+001
9.390707e+002,2.677692e+001
9.400349e+002,1.957416e+001
9.409991e+002,1.681165e+001
9.419634e+002,2.183893e+001
9.429276e+002,2.612842e+001
9.438918e+002,2.751831e+001
9.448561e+002,2.694751e+001
9.458203e+002,2.579706e+001
9.467845e+002,2.425745e+001
9.477488e+002,2.383124e+001
9.487130e+002,2.719739e+001
9.496772e+002,3.083569e+001
9.506415e+002,3.149274e+001
9.516057e+002,2.937988e+001
9.525699e+002,2.700287e+001
9.535342e+002,2.676984e+001
9.544984e+002,2.817426e+001
9.554626e+002,2.815570e+001
9.564269e+002,2.680579e+001
9.573911e+002,2.680927e+001
9.583553e+002,2.958191e+001
9.593196e+002,3.353271e+001
9.602838e+002,3.620313e+001
9.612480e+002,3.727893e+001
9.622123e+002,3.728949e+001
9.631765e+002,3.608899e+001
9.641407e+002,3.452374e+001
9.651050e+002,3.288409e+001
9.660692e+002,3.087878e+001
9.670334e+002,2.755981e+001
9.679977e+002,2.249146e+001
9.689619e+002,1.817889e+001
9.699261e+002,2.079779e+001
9.708904e+002,2.771686e+001
9.718546e+002,3.282025e+001
9.728188e+002,3.455780e+001
9.737831e+002,3.423840e+001
9.747473e+002,3.349951e+001
9.757115e+002,3.231262e+001
9.766758e+002,3.172028e+001
9.776400e+002,3.236414e+001
9.786042e+002,3.355322e+001
9.795685e+002,3.537366e+001
9.805327e+002,3.694904e+001
9.814969e+002,3.771057e+001
9.824612e+002,3.775342e+001
9.834254e+002,3.689471e+001
9.843896e+002,3.280713e+001
9.853539e+002,2.823792e+001
9.863181e+002,2.643842e+001
9.872823e+002,2.713434e+001
9.882466e+002,2.875354e+001
9.892108e+002,3.041309e+001
9.901750e+002,3.277667e+001
9.911393e+002,3.609613e+001
9.921035e+002,4.023712e+001
9.930677e+002,4.293884e+001
9.940320e+002,4.330188e+001
9.949962e+002,4.371283e+001
9.959604e+002,4.670056e+001
9.969247e+002,5.240057e+001
9.978889e+002,5.793213e+001
9.988531e+002,6.215509e+001
9.998174e+002,6.399738e+001
1.000782e+003,6.143903e+001
1.001746e+003,5.758533e+001
1.002710e+003,5.706726e+001
1.003674e+003,6.154144e+001
1.004639e+003,6.794977e+001
1.005603e+003,7.082770e+001
1.006567e+003,6.960773e+001
1.007531e+003,7.051617e+001
1.008495e+003,7.542236e+001
1.009460e+003,7.889264e+001
1.010424e+003,7.654236e+001
1.011388e+003,7.011243e+001
1.012352e+003,6.645660e+001
1.013317e+003,6.766406e+001
1.014281e+003,6.850494e+001
1.015245e+003,6.717041e+001
1.016209e+003,6.468201e+001
1.017174e+003,6.170782e+001
1.018138e+003,5.852893e+001
1.019102e+003,5.541956e+001
1.020066e+003,5.285907e+001
1.021031e+003,5.034149e+001
1.021995e+003,4.456903e+001
1.022959e+003,3.591400e+001
1.023923e+003,2.885028e+001
1.024887e+003,2.484045e+001
1.025852e+003,2.285016e+001
1.026816e+003,2.199139e+001
1.027780e+003,2.330927e+001
1.028744e+003,2.248615e+001
1.029709e+003,1.613049e+001
1.030673e+003,1.100696e+001
1.031637e+003,9.207153e+000
1.032601e+003,9.535339e+000
1.033566e+003,1.087256e+001
1.034530e+003,1.285590e+001
1.035494e+003,1.414117e+001
1.036458e+003,1.181500e+001
1.037422e+003,8.371521e+000
1.038387e+003,8.599915e+000
1.039351e+003,1.220691e+001
1.040315e+003,1.585834e+001
1.041279e+003,1.715991e+001
1.042244e+003,1.692224e+001
1.043208e+003,1.837347e+001
1.044172e+003,2.364941e+001
1.045136e+003,2.579987e+001
1.046101e+003,2.314764e+001
1.047065e+003,1.956702e+001
1.048029e+003,1.691052e+001
1.048993e+003,1.528766e+001
1.049958e+003,1.450153e+001
1.050922e+003,1.482690e+001
1.051886e+003,1.585999e+001
1.052850e+003,1.756580e+001
1.053814e+003,1.930029e+001
1.054779e+003,2.016510e+001
1.055743e+003,1.991632e+001
1.056707e+003,1.888818e+001
1.057671e+003,1.746814e+001
1.058636e+003,1.555859e+001
1.059600e+003,1.397845e+001
1.060564e+003,1.379688e+001
1.061528e+003,1.352875e+001
1.062493e+003,1.164624e+001
1.063457e+003,9.587402e+000
1.064421e+003,9.549255e+000
1.065385e+003,1.191290e+001
1.066349e+003,1.443634e+001
1.067314e+003,1.710571e+001
1.068278e+003,1.815753e+001
1.069242e+003,1.519189e+001
1.070206e+003,1.057440e+001
1.071171e+003,7.577087e+000
1.072135e+003,7.472412e+000
1.073099e+003,9.358582e+000
1.074063e+003,1.221570e+001
1.075028e+003,1.640979e+001
1.075992e+003,1.895068e+001
1.076956e+003,1.940198e+001
1.077920e+003,1.861743e+001
1.078885e+003,1.663611e+001
1.079849e+003,1.435071e+001
1.080813e+003,1.326990e+001
1.081777e+003,1.391974e+001
1.082741e+003,1.439630e+001
1.083706e+003,1.247552e+001
1.084670e+003,1.027875e+001
1.085634e+003,8.976868e+000
1.086598e+003,8.344727e+000
1.087563e+003,7.774231e+000
1.088527e+003,7.153748e+000
1.089491e+003,7.156067e+000
1.090455e+003,8.557922e+000
1.091420e+003,1.118427e+001
1.092384e+003,1.316260e+001
1.093348e+003,1.470789e+001
1.094312e+003,1.462915e+001
1.095276e+003,1.153937e+001
1.096241e+003,6.863403e+000
1.097205e+003,4.008057e+000
1.098169e+003,2.904663e+000
1.099133e+003,3.970520e+000
1.100098e+003,9.554260e+000
1.101062e+003,1.553564e+001
1.102026e+003,1.987659e+001
1.102990e+003,2.241345e+001
1.103955e+003,2.337408e+001
1.104919e+003,2.285468e+001
1.105883e+003,2.131854e+001
1.106847e+003,1.982007e+001
1.107812e+003,1.834369e+001
1.108776e+003,1.801587e+001
1.109740e+003,1.977484e+001
1.110704e+003,2.085291e+001
1.111668e+003,1.837347e+001
1.112633e+003,1.389868e+001
1.113597e+003,1.353131e+001
1.114561e+003,1.971979e+001
1.115525e+003,2.466962e+001
1.116490e+003,2.543475e+001
1.117454e+003,2.477142e+001
1.118418e+003,2.342279e+001
1.119382e+003,2.281146e+001
1.120347e+003,2.524225e+001
1.121311e+003,3.174829e+001
1.122275e+003,3.920789e+001
1.123239e+003,4.252289e+001
1.124203e+003,4.240125e+001
1.125168e+003,4.148462e+001
1.126132e+003,3.952600e+001
1.127096e+003,3.825824e+001
1.128060e+003,3.842657e+001
1.129025e+003,3.995392e+001
1.129989e+003,4.371832e+001
1.130953e+003,5.142828e+001
1.131917e+003,5.705341e+001
1.132882e+003,5.806250e+001
1.133846e+003,5.815118e+001
1.134810e+003,5.915259e+001
1.135774e+003,6.126971e+001
1.136739e+003,6.392676e+001
1.137703e+003,6.676886e+001
1.138667e+003,7.029370e+001
1.139631e+003,7.595447e+001
1.140595e+003,8.328564e+001
1.141560e+003,8.870483e+001
1.142524e+003,9.139575e+001
1.143488e+003,9.590857e+001
1.144452e+003,1.047371e+002
1.145417e+003,1.176440e+002
1.146381e+003,1.345911e+002
1.147345e+003,1.577770e+002
1.148309e+003,1.784711e+002
1.149274e+003,1.933821e+002
1.150238e+003,2.071805e+002
1.151202e+003,2.224609e+002
1.152166e+003,2.388201e+002
1.153130e+003,2.553185e+002
1.154095e+003,2.708718e+002
1.155059e+003,2.831662e+002
1.156023e+003,2.897388e+002
1.156987e+003,2.905863e+002
1.157952e+003,2.873363e+002
1.158916e+003,2.807626e+002
1.159880e+003,2.711608e+002
1.160844e+003,2.562441e+002
1.161809e+003,2.375322e+002
1.162773e+003,2.199590e+002
1.163737e+003,2.040415e+002
1.164701e+003,1.873065e+002
1.165666e+003,1.662791e+002
1.166630e+003,1.480206e+002
1.167594e+003,1.353129e+002
1.168558e+003,1.268320e+002
1.169522e+003,1.210964e+002
1.170487e+003,1.173396e+002
1.171451e+003,1.153170e+002
1.172415e+003,1.149146e+002
1.173379e+003,1.155025e+002
1.174344e+003,1.144271e+002
1.175308e+003,1.118526e+002
1.176272e+003,1.090496e+002
1.177236e+003,1.064282e+002
1.178201e+003,1.040839e+002
1.179165e+003,1.019631e+002
1.180129e+003,9.973462e+001
1.181093e+003,9.676318e+001
1.182057e+003,9.301440e+001
1.183022e+003,8.880042e+001
1.183986e+003,8.275403e+001
1.184950e+003,7.744171e+001
1.185914e+003,7.600446e+001
1.186879e+003,7.822015e+001
1.187843e+003,8.103015e+001
1.188807e+003,8.179102e+001
1.189771e+003,8.132062e+001
1.190736e+003,8.293237e+001
1.191700e+003,8.693298e+001
1.192664e+003,8.917194e+001
1.193628e+003,8.985767e+001
1.194593e+003,8.858978e+001
1.195557e+003,8.376062e+001
1.196521e+003,7.650580e+001
1.197485e+003,7.108600e+001
1.198449e+003,6.840387e+001
1.199414e+003,6.702252e+001
1.200378e+003,6.716742e+001
1.201342e+003,6.765210e+001
1.202306e+003,6.790155e+001
1.203271e+003,6.757635e+001
1.204235e+003,6.643738e+001
1.205199e+003,6.447290e+001
1.206163e+003,6.197638e+001
1.207128e+003,5.936530e+001
1.208092e+003,5.672345e+001
1.209056e+003,5.229303e+001
1.210020e+003,4.504315e+001
1.210984e+003,3.847327e+001
1.211949e+003,3.367639e+001
1.212913e+003,2.980939e+001
1.213877e+003,2.613745e+001
1.214841e+003,2.270160e+001
1.215806e+003,1.921802e+001
1.216770e+003,1.509094e+001
1.217734e+003,1.147797e+001
1.218698e+003,8.559204e+000
1.219663e+003,6.433411e+000
1.220627e+003,5.872498e+000
1.221591e+003,6.582397e+000
1.222555e+003,6.728699e+000
1.223520e+003,4.629761e+000
1.224484e+003,1.235840e+000
1.225448e+003,2.810669e-001
1.226412e+003,3.961243e+000
1.227376e+003,4.796265e+000
1.228341e+003,-6.126099e-001
1.229305e+003,-5.269287e+000
1.230269e+003,-4.595459e+000
1.231233e+003,-7.479858e-001
1.232198e+003,2.030579e+000
1.233162e+003,2.874695e+000
1.234126e+003,2.730164e+000
1.235090e+003,5.869751e-001
1.236055e+003,-1.200989e+000
1.237019e+003,1.051880e+000
1.237983e+003,5.579041e+000
1.238947e+003,7.903442e+000
1.239911e+003,6.390259e+000
1.240876e+003,3.253540e+000
1.241840e+003,1.486084e+000
1.242804e+003,1.193237e+000
1.243768e+003,7.947998e-001
1.244733e+003,1.272583e-001
1.245697e+003,-3.890381e-001
1.246661e+003,-1.931580e+000
1.247625e+003,-3.062866e+000
1.248590e+003,-2.393250e+000
1.249554e+003,1.977539e-001
1.250518e+003,4.469360e+000
1.251482e+003,1.031384e+001
1.252447e+003,1.513062e+001
1.253411e+003,1.533667e+001
1.254375e+003,1.312549e+001
1.255339e+003,1.288647e+001
1.256303e+003,1.494214e+001
1.257268e+003,1.729370e+001
1.258232e+003,1.863226e+001
1.259196e+003,1.877588e+001
1.260160e+003,1.747424e+001
1.261125e+003,1.449200e+001
1.262089e+003,1.412689e+001
1.263053e+003,1.786029e+001
1.264017e+003,2.226819e+001
1.264982e+003,2.874561e+001
1.265946e+003,3.427289e+001
1.266910e+003,3.544202e+001
1.267874e+003,3.278900e+001
1.268839e+003,2.982202e+001
1.269803e+003,2.890155e+001
1.270767e+003,2.850793e+001
1.271731e+003,2.545032e+001
1.272695e+003,2.004669e+001
1.273660e+003,1.620746e+001
1.274624e+003,1.354071e+001
1.275588e+003,1.185339e+001
1.276552e+003,1.203491e+001
1.277517e+003,1.348126e+001
1.278481e+003,1.473303e+001
1.279445e+003,1.560516e+001
1.280409e+003,1.575061e+001
1.281374e+003,1.479382e+001
1.282338e+003,1.350787e+001
1.283302e+003,1.192151e+001
1.284266e+003,1.037262e+001
1.285230e+003,9.336487e+000
1.286195e+003,8.724792e+000
1.287159e+003,7.955933e+000
1.288123e+003,6.728943e+000
1.289087e+003,5.760742e+000
1.290052e+003,6.547974e+000
1.291016e+003,1.000458e+001
1.291980e+003,1.041064e+001
1.292944e+003,4.115051e+000
1.293909e+003,-1.019836e+000
1.294873e+003,-8.726196e-001
1.295837e+003,2.219788e+000
1.296801e+003,5.594360e+000
1.297766e+003,8.595581e+000
1.298730e+003,9.411987e+000
1.299694e+003,5.641235e+000
1.300658e+003,1.337585e+000
1.301622e+003,2.249939e+000
1.302587e+003,5.562927e+000
1.303551e+003,6.158752e+000
1.304515e+003,3.547058e+000
1.305479e+003,1.745850e+000
1.306444e+003,4.093323e+000
1.307408e+003,8.821655e+000
1.308372e+003,1.039105e+001
1.309336e+003,7.601074e+000
1.310301e+003,5.200195e+000
1.311265e+003,4.367310e+000
1.312229e+003,3.277588e+000
1.313193e+003,4.960327e-001
1.314157e+003,-2.380127e+000
1.315122e+003,-3.686035e+000
1.316086e+003,-3.380127e+000
1.317050e+003,-2.225952e+000
1.318014e+003,-4.420166e-001
1.318979e+003,1.374878e+000
1.319943e+003,1.434143e+000
1.320907e+003,3.119507e-001
1.321871e+003,1.679993e+000
1.322836e+003,6.179749e+000
1.323800e+003,9.308655e+000
1.324764e+003,7.237000e+000
1.325728e+003,3.224365e+000
1.326693e+003,3.097778e+000
1.327657e+003,6.851563e+000
1.328621e+003,9.492920e+000
1.329585e+003,1.060852e+001
1.330549e+003,1.135754e+001
1.331514e+003,1.111011e+001
1.332478e+003,9.996521e+000
1.333442e+003,8.152039e+000
1.334406e+003,6.146423e+000
1.335371e+003,4.903564e+000
1.336335e+003,4.948914e+000
1.337299e+003,5.825500e+000
1.338263e+003,6.565552e+000
1.339228e+003,7.219055e+000
1.340192e+003,7.426941e+000
1.341156e+003,6.656311e+000
1.342120e+003,6.211914e+000
1.343084e+003,6.315857e+000
1.344049e+003,6.000854e+000
1.345013e+003,4.213989e+000
1.345977e+003,1.933716e+000
1.346941e+003,1.940247e+000
1.347906e+003,5.360596e+000
1.348870e+003,8.378723e+000
1.349834e+003,6.528015e+000
1.350798e+003,2.331787e+000
1.351763e+003,1.453674e+000
1.352727e+003,3.448853e+000
1.353691e+003,4.804504e+000
1.354655e+003,4.216675e+000
1.355620e+003,2.926514e+000
1.356584e+003,2.773071e+000
1.357548e+003,3.617065e+000
1.358512e+003,2.487976e+000
1.359476e+003,-2.773132e+000
1.360441e+003,-6.110535e+000
1.361405e+003,-4.136292e+000
1.362369e+003,-1.490356e+000
1.363333e+003,-1.481934e-001
1.364298e+003,3.514404e-001
1.365262e+003,7.539673e-001
1.366226e+003,1.403442e+000
1.367190e+003,2.780151e+000
1.368155e+003,5.385254e+000
1.369119e+003,8.007385e+000
1.370083e+003,6.589417e+000
1.371047e+003,-5.037231e-001
1.372011e+003,-3.432617e+000
1.372976e+003,3.594971e-001
1.373940e+003,3.760437e+000
1.374904e+003,3.618103e+000
1.375868e+003,2.404175e+000
1.376833e+003,3.593262e+000
1.377797e+003,6.915161e+000
1.378761e+003,8.701294e+000
1.379725e+003,7.260498e+000
1.380690e+003,4.735840e+000
1.381654e+003,2.346680e+000
1.382618e+003,9.537964e-001
1.383582e+003,2.455994e+000
1.384547e+003,6.464722e+000
1.385511e+003,9.887085e+000
1.386475e+003,1.105487e+001
1.387439e+003,1.056708e+001
1.388403e+003,9.058228e+000
1.389368e+003,6.488281e+000
1.390332e+003,4.637085e+000
1.391296e+003,4.156433e+000
1.392260e+003,3.792419e+000
1.393225e+003,2.888000e+000
1.394189e+003,2.178467e+000
1.395153e+003,1.980347e+000
1.396117e+003,2.333008e+000
1.397082e+003,3.404724e+000
1.398046e+003,5.216553e+000
1.399010e+003,7.538879e+000
1.399974e+003,9.931946e+000
1.400938e+003,1.154150e+001
1.401903e+003,1.097858e+001
1.402867e+003,8.690186e+000
1.403831e+003,7.636536e+000
1.404795e+003,6.977173e+000
1.405760e+003,7.455078e+000
1.406724e+003,1.030811e+001
1.407688e+003,1.226648e+001
1.408652e+003,9.121033e+000
1.409617e+003,2.275818e+000
1.410581e+003,-1.935059e+000
1.411545e+003,-8.673706e-001
1.412509e+003,2.463135e+000
1.413474e+003,5.969727e+000
1.414438e+003,8.630676e+000
1.415402e+003,9.257690e+000
1.416366e+003,8.552185e+000
1.417330e+003,8.548645e+000
1.418295e+003,1.012317e+001
1.419259e+003,1.235754e+001
1.420223e+003,1.408807e+001
1.421187e+003,1.508771e+001
1.422152e+003,1.575165e+001
1.423116e+003,1.670062e+001
1.424080e+003,1.699030e+001
1.425044e+003,1.427289e+001
1.426009e+003,1.220905e+001
1.426973e+003,1.331293e+001
1.427937e+003,1.527966e+001
1.428901e+003,1.504437e+001
1.429865e+003,1.294165e+001
1.430830e+003,1.194562e+001
1.431794e+003,1.378986e+001
1.432758e+003,1.675787e+001
1.433722e+003,1.798071e+001
1.434687e+003,1.793085e+001
1.435651e+003,1.888623e+001
1.436615e+003,1.934967e+001
1.437579e+003,1.997815e+001
1.438544e+003,2.228076e+001
1.439508e+003,2.369775e+001
1.440472e+003,2.171088e+001
1.441436e+003,1.844708e+001
1.442401e+003,1.841913e+001
1.443365e+003,2.211548e+001
1.444329e+003,2.386066e+001
1.445293e+003,1.877594e+001
1.446257e+003,1.190283e+001
1.447222e+003,1.380780e+001
1.448186e+003,2.253284e+001
1.449150e+003,2.764575e+001
1.450114e+003,2.764020e+001
1.451079e+003,2.599817e+001
1.452043e+003,2.445471e+001
1.453007e+003,2.288428e+001
1.453971e+003,2.001105e+001
1.454936e+003,1.611737e+001
1.455900e+003,1.512610e+001
1.456864e+003,1.899182e+001
1.457828e+003,2.266998e+001
1.458792e+003,2.280701e+001
1.459757e+003,2.132477e+001
1.460721e+003,1.890186e+001
1.461685e+003,1.632904e+001
1.462649e+003,1.547656e+001
1.463614e+003,1.681219e+001
1.464578e+003,1.822607e+001
1.465542e+003,1.765710e+001
1.466506e+003,1.555646e+001
1.467471e+003,1.361664e+001
1.468435e+003,1.218665e+001
1.469399e+003,1.180481e+001
1.470363e+003,1.225220e+001
1.471328e+003,1.305084e+001
1.472292e+003,1.309192e+001
1.473256e+003,1.347418e+001
1.474220e+003,1.633276e+001
1.475184e+003,2.075446e+001
1.476149e+003,2.443927e+001
1.477113e+003,2.629578e+001
1.478077e+003,2.697296e+001
1.479041e+003,2.745306e+001
1.480006e+003,2.779773e+001
1.480970e+003,2.713727e+001
1.481934e+003,2.442072e+001
1.482898e+003,2.313977e+001
1.483863e+003,2.410944e+001
1.484827e+003,2.498792e+001
1.485791e+003,2.514941e+001
1.486755e+003,2.574939e+001
1.487719e+003,2.828857e+001
1.488684e+003,3.160699e+001
1.489648e+003,3.224292e+001
1.490612e+003,2.948944e+001
1.491576e+003,2.885126e+001
1.492541e+003,3.547455e+001
1.493505e+003,4.536670e+001
1.494469e+003,4.915234e+001
1.495433e+003,4.757739e+001
1.496398e+003,4.838104e+001
1.497362e+003,5.371454e+001
1.498326e+003,5.989026e+001
1.499290e+003,6.512909e+001
1.500255e+003,6.987756e+001
1.501219e+003,7.416516e+001
1.502183e+003,7.813287e+001
1.503147e+003,8.303485e+001
1.504111e+003,8.900116e+001
1.505076e+003,9.664166e+001
1.506040e+003,1.064468e+002
1.507004e+003,1.182767e+002
1.507968e+003,1.323453e+002
1.508933e+003,1.479592e+002
1.509897e+003,1.635385e+002
1.510861e+003,1.795087e+002
1.511825e+003,1.980209e+002
1.512790e+003,2.201851e+002
1.513754e+003,2.448842e+002
1.514718e+003,2.715320e+002
1.515682e+003,2.997000e+002
1.516646e+003,3.252511e+002
1.517611e+003,3.487678e+002
1.518575e+003,3.688727e+002
1.519539e+003,3.851609e+002
1.520503e+003,3.987739e+002
1.521468e+003,4.104386e+002
1.522432e+003,4.191755e+002
1.523396e+003,4.244095e+002
1.524360e+003,4.253882e+002
1.525325e+003,4.202819e+002
1.526289e+003,4.080120e+002
1.527253e+003,3.913901e+002
1.528217e+003,3.753373e+002
1.529182e+003,3.602595e+002
1.530146e+003,3.412809e+002
1.531110e+003,3.172803e+002
1.532074e+003,2.904509e+002
1.533039e+003,2.569304e+002
1.534003e+003,2.237753e+002
1.534967e+003,1.946940e+002
1.535931e+003,1.689597e+002
1.536896e+003,1.451739e+002
1.537860e+003,1.233909e+002
1.538824e+003,1.040064e+002
1.539788e+003,8.711108e+001
1.540752e+003,7.369397e+001
1.541717e+003,6.559137e+001
1.542681e+003,6.228955e+001
1.543645e+003,5.893182e+001
1.544609e+003,5.647229e+001
1.545573e+003,5.266199e+001
1.546538e+003,4.423267e+001
1.547502e+003,3.741077e+001
1.548466e+003,3.636420e+001
1.549430e+003,3.763214e+001
1.550395e+003,3.703796e+001
1.551359e+003,3.490833e+001
1.552323e+003,3.462384e+001
1.553287e+003,3.722125e+001
1.554252e+003,3.884747e+001
1.555216e+003,3.582660e+001
1.556180e+003,3.012006e+001
1.557144e+003,2.609479e+001
1.558109e+003,2.403278e+001
1.559073e+003,2.330548e+001
1.560037e+003,2.384937e+001
1.561001e+003,2.427698e+001
1.561966e+003,2.500012e+001
1.562930e+003,2.592584e+001
1.563894e+003,2.663367e+001
1.564858e+003,2.695575e+001
1.565823e+003,2.682178e+001
1.566787e+003,2.617731e+001
1.567751e+003,2.519653e+001
1.568715e+003,2.404346e+001
1.569679e+003,2.303125e+001
1.570644e+003,2.242731e+001
1.571608e+003,2.176300e+001
1.572572e+003,2.045734e+001
1.573536e+003,1.878070e+001
1.574500e+003,1.778473e+001
1.575465e+003,1.783563e+001
1.576429e+003,1.824805e+001
1.577393e+003,1.822119e+001
1.578357e+003,1.797565e+001
1.579322e+003,1.817432e+001
1.580286e+003,1.903931e+001
1.581250e+003,2.106653e+001
1.582214e+003,2.489600e+001
1.583179e+003,2.803870e+001
1.584143e+003,2.843359e+001
1.585107e+003,2.678320e+001
1.586071e+003,2.379504e+001
1.587036e+003,2.073016e+001
1.588000e+003,2.031158e+001
1.588964e+003,2.293518e+001
1.589928e+003,2.542694e+001
1.590893e+003,2.579663e+001
1.591857e+003,2.493530e+001
1.592821e+003,2.358673e+001
1.593785e+003,2.215387e+001
1.594750e+003,2.266846e+001
1.595714e+003,2.541742e+001
1.596678e+003,2.854718e+001
1.597642e+003,3.240765e+001
1.598606e+003,3.490240e+001
1.599571e+003,3.277655e+001
1.600535e+003,2.963159e+001
1.601499e+003,3.091931e+001
1.602463e+003,3.583014e+001
1.603427e+003,3.881458e+001
1.604392e+003,3.761591e+001
1.605356e+003,3.437170e+001
1.606320e+003,3.020807e+001
1.607284e+003,2.605499e+001
1.608249e+003,2.520953e+001
1.609213e+003,2.785071e+001
1.610177e+003,2.796857e+001
1.611141e+003,2.322736e+001
1.612106e+003,1.932904e+001
1.613070e+003,1.998425e+001
1.614034e+003,2.154053e+001
1.614998e+003,2.107404e+001
1.615963e+003,1.985406e+001
1.616927e+003,2.046722e+001
1.617891e+003,2.291705e+001
1.618855e+003,2.446320e+001
1.619820e+003,2.317224e+001
1.620784e+003,2.039374e+001
1.621748e+003,1.850403e+001
1.622712e+003,1.809570e+001
1.623677e+003,1.934827e+001
1.624641e+003,2.281152e+001
1.625605e+003,2.493542e+001
1.626569e+003,2.299866e+001
1.627533e+003,2.054828e+001
1.628498e+003,1.995593e+001
1.629462e+003,2.009338e+001
1.630426e+003,1.999487e+001
1.631390e+003,1.961859e+001
1.632354e+003,1.926440e+001
1.633319e+003,1.892657e+001
1.634283e+003,1.811237e+001
1.635247e+003,1.622900e+001
1.636211e+003,1.407788e+001
1.637176e+003,1.366113e+001
1.638140e+003,1.500317e+001
1.639104e+003,1.493903e+001
1.640068e+003,1.227875e+001
1.641033e+003,1.174365e+001
1.641997e+003,1.695227e+001
1.642961e+003,2.147180e+001
1.643925e+003,2.152521e+001
1.644890e+003,1.984601e+001
1.645854e+003,1.803955e+001
1.646818e+003,1.689624e+001
1.647782e+003,1.828284e+001
1.648747e+003,2.246832e+001
1.649711e+003,2.601910e+001
1.650675e+003,2.633136e+001
1.651639e+003,2.466681e+001
1.652604e+003,2.235400e+001
1.653568e+003,1.924170e+001
1.654532e+003,1.879523e+001
1.655496e+003,2.235455e+001
1.656460e+003,2.441455e+001
1.657425e+003,2.259222e+001
1.658389e+003,2.039282e+001
1.659353e+003,2.032874e+001
1.660317e+003,2.037457e+001
1.661281e+003,1.744366e+001
1.662246e+003,1.256885e+001
1.663210e+003,9.615356e+000
1.664174e+003,9.981323e+000
1.665138e+003,1.181335e+001
1.666103e+003,1.389362e+001
1.667067e+003,1.525403e+001
1.668031e+003,1.334668e+001
1.668995e+003,8.673523e+000
1.669960e+003,7.488525e+000
1.670924e+003,1.140106e+001
1.671888e+003,1.435199e+001
1.672852e+003,1.369537e+001
1.673817e+003,1.227063e+001
1.674781e+003,1.136267e+001
1.675745e+003,1.097778e+001
1.676709e+003,1.118292e+001
1.677674e+003,1.188446e+001
1.678638e+003,1.326959e+001
1.679602e+003,1.536786e+001
1.680566e+003,1.609985e+001
1.681531e+003,1.358447e+001
1.682495e+003,9.718872e+000
1.683459e+003,7.141907e+000
1.684423e+003,5.455017e+000
1.685387e+003,3.576538e+000
1.686352e+003,1.376953e+000
1.687316e+003,7.822876e-001
1.688280e+003,3.445923e+000
1.689244e+003,5.845337e+000
1.690208e+003,3.900146e+000
1.691173e+003,1.083252e+000
1.692137e+003,1.999756e+000
1.693101e+003,5.852600e+000
1.694065e+003,8.532410e+000
1.695030e+003,8.621155e+000
1.695994e+003,8.002502e+000
1.696958e+003,8.019653e+000
1.697922e+003,8.183716e+000
1.698887e+003,7.790222e+000
1.699851e+003,7.168213e+000
1.700815e+003,7.046753e+000
1.701779e+003,7.257690e+000
1.702744e+003,6.717651e+000
1.703708e+003,5.200745e+000
1.704672e+003,4.548706e+000
1.705636e+003,5.962708e+000
1.706601e+003,7.837280e+000
1.707565e+003,8.787476e+000
1.708529e+003,9.143677e+000
1.709493e+003,8.787537e+000
1.710458e+003,7.601074e+000
1.711422e+003,5.987183e+000
1.712386e+003,3.552917e+000
1.713350e+003,2.129089e+000
1.714314e+003,3.734314e+000
1.715279e+003,6.162476e+000
1.716243e+003,5.941040e+000
1.717207e+003,3.356689e+000
1.718171e+003,8.049316e-001
1.719135e+003,-9.498901e-001
1.720100e+003,-2.096313e+000
1.721064e+003,-2.866028e+000
1.722028e+003,-3.449036e+000
1.722992e+003,-3.875000e+000
1.723957e+003,-3.539978e+000
1.724921e+003,-1.214722e+000
1.725885e+003,3.143250e+000
1.726849e+003,4.360291e+000
1.727814e+003,-5.781250e-001
1.728778e+003,-4.123718e+000
1.729742e+003,-1.470581e+000
1.730706e+003,2.273499e+000
1.731671e+003,8.049316e-001
1.732635e+003,-3.895203e+000
1.733599e+003,-5.711304e+000
1.734563e+003,-3.516174e+000
1.735528e+003,-9.424438e-001
1.736492e+003,-1.156006e-001
1.737456e+003,-4.772339e-001
1.738420e+003,-1.497986e+000
1.739385e+003,-3.150269e+000
1.740349e+003,-3.919861e+000
1.741313e+003,-3.068115e+000
1.742277e+003,-3.392578e+000
1.743241e+003,-6.215759e+000
1.744206e+003,-7.344910e+000
1.745170e+003,-5.694580e+000
1.746134e+003,-3.355896e+000
1.747098e+003,-8.026123e-001
1.748063e+003,1.237000e+000
1.749027e+003,2.028076e+000
1.749991e+003,1.783875e+000
1.750955e+003,8.444214e-001
1.751919e+003,-5.436401e-001
1.752884e+003,-1.642822e+000
1.753848e+003,-1.841125e+000
1.754812e+003,-1.451233e+000
1.755776e+003,-6.514282e-001
1.756741e+003,9.061890e-001
1.757705e+003,1.580383e+000
1.758669e+003,7.958374e-001
1.759633e+003,-2.719116e-001
1.760598e+003,-1.677917e+000
1.761562e+003,-3.832214e+000
1.762526e+003,-7.445557e+000
1.763490e+003,-1.038025e+001
1.764455e+003,-1.080945e+001
1.765419e+003,-9.617432e+000
1.766383e+003,-8.571411e+000
1.767347e+003,-8.031921e+000
1.768312e+003,-6.907959e+000
1.769276e+003,-4.776367e+000
1.770240e+003,-3.361084e+000
1.771204e+003,-4.120789e+000
1.772168e+003,-5.833496e+000
1.773133e+003,-6.850830e+000
1.774097e+003,-7.193787e+000
1.775061e+003,-6.719482e+000
1.776025e+003,-5.727478e+000
1.776990e+003,-5.018677e+000
1.777954e+003,-4.347900e+000
1.778918e+003,-3.627075e+000
1.779882e+003,-3.418518e+000
1.780846e+003,-3.459534e+000
1.781811e+003,-2.729126e+000
1.782775e+003,-1.420898e+000
1.783739e+003,-5.352173e-001
1.784703e+003,-6.597900e-002
1.785668e+003,1.290283e-001
1.786632e+003,-3.126831e-001
1.787596e+003,-1.564575e+000
1.788560e+003,-4.538696e+000
1.789525e+003,-6.654480e+000
1.790489e+003,-3.521790e+000
1.791453e+003,2.752869e+000
1.792417e+003,6.082642e+000
1.793382e+003,5.208801e+000
1.794346e+003,1.718628e+000
1.795310e+003,-3.881409e+000
1.796274e+003,-8.634033e+000
1.797239e+003,-8.679688e+000
1.798203e+003,-4.918213e+000
1.799167e+003,-1.802185e+000
1.800131e+003,-2.220459e-001
1.801095e+003,2.789917e-001
1.802060e+003,5.487671e-001
1.803024e+003,2.747803e-001
1.803988e+003,-1.335754e+000
1.804952e+003,-3.207520e+000
1.805917e+003,-5.910828e+000
1.806881e+003,-7.749207e+000
1.807845e+003,-5.676758e+000
1.808809e+003,-1.640320e+000
1.809773e+003,-2.125244e-001
1.810738e+003,-2.043335e+000
1.811702e+003,-3.825012e+000
1.812666e+003,-3.524353e+000
1.813630e+003,-2.204285e+000
1.814595e+003,-1.134338e+000
1.815559e+003,-5.605469e-001
1.816523e+003,-1.166992e+000
1.817487e+003,-2.995667e+000
1.818452e+003,-4.355896e+000
1.819416e+003,-5.042786e+000
1.820380e+003,-4.258972e+000
1.821344e+003,-8.768311e-001
1.822309e+003,1.806274e+000
1.823273e+003,2.074280e+000
1.824237e+003,1.241821e+000
1.825201e+003,-2.622681e-001
1.826166e+003,-2.046082e+000
1.827130e+003,-3.039246e+000
1.828094e+003,-3.218811e+000
1.829058e+003,-2.956299e+000
1.830022e+003,-1.719727e+000
1.830987e+003,-8.260498e-001
1.831951e+003,-1.965088e+000
1.832915e+003,-3.659729e+000
1.833879e+003,-3.500183e+000
1.834844e+003,-2.107971e+000
1.835808e+003,-1.794434e+000
1.836772e+003,-2.725037e+000
1.837736e+003,-3.211487e+000
1.838700e+003,-2.740784e+000
1.839665e+003,-1.517334e+000
1.840629e+003,9.457397e-001
1.841593e+003,2.839844e+000
1.842557e+003,-8.089600e-001
1.843522e+003,-9.874878e+000
1.844486e+003,-1.287744e+001
1.845450e+003,-3.962830e+000
1.846414e+003,8.836670e-001
1.847379e+003,-2.185852e+000
1.848343e+003,-5.526917e+000
1.849307e+003,-7.009460e+000
1.850271e+003,-7.401733e+000
1.851236e+003,-6.970215e+000
1.852200e+003,-5.662720e+000
1.853164e+003,-3.440308e+000
1.854128e+003,-1.054077e+000
1.855093e+003,9.044800e-001
1.856057e+003,2.417847e+000
1.857021e+003,2.293640e+000
1.857985e+003,-1.068237e+000
1.858949e+003,-5.211182e+000
1.859914e+003,-5.165649e+000
1.860878e+003,-1.733643e+000
1.861842e+003,-4.368896e-001
1.862806e+003,-1.528687e+000
1.863771e+003,-1.550293e+000
1.864735e+003,3.637085e-001
1.865699e+003,8.463135e-001
1.866663e+003,-2.246338e+000
1.867627e+003,-5.043457e+000
1.868592e+003,-3.699463e+000
1.869556e+003,-9.398804e-001
1.870520e+003,-1.908325e+000
1.871484e+003,-5.820007e+000
1.872449e+003,-6.547119e+000
1.873413e+003,-9.354248e-001
1.874377e+003,3.113708e+000
1.875341e+003,5.053711e-002
1.876306e+003,-3.082031e+000
1.877270e+003,-1.677185e+000
1.878234e+003,3.682861e-001
1.879198e+003,-1.398376e+000
1.880163e+003,-4.959290e+000
1.881127e+003,-6.073853e+000
1.882091e+003,-4.439880e+000
1.883055e+003,-2.131592e+000
1.884020e+003,-2.820435e-001
1.884984e+003,1.803589e-001
1.885948e+003,-1.643494e+000
1.886912e+003,-4.108521e+000
1.887876e+003,-3.564331e+000
1.888841e+003,-3.511353e-001
1.889805e+003,3.050537e-001
1.890769e+003,-2.396729e+000
1.891733e+003,-3.221985e+000
1.892698e+003,-1.326782e+000
1.893662e+003,7.343750e-001
1.894626e+003,2.684021e+000
1.895590e+003,4.116028e+000
1.896554e+003,5.886963e+000
1.897519e+003,6.685852e+000
1.898483e+003,2.825989e+000
1.899447e+003,-4.099854e+000
1.900411e+003,-6.762695e+000
1.901376e+003,-3.535889e+000
1.902340e+003,-1.099121e+000
1.903304e+003,-2.780762e+000
1.904268e+003,-4.733337e+000
1.905233e+003,-4.883362e+000
1.906197e+003,-3.582703e+000
1.907161e+003,7.317505e-001
1.908125e+003,5.432739e+000
1.909090e+003,4.164246e+000
1.910054e+003,-1.968506e+000
1.911018e+003,-4.878845e+000
1.911982e+003,-2.081543e+000
1.912947e+003,4.653931e-001
1.913911e+003,-1.749268e+000
1.914875e+003,-5.587830e+000
1.915839e+003,-6.440308e+000
1.916803e+003,-4.878052e+000
1.917768e+003,-1.344727e+000
1.918732e+003,5.397827e+000
1.919696e+003,7.751038e+000
1.920660e+003,3.862061e+000
1.921625e+003,1.408325e+000
1.922589e+003,2.369812e+000
1.923553e+003,3.834351e+000
1.924517e+003,4.860718e+000
1.925481e+003,5.339539e+000
1.926446e+003,4.883728e+000
1.927410e+003,3.968201e+000
1.928374e+003,3.456726e+000
1.929338e+003,3.102661e+000
1.930303e+003,2.044922e+000
1.931267e+003,2.923584e-001
1.932231e+003,-6.267700e-001
1.933195e+003,-2.304077e-001
1.934160e+003,4.670410e-001
1.935124e+003,5.821533e-001
1.936088e+003,4.371948e-001
1.937052e+003,1.008301e+000
1.938017e+003,2.219666e+000
1.938981e+003,3.769409e+000
1.939945e+003,5.056763e+000
1.940909e+003,3.874634e+000
1.941874e+003,-4.531250e-001
1.942838e+003,-3.332458e+000
1.943802e+003,1.353149e-001
1.944766e+003,6.012573e+000
1.945730e+003,4.683228e+000
1.946695e+003,-2.791199e+000
1.947659e+003,-4.542297e+000
1.948623e+003,-1.100464e-001
1.949587e+003,3.672485e+000
1.950552e+003,6.669678e+000
1.951516e+003,7.482239e+000
1.952480e+003,4.486084e+000
1.953444e+003,1.596130e+000
1.954408e+003,1.333984e+000
1.955373e+003,2.315002e+000
1.956337e+003,3.768433e+000
1.957301e+003,5.712585e+000
1.958265e+003,6.431824e+000
1.959230e+003,5.792358e+000
1.960194e+003,5.283691e+000
1.961158e+003,4.522644e+000
1.962122e+003,3.269165e+000
1.963087e+003,7.628174e-001
1.964051e+003,-1.150085e+000
1.965015e+003,-6.820068e-001
1.965979e+003,1.086182e+000
1.966944e+003,3.361633e+000
1.967908e+003,5.017151e+000
1.968872e+003,4.285095e+000
1.969836e+003,1.742554e+000
1.970801e+003,1.127319e-001
1.971765e+003,6.161499e-001
1.972729e+003,2.583801e+000
1.973693e+003,5.974304e+000
1.974657e+003,8.798828e+000
1.975622e+003,7.320557e+000
1.976586e+003,2.887878e+000
1.977550e+003,-1.082581e+000
1.978514e+003,-4.013123e+000
1.979479e+003,-3.796509e+000
1.980443e+003,-4.377441e-001
1.981407e+003,2.328064e+000
1.982371e+003,3.267334e+000
1.983335e+003,4.359497e+000
1.984300e+003,7.018311e+000
1.985264e+003,9.271484e+000
1.986228e+003,8.181091e+000
1.987192e+003,4.511475e+000
1.988157e+003,2.322998e+000
1.989121e+003,2.088501e+000
1.990085e+003,1.858215e+000
1.991049e+003,1.650574e+000
1.992014e+003,1.948792e+000
1.992978e+003,2.961609e+000
1.993942e+003,3.764648e+000
1.994906e+003,3.967285e+000
1.995871e+003,3.971008e+000
1.996835e+003,4.386230e+000
1.997799e+003,4.895203e+000
1.998763e+003,4.427246e+000
1.999728e+003,3.108398e+000
