5.003444e+002,3.669771e+001
5.013087e+002,3.701981e+001
5.022729e+002,3.522681e+001
5.032371e+002,3.227390e+001
5.042014e+002,3.106084e+001
5.051656e+002,3.135995e+001
5.061298e+002,3.204895e+001
5.070941e+002,3.211868e+001
5.080583e+002,3.140585e+001
5.090225e+002,3.049654e+001
5.099868e+002,2.902219e+001
5.109510e+002,2.777177e+001
5.119152e+002,2.741237e+001
5.128795e+002,2.805690e+001
5.138437e+002,2.813269e+001
5.148079e+002,2.623512e+001
5.157722e+002,2.451044e+001
5.167364e+002,2.372350e+001
5.177006e+002,2.398668e+001
5.186649e+002,2.497215e+001
5.196291e+002,2.733841e+001
5.205933e+002,2.972418e+001
5.215576e+002,3.009438e+001
5.225218e+002,2.831235e+001
5.234860e+002,2.541962e+001
5.244503e+002,2.336928e+001
5.254145e+002,2.258534e+001
5.263787e+002,2.239813e+001
5.273430e+002,2.334932e+001
5.283072e+002,2.453505e+001
5.292714e+002,2.462370e+001
5.302357e+002,2.291164e+001
5.311999e+002,2.108252e+001
5.321641e+002,1.897072e+001
5.331284e+002,1.735916e+001
5.340926e+002,1.709467e+001
5.350568e+002,1.852776e+001
5.360211e+002,1.982173e+001
5.369853e+002,1.929008e+001
5.379495e+002,1.808662e+001
5.389138e+002,1.680177e+001
5.398780e+002,1.577396e+001
5.408422e+002,1.518300e+001
5.418065e+002,1.599893e+001
5.427707e+002,1.795078e+001
5.437349e+002,1.898001e+001
5.446992e+002,1.831004e+001
5.456634e+002,1.646288e+001
5.466276e+002,1.533620e+001
5.475919e+002,1.615392e+001
5.485561e+002,1.628038e+001
5.495203e+002,1.479988e+001
5.504846e+002,1.275110e+001
5.514488e+002,1.178632e+001
5.524130e+002,1.304489e+001
5.533773e+002,1.436028e+001
5.543415e+002,1.456213e+001
5.553057e+002,1.424237e+001
5.562700e+002,1.387762e+001
5.572342e+002,1.375174e+001
5.581984e+002,1.389261e+001
5.591627e+002,1.479713e+001
5.601269e+002,1.614671e+001
5.610911e+002,1.707742e+001
5.620554e+002,1.710310e+001
5.630196e+002,1.624966e+001
5.639838e+002,1.511418e+001
5.649481e+002,1.343541e+001
5.659123e+002,1.187241e+001
5.668765e+002,1.074539e+001
5.678408e+002,9.974503e+000
5.688050e+002,9.059982e+000
5.697692e+002,6.906906e+000
5.707335e+002,5.745178e+000
5.716977e+002,7.098129e+000
5.726619e+002,9.573166e+000
5.736262e+002,1.130367e+001
5.745904e+002,1.096834e+001
5.755546e+002,9.760544e+000
5.765189e+002,9.602356e+000
5.774831e+002,9.940979e+000
5.784473e+002,9.942993e+000
5.794116e+002,9.094757e+000
5.803758e+002,7.545837e+000
5.813400e+002,6.196609e+000
5.823043e+002,4.611099e+000
5.832685e+002,3.704544e+000
5.842327e+002,4.324783e+000
5.851970e+002,6.257782e+000
5.861612e+002,7.618210e+000
5.871254e+002,7.324860e+000
5.880897e+002,7.180298e+000
5.890539e+002,7.927322e+000
5.900181e+002,8.909988e+000
5.909824e+002,8.928284e+000
5.919466e+002,6.927979e+000
5.929108e+002,4.512177e+000
5.938751e+002,3.146774e+000
5.948393e+002,2.637268e+000
5.958035e+002,2.826569e+000
5.967678e+002,3.598877e+000
5.977320e+002,4.894592e+000
5.986962e+002,6.056976e+000
5.996605e+002,7.044373e+000
6.006247e+002,7.573593e+000
6.015889e+002,7.389084e+000
6.025532e+002,6.552658e+000
6.035174e+002,5.804565e+000
6.044816e+002,5.088943e+000
6.054459e+002,4.591644e+000
6.064101e+002,4.525940e+000
6.073743e+002,4.658630e+000
6.083386e+002,4.529633e+000
6.093028e+002,3.701904e+000
6.102670e+002,3.079697e+000
6.112313e+002,3.389938e+000
6.121955e+002,4.220322e+000
6.131597e+002,5.145721e+000
6.141240e+002,5.854019e+000
6.150882e+002,6.252594e+000
6.160524e+002,5.657867e+000
6.170167e+002,4.310028e+000
6.179809e+002,3.563736e+000
6.189451e+002,4.263916e+000
6.199094e+002,6.057220e+000
6.208736e+002,6.616272e+000
6.218378e+002,4.536636e+000
6.228021e+002,2.982056e+000
6.237663e+002,2.366287e+000
6.247305e+002,2.435349e+000
6.256948e+002,2.834290e+000
6.266590e+002,3.700500e+000
6.276232e+002,3.936508e+000
6.285875e+002,2.438965e+000
6.295517e+002,5.271149e-001
6.305159e+002,-3.679810e-001
6.314802e+002,4.700623e-001
6.324444e+002,2.249893e+000
6.334086e+002,2.955536e+000
6.343729e+002,3.007828e+000
6.353371e+002,3.308990e+000
6.363013e+002,4.232727e+000
6.372656e+002,5.446289e+000
6.382298e+002,5.839630e+000
6.391940e+002,4.461288e+000
6.401583e+002,3.348114e+000
6.411225e+002,3.057190e+000
6.420867e+002,3.007858e+000
6.430510e+002,2.217773e+000
6.440152e+002,-5.812073e-002
6.449794e+002,-1.746826e+000
6.459437e+002,-1.512390e+000
6.469079e+002,-5.835266e-001
6.478721e+002,1.818237e-001
6.488364e+002,4.906616e-001
6.498006e+002,7.350769e-001
6.507648e+002,1.755234e+000
6.517291e+002,3.147186e+000
6.526933e+002,4.126526e+000
6.536575e+002,4.564377e+000
6.546218e+002,4.207565e+000
6.555860e+002,2.412704e+000
6.565502e+002,-2.598572e+000
6.575145e+002,-4.975128e+000
6.584787e+002,-2.955292e+000
6.594429e+002,-7.125854e-002
6.604072e+002,7.392120e-001
6.613714e+002,-1.134796e+000
6.623356e+002,-2.696960e+000
6.632999e+002,-2.651657e+000
6.642641e+002,-1.976013e+000
6.652283e+002,-5.190887e-001
6.661926e+002,1.356079e+000
6.671568e+002,2.723099e+000
6.681210e+002,2.121765e+000
6.690853e+002,3.276825e-001
6.700495e+002,-2.640533e-001
6.710137e+002,3.340759e-001
6.719780e+002,1.138077e+000
6.729422e+002,1.066330e+000
6.739064e+002,-1.314850e-001
6.748707e+002,-9.753723e-001
6.758349e+002,-1.497650e+000
6.767991e+002,-1.798843e+000
6.777634e+002,-1.626587e+000
6.787276e+002,-1.024780e+000
6.796918e+002,-7.463531e-001
6.806561e+002,-2.017242e+000
6.816203e+002,-2.763123e+000
6.825845e+002,-1.601105e+000
6.835488e+002,5.263062e-001
6.845130e+002,2.073502e+000
6.854772e+002,1.896896e+000
6.864415e+002,6.698914e-001
6.874057e+002,-4.820709e-001
6.883699e+002,-1.575012e+000
6.893342e+002,-2.334396e+000
6.902984e+002,-2.592712e+000
6.912626e+002,-2.281021e+000
6.922269e+002,-1.138229e+000
6.931911e+002,2.788254e+000
6.941553e+002,5.135147e+000
6.951196e+002,4.356491e+000
6.960838e+002,2.029984e+000
6.970480e+002,8.605957e-001
6.980123e+002,2.055206e+000
6.989765e+002,2.872543e+000
6.999407e+002,1.498947e+000
7.009050e+002,-2.145081e-001
7.018692e+002,-5.144043e-001
7.028334e+002,1.012436e+000
7.037977e+002,2.847122e+000
7.047619e+002,2.322342e+000
7.057261e+002,5.391083e-001
7.066904e+002,-4.563904e-001
7.076546e+002,-3.436279e-001
7.086188e+002,5.015869e-001
7.095831e+002,1.596771e+000
7.105473e+002,3.370239e+000
7.115115e+002,3.599609e+000
7.124758e+002,9.333038e-001
7.134400e+002,-1.679672e+000
7.144042e+002,-2.092239e+000
7.153685e+002,-2.578888e-001
7.163327e+002,1.071701e+000
7.172969e+002,3.443451e-001
7.182612e+002,-9.136810e-001
7.192254e+002,-3.018799e+000
7.201896e+002,-5.170593e+000
7.211539e+002,-5.887512e+000
7.221181e+002,-3.746201e+000
7.230823e+002,3.007507e-002
7.240466e+002,2.404572e+000
7.250108e+002,3.618683e+000
7.259750e+002,3.655121e+000
7.269393e+002,2.167267e+000
7.279035e+002,-6.158905e-001
7.288677e+002,-1.877319e+000
7.298320e+002,6.815491e-001
7.307962e+002,2.364792e+000
7.317604e+002,2.194199e+000
7.327247e+002,1.280716e+000
7.336889e+002,1.224350e+000
7.346531e+002,2.604172e+000
7.356174e+002,3.521042e+000
7.365816e+002,3.032196e+000
7.375458e+002,2.056000e+000
7.385101e+002,9.479523e-001
7.394743e+002,-6.988525e-003
7.404385e+002,-3.520660e-001
7.414028e+002,1.029007e+000
7.423670e+002,3.239075e+000
7.433312e+002,2.902161e+000
7.442955e+002,-3.137360e-001
7.452597e+002,-3.611359e+000
7.462239e+002,-3.584763e+000
7.471882e+002,9.507904e-001
7.481524e+002,3.452240e+000
7.491166e+002,2.654434e+000
7.500809e+002,1.383774e+000
7.510451e+002,5.078888e-001
7.520093e+002,3.259277e-002
7.529736e+002,-4.320221e-001
7.539378e+002,-1.210938e+000
7.549020e+002,-1.437363e+000
7.558663e+002,-8.021545e-002
7.568306e+002,1.878387e+000
7.577948e+002,2.967926e+000
7.587590e+002,2.315994e+000
7.597233e+002,5.718689e-001
7.606875e+002,-5.444336e-002
7.616517e+002,3.621063e-001
7.626160e+002,5.675049e-001
7.635802e+002,1.471558e-001
7.645444e+002,-4.918365e-001
7.655087e+002,-5.239563e-001
7.664729e+002,2.237549e-001
7.674371e+002,1.215179e+000
7.684014e+002,3.238068e+000
7.693656e+002,4.711838e+000
7.703298e+002,4.274078e+000
7.712941e+002,1.973373e+000
7.722583e+002,-3.506317e-001
7.732225e+002,-1.953110e+000
7.741868e+002,-2.356689e+000
7.751510e+002,-9.213257e-002
7.761152e+002,3.699509e+000
7.770795e+002,6.218369e+000
7.780437e+002,4.943130e+000
7.790079e+002,5.687408e-001
7.799722e+002,-1.556396e-002
7.809364e+002,3.547150e+000
7.819006e+002,6.114258e+000
7.828649e+002,5.196976e+000
7.838291e+002,1.899597e+000
7.847933e+002,-2.652588e-001
7.857576e+002,-8.895874e-001
7.867218e+002,-1.043930e+000
7.876860e+002,-4.707489e-001
7.886503e+002,2.813873e-001
7.896145e+002,7.185974e-001
7.905787e+002,7.265930e-001
7.915430e+002,7.030792e-001
7.925072e+002,8.811646e-001
7.934714e+002,1.224167e+000
7.944357e+002,2.105133e+000
7.953999e+002,3.426437e+000
7.963641e+002,4.442947e+000
7.973284e+002,4.229095e+000
7.982926e+002,2.661499e+000
7.992568e+002,2.365417e+000
8.002211e+002,3.935928e+000
8.011853e+002,4.954681e+000
8.021495e+002,4.297241e+000
8.031138e+002,2.626266e+000
8.040780e+002,1.871841e+000
8.050422e+002,2.620255e+000
8.060065e+002,3.687637e+000
8.069707e+002,5.142075e+000
8.079349e+002,6.288116e+000
8.088992e+002,6.233063e+000
8.098634e+002,4.840179e+000
8.108276e+002,3.320129e+000
8.117919e+002,3.695175e+000
8.127561e+002,4.817108e+000
8.137203e+002,4.502792e+000
8.146846e+002,2.642258e+000
8.156488e+002,5.218964e-001
8.166130e+002,-3.914490e-001
8.175773e+002,-1.521301e-002
8.185415e+002,9.681091e-001
8.195057e+002,3.855698e+000
8.204700e+002,5.503830e+000
8.214342e+002,3.861725e+000
8.223984e+002,1.816406e-001
8.233627e+002,-2.212021e+000
8.243269e+002,-2.003937e+000
8.252911e+002,-5.055542e-001
8.262554e+002,2.195236e+000
8.272196e+002,4.989227e+000
8.281838e+002,6.646957e+000
8.291481e+002,6.773346e+000
8.301123e+002,6.008102e+000
8.310765e+002,5.315826e+000
8.320408e+002,4.736008e+000
8.330050e+002,4.747284e+000
8.339692e+002,5.616028e+000
8.349335e+002,6.429291e+000
8.358977e+002,6.062256e+000
8.368619e+002,4.294800e+000
8.378262e+002,3.444931e+000
8.387904e+002,4.042786e+000
8.397546e+002,4.862274e+000
8.407189e+002,6.233322e+000
8.416831e+002,7.496338e+000
8.426473e+002,7.302658e+000
8.436116e+002,4.676956e+000
8.445758e+002,2.185699e+000
8.455400e+002,2.655884e+000
8.465043e+002,4.489532e+000
8.474685e+002,6.443817e+000
8.484327e+002,8.074966e+000
8.493970e+002,9.251770e+000
8.503612e+002,9.597519e+000
8.513254e+002,8.906052e+000
8.522897e+002,8.223846e+000
8.532539e+002,7.307007e+000
8.542181e+002,6.562866e+000
8.551824e+002,6.333038e+000
8.561466e+002,6.691879e+000
8.571108e+002,7.445999e+000
8.580751e+002,8.891953e+000
8.590393e+002,9.719193e+000
8.600035e+002,9.191162e+000
8.609678e+002,8.211197e+000
8.619320e+002,7.581161e+000
8.628962e+002,7.668488e+000
8.638605e+002,8.605255e+000
8.648247e+002,1.168993e+001
8.657889e+002,1.537610e+001
8.667532e+002,1.578001e+001
8.677174e+002,1.240666e+001
8.686816e+002,8.326538e+000
8.696459e+002,7.121582e+000
8.706101e+002,9.279419e+000
8.715743e+002,1.120648e+001
8.725386e+002,1.298001e+001
8.735028e+002,1.448680e+001
8.744670e+002,1.558771e+001
8.754313e+002,1.627841e+001
8.763955e+002,1.654546e+001
8.773597e+002,1.625323e+001
8.783240e+002,1.621320e+001
8.792882e+002,1.765408e+001
8.802524e+002,1.909015e+001
8.812167e+002,1.893933e+001
8.821809e+002,1.711880e+001
8.831451e+002,1.485677e+001
8.841094e+002,1.374658e+001
8.850736e+002,1.387621e+001
8.860378e+002,1.435513e+001
8.870021e+002,1.523419e+001
8.879663e+002,1.601288e+001
8.889305e+002,1.591658e+001
8.898948e+002,1.529204e+001
8.908590e+002,1.628754e+001
8.918232e+002,2.099408e+001
8.927875e+002,2.421014e+001
8.937517e+002,2.396135e+001
8.947159e+002,2.263307e+001
8.956802e+002,2.221190e+001
8.966444e+002,2.302112e+001
8.976086e+002,2.372971e+001
8.985729e+002,2.291292e+001
8.995371e+002,2.147865e+001
9.005013e+002,2.082724e+001
9.014656e+002,2.096529e+001
9.024298e+002,2.143771e+001
9.033940e+002,2.183469e+001
9.043583e+002,2.213940e+001
9.053225e+002,2.289407e+001
9.062867e+002,2.503085e+001
9.072510e+002,2.619136e+001
9.082152e+002,2.614723e+001
9.091794e+002,2.545244e+001
9.101437e+002,2.440089e+001
9.111079e+002,2.301746e+001
9.120721e+002,2.190619e+001
9.130364e+002,2.126714e+001
9.140006e+002,2.100755e+001
9.149648e+002,2.127866e+001
9.159291e+002,2.203035e+001
9.168933e+002,2.322681e+001
9.178575e+002,2.477162e+001
9.188218e+002,2.629095e+001
9.197860e+002,2.647296e+001
9.207502e+002,2.525026e+001
9.217145e+002,2.413908e+001
9.226787e+002,2.362621e+001
9.236429e+002,2.339154e+001
9.246072e+002,2.271487e+001
9.255714e+002,2.123027e+001
9.265356e+002,2.084259e+001
9.274999e+002,2.311122e+001
9.284641e+002,2.506186e+001
9.294283e+002,2.567160e+001
9.303926e+002,2.530836e+001
9.313568e+002,2.486438e+001
9.323210e+002,2.481332e+001
9.332853e+002,2.454128e+001
9.342495e+002,2.230826e+001
9.352137e+002,1.931390e+001
9.361780e+002,1.778807e+001
9.371422e+002,1.825725e+001
9.381064e+002,1.930238e+001
9.390707e+002,1.879692e+001
9.400349e+002,1.617505e+001
9.409991e+002,1.514818e+001
9.419634e+002,1.704973e+001
9.429276e+002,1.855257e+001
9.438918e+002,1.881894e+001
9.448561e+002,1.817879e+001
9.458203e+002,1.703650e+001
9.467845e+002,1.533284e+001
9.477488e+002,1.414360e+001
9.487130e+002,1.478923e+001
9.496772e+002,1.586639e+001
9.506415e+002,1.640262e+001
9.516057e+002,1.626233e+001
9.525699e+002,1.561555e+001
9.535342e+002,1.458487e+001
9.544984e+002,1.329962e+001
9.554626e+002,1.358623e+001
9.564269e+002,1.617885e+001
9.573911e+002,1.751323e+001
9.583553e+002,1.559412e+001
9.593196e+002,1.226028e+001
9.602838e+002,1.058656e+001
9.612480e+002,1.100864e+001
9.622123e+002,1.161212e+001
9.631765e+002,1.193222e+001
9.641407e+002,1.228564e+001
9.651050e+002,1.288155e+001
9.660692e+002,1.355438e+001
9.670334e+002,1.404820e+001
9.679977e+002,1.426266e+001
9.689619e+002,1.430304e+001
9.699261e+002,1.400156e+001
9.708904e+002,1.344360e+001
9.718546e+002,1.309050e+001
9.728188e+002,1.296552e+001
9.737831e+002,1.320309e+001
9.747473e+002,1.399048e+001
9.757115e+002,1.535478e+001
9.766758e+002,1.736337e+001
9.776400e+002,2.135616e+001
9.786042e+002,2.452654e+001
9.795685e+002,2.633652e+001
9.805327e+002,2.671800e+001
9.814969e+002,2.534805e+001
9.824612e+002,2.216753e+001
9.834254e+002,1.891878e+001
9.843896e+002,1.730185e+001
9.853539e+002,1.636559e+001
9.863181e+002,1.510426e+001
9.872823e+002,1.347688e+001
9.882466e+002,1.203421e+001
9.892108e+002,1.135275e+001
9.901750e+002,1.145691e+001
9.911393e+002,1.155350e+001
9.921035e+002,1.111778e+001
9.930677e+002,1.099879e+001
9.940320e+002,1.168942e+001
9.949962e+002,1.255415e+001
9.959604e+002,1.267288e+001
9.969247e+002,1.208914e+001
9.978889e+002,1.265608e+001
9.988531e+002,1.667076e+001
9.998174e+002,1.993355e+001
1.000782e+003,1.928003e+001
1.001746e+003,1.667133e+001
1.002710e+003,1.500281e+001
1.003674e+003,1.551004e+001
1.004639e+003,1.710028e+001
1.005603e+003,1.790977e+001
1.006567e+003,1.780659e+001
1.007531e+003,1.727193e+001
1.008495e+003,1.591606e+001
1.009460e+003,1.493465e+001
1.010424e+003,1.557030e+001
1.011388e+003,1.728638e+001
1.012352e+003,1.768246e+001
1.013317e+003,1.569145e+001
1.014281e+003,1.380856e+001
1.015245e+003,1.298834e+001
1.016209e+003,1.230806e+001
1.017174e+003,1.105142e+001
1.018138e+003,9.266724e+000
1.019102e+003,7.573349e+000
1.020066e+003,6.532974e+000
1.021031e+003,5.877380e+000
1.021995e+003,4.278168e+000
1.022959e+003,1.925110e+000
1.023923e+003,7.396393e-001
1.024887e+003,1.708618e+000
1.025852e+003,3.455048e+000
1.026816e+003,3.752075e+000
1.027780e+003,2.304550e+000
1.028744e+003,1.158356e+000
1.029709e+003,2.533417e-001
1.030673e+003,-1.356812e-001
1.031637e+003,5.030975e-001
1.032601e+003,1.481705e+000
1.033566e+003,1.738922e+000
1.034530e+003,9.637909e-001
1.035494e+003,3.227234e-001
1.036458e+003,1.520248e+000
1.037422e+003,3.332687e+000
1.038387e+003,3.616135e+000
1.039351e+003,2.392456e+000
1.040315e+003,8.158875e-001
1.041279e+003,-3.495636e-001
1.042244e+003,-9.549103e-001
1.043208e+003,-3.233185e-001
1.044172e+003,2.913239e+000
1.045136e+003,4.803207e+000
1.046101e+003,4.621414e+000
1.047065e+003,3.911041e+000
1.048029e+003,3.286072e+000
1.048993e+003,2.934067e+000
1.049958e+003,3.376266e+000
1.050922e+003,5.410004e+000
1.051886e+003,7.019165e+000
1.052850e+003,5.275452e+000
1.053814e+003,2.294815e+000
1.054779e+003,6.858521e-001
1.055743e+003,1.046158e+000
1.056707e+003,2.656464e+000
1.057671e+003,4.758560e+000
1.058636e+003,7.340118e+000
1.059600e+003,8.573532e+000
1.060564e+003,8.161377e+000
1.061528e+003,7.181183e+000
1.062493e+003,5.063843e+000
1.063457e+003,2.700821e+000
1.064421e+003,1.050156e+000
1.065385e+003,2.680359e-001
1.066349e+003,2.455139e-001
1.067314e+003,1.810638e+000
1.068278e+003,3.061676e+000
1.069242e+003,2.132797e+000
1.070206e+003,2.372284e-001
1.071171e+003,-5.502472e-001
1.072135e+003,4.994507e-001
1.073099e+003,2.071075e+000
1.074063e+003,1.977127e+000
1.075028e+003,3.216553e-002
1.075992e+003,-7.992096e-001
1.076956e+003,-3.109741e-002
1.077920e+003,6.534271e-001
1.078885e+003,4.384155e-001
1.079849e+003,-6.425476e-002
1.080813e+003,2.615051e-001
1.081777e+003,1.676025e+000
1.082741e+003,3.351898e+000
1.083706e+003,5.483994e+000
1.084670e+003,7.016617e+000
1.085634e+003,7.231857e+000
1.086598e+003,6.375366e+000
1.087563e+003,4.773575e+000
1.088527e+003,2.756378e+000
1.089491e+003,9.889221e-001
1.090455e+003,7.651367e-001
1.091420e+003,2.225937e+000
1.092384e+003,2.715805e+000
1.093348e+003,1.749207e+000
1.094312e+003,5.917816e-001
1.095276e+003,2.034912e-001
1.096241e+003,2.930908e-001
1.097205e+003,-4.178162e-001
1.098169e+003,-2.785233e+000
1.099133e+003,-4.078583e+000
1.100098e+003,-2.317200e+000
1.101062e+003,-6.581116e-002
1.102026e+003,1.194717e+000
1.102990e+003,1.579605e+000
1.103955e+003,1.781006e+000
1.104919e+003,2.220917e+000
1.105883e+003,2.912811e+000
1.106847e+003,4.204285e+000
1.107812e+003,6.017075e+000
1.108776e+003,5.890640e+000
1.109740e+003,2.763199e+000
1.110704e+003,-3.164673e-001
1.111668e+003,-8.954773e-001
1.112633e+003,5.401764e-001
1.113597e+003,1.622040e+000
1.114561e+003,1.888519e+000
1.115525e+003,2.198349e+000
1.116490e+003,3.041962e+000
1.117454e+003,3.778976e+000
1.118418e+003,3.999268e+000
1.119382e+003,3.851700e+000
1.120347e+003,3.765366e+000
1.121311e+003,3.925797e+000
1.122275e+003,3.849609e+000
1.123239e+003,2.367966e+000
1.124203e+003,-1.114349e-001
1.125168e+003,-8.605957e-002
1.126132e+003,3.732269e+000
1.127096e+003,7.458817e+000
1.128060e+003,7.564346e+000
1.129025e+003,4.904449e+000
1.129989e+003,3.807190e+000
1.130953e+003,5.212311e+000
1.131917e+003,6.610931e+000
1.132882e+003,7.311005e+000
1.133846e+003,7.883957e+000
1.134810e+003,8.937866e+000
1.135774e+003,1.014343e+001
1.136739e+003,1.041347e+001
1.137703e+003,9.167221e+000
1.138667e+003,7.739578e+000
1.139631e+003,8.781433e+000
1.140595e+003,1.195088e+001
1.141560e+003,1.392108e+001
1.142524e+003,1.430414e+001
1.143488e+003,1.463193e+001
1.144452e+003,1.544933e+001
1.145417e+003,1.698259e+001
1.146381e+003,2.028038e+001
1.147345e+003,2.605994e+001
1.148309e+003,3.167886e+001
1.149274e+003,3.690779e+001
1.150238e+003,4.150708e+001
1.151202e+003,4.485675e+001
1.152166e+003,4.769598e+001
1.153130e+003,5.158708e+001
1.154095e+003,5.703354e+001
1.155059e+003,6.215932e+001
1.156023e+003,6.446324e+001
1.156987e+003,6.399734e+001
1.157952e+003,6.235487e+001
1.158916e+003,5.961310e+001
1.159880e+003,5.636411e+001
1.160844e+003,5.241182e+001
1.161809e+003,4.798959e+001
1.162773e+003,4.397809e+001
1.163737e+003,4.052538e+001
1.164701e+003,3.686772e+001
1.165666e+003,3.234087e+001
1.166630e+003,2.820470e+001
1.167594e+003,2.499767e+001
1.168558e+003,2.241042e+001
1.169522e+003,1.990729e+001
1.170487e+003,1.738635e+001
1.171451e+003,1.542776e+001
1.172415e+003,1.474126e+001
1.173379e+003,1.504099e+001
1.174344e+003,1.481271e+001
1.175308e+003,1.402202e+001
1.176272e+003,1.368065e+001
1.177236e+003,1.448715e+001
1.178201e+003,1.567447e+001
1.179165e+003,1.633987e+001
1.180129e+003,1.642395e+001
1.181093e+003,1.575766e+001
1.182057e+003,1.390134e+001
1.183022e+003,1.194267e+001
1.183986e+003,9.695694e+000
1.184950e+003,7.962692e+000
1.185914e+003,7.798386e+000
1.186879e+003,9.044998e+000
1.187843e+003,1.065288e+001
1.188807e+003,1.176491e+001
1.189771e+003,1.225850e+001
1.190736e+003,1.170032e+001
1.191700e+003,9.945374e+000
1.192664e+003,8.517151e+000
1.193628e+003,7.567917e+000
1.194593e+003,7.044312e+000
1.195557e+003,7.143448e+000
1.196521e+003,7.621536e+000
1.197485e+003,7.585541e+000
1.198449e+003,6.714615e+000
1.199414e+003,5.980911e+000
1.200378e+003,5.873856e+000
1.201342e+003,6.011810e+000
1.202306e+003,6.390472e+000
1.203271e+003,6.734253e+000
1.204235e+003,6.573349e+000
1.205199e+003,5.725800e+000
1.206163e+003,4.554749e+000
1.207128e+003,3.644760e+000
1.208092e+003,3.026230e+000
1.209056e+003,2.212326e+000
1.210020e+003,1.193542e+000
1.210984e+003,6.675720e-002
1.211949e+003,-1.508865e+000
1.212913e+003,-2.992004e+000
1.213877e+003,-3.373459e+000
1.214841e+003,-2.627640e+000
1.215806e+003,-2.473541e+000
1.216770e+003,-4.004456e+000
1.217734e+003,-5.654144e+000
1.218698e+003,-6.110275e+000
1.219663e+003,-6.231506e+000
1.220627e+003,-7.361938e+000
1.221591e+003,-9.473709e+000
1.222555e+003,-1.109039e+001
1.223520e+003,-1.079240e+001
1.224484e+003,-9.076065e+000
1.225448e+003,-8.506042e+000
1.226412e+003,-1.016576e+001
1.227376e+003,-1.054471e+001
1.228341e+003,-8.472961e+000
1.229305e+003,-6.539307e+000
1.230269e+003,-5.991501e+000
1.231233e+003,-6.628830e+000
1.232198e+003,-8.271271e+000
1.233162e+003,-1.093677e+001
1.234126e+003,-1.281755e+001
1.235090e+003,-1.204604e+001
1.236055e+003,-1.046350e+001
1.237019e+003,-9.897507e+000
1.237983e+003,-1.023016e+001
1.238947e+003,-1.106808e+001
1.239911e+003,-1.219170e+001
1.240876e+003,-1.309909e+001
1.241840e+003,-1.300209e+001
1.242804e+003,-1.181778e+001
1.243768e+003,-1.108910e+001
1.244733e+003,-1.164166e+001
1.245697e+003,-1.152496e+001
1.246661e+003,-1.004387e+001
1.247625e+003,-8.488480e+000
1.248590e+003,-7.795639e+000
1.249554e+003,-7.797409e+000
1.250518e+003,-7.829315e+000
1.251482e+003,-7.641296e+000
1.252447e+003,-7.405960e+000
1.253411e+003,-7.280075e+000
1.254375e+003,-7.150681e+000
1.255339e+003,-6.687576e+000
1.256303e+003,-5.886597e+000
1.257268e+003,-5.617920e+000
1.258232e+003,-6.771698e+000
1.259196e+003,-8.393661e+000
1.260160e+003,-8.185089e+000
1.261125e+003,-5.668915e+000
1.262089e+003,-3.840439e+000
1.263053e+003,-3.243515e+000
1.264017e+003,-3.295929e+000
1.264982e+003,-4.347992e+000
1.265946e+003,-5.559662e+000
1.266910e+003,-6.271408e+000
1.267874e+003,-6.372345e+000
1.268839e+003,-5.916595e+000
1.269803e+003,-4.919312e+000
1.270767e+003,-3.824417e+000
1.271731e+003,-3.539230e+000
1.272695e+003,-4.017960e+000
1.273660e+003,-4.334427e+000
1.274624e+003,-4.553787e+000
1.275588e+003,-4.716293e+000
1.276552e+003,-4.569458e+000
1.277517e+003,-4.356140e+000
1.278481e+003,-4.747055e+000
1.279445e+003,-5.861771e+000
1.280409e+003,-6.730499e+000
1.281374e+003,-6.867462e+000
1.282338e+003,-6.888229e+000
1.283302e+003,-6.953751e+000
1.284266e+003,-7.201416e+000
1.285230e+003,-8.148651e+000
1.286195e+003,-9.543320e+000
1.287159e+003,-1.016342e+001
1.288123e+003,-8.964020e+000
1.289087e+003,-6.556381e+000
1.290052e+003,-4.956787e+000
1.291016e+003,-4.445435e+000
1.291980e+003,-4.028870e+000
1.292944e+003,-3.307129e+000
1.293909e+003,-3.306671e+000
1.294873e+003,-4.935257e+000
1.295837e+003,-7.099854e+000
1.296801e+003,-8.209717e+000
1.297766e+003,-8.117691e+000
1.298730e+003,-8.101532e+000
1.299694e+003,-8.889511e+000
1.300658e+003,-1.000838e+001
1.301622e+003,-1.128792e+001
1.302587e+003,-1.233304e+001
1.303551e+003,-1.222348e+001
1.304515e+003,-1.090231e+001
1.305479e+003,-9.698944e+000
1.306444e+003,-9.815262e+000
1.307408e+003,-1.077058e+001
1.308372e+003,-1.075455e+001
1.309336e+003,-9.335617e+000
1.310301e+003,-8.293915e+000
1.311265e+003,-7.779831e+000
1.312229e+003,-7.480118e+000
1.313193e+003,-7.394089e+000
1.314157e+003,-7.463638e+000
1.315122e+003,-7.754486e+000
1.316086e+003,-8.193008e+000
1.317050e+003,-8.340836e+000
1.318014e+003,-7.812836e+000
1.318979e+003,-7.419861e+000
1.319943e+003,-9.237518e+000
1.320907e+003,-1.274181e+001
1.321871e+003,-1.343826e+001
1.322836e+003,-1.038924e+001
1.323800e+003,-7.633286e+000
1.324764e+003,-7.794220e+000
1.325728e+003,-9.296066e+000
1.326693e+003,-9.494339e+000
1.327657e+003,-8.339020e+000
1.328621e+003,-6.946548e+000
1.329585e+003,-4.852539e+000
1.330549e+003,-3.433136e+000
1.331514e+003,-3.838074e+000
1.332478e+003,-5.082596e+000
1.333442e+003,-6.505447e+000
1.334406e+003,-7.747818e+000
1.335371e+003,-8.339111e+000
1.336335e+003,-8.026443e+000
1.337299e+003,-7.303619e+000
1.338263e+003,-7.151443e+000
1.339228e+003,-7.661148e+000
1.340192e+003,-7.848038e+000
1.341156e+003,-7.130875e+000
1.342120e+003,-6.970169e+000
1.343084e+003,-8.401199e+000
1.344049e+003,-9.854187e+000
1.345013e+003,-9.923859e+000
1.345977e+003,-8.781265e+000
1.346941e+003,-7.165558e+000
1.347906e+003,-5.277496e+000
1.348870e+003,-3.994904e+000
1.349834e+003,-4.340851e+000
1.350798e+003,-5.774612e+000
1.351763e+003,-7.329788e+000
1.352727e+003,-8.870483e+000
1.353691e+003,-9.781723e+000
1.354655e+003,-9.797226e+000
1.355620e+003,-9.251587e+000
1.356584e+003,-8.273926e+000
1.357548e+003,-6.945374e+000
1.358512e+003,-6.298019e+000
1.359476e+003,-6.730133e+000
1.360441e+003,-7.157791e+000
1.361405e+003,-7.451477e+000
1.362369e+003,-7.445831e+000
1.363333e+003,-6.309158e+000
1.364298e+003,-5.169266e+000
1.365262e+003,-6.150192e+000
1.366226e+003,-9.237625e+000
1.367190e+003,-1.173582e+001
1.368155e+003,-1.122060e+001
1.369119e+003,-8.638428e+000
1.370083e+003,-6.917145e+000
1.371047e+003,-6.180725e+000
1.372011e+003,-5.768478e+000
1.372976e+003,-6.023926e+000
1.373940e+003,-6.297592e+000
1.374904e+003,-6.183868e+000
1.375868e+003,-6.000519e+000
1.376833e+003,-6.406326e+000
1.377797e+003,-7.305664e+000
1.378761e+003,-7.510025e+000
1.379725e+003,-6.277725e+000
1.380690e+003,-4.916336e+000
1.381654e+003,-4.835587e+000
1.382618e+003,-5.414398e+000
1.383582e+003,-5.938828e+000
1.384547e+003,-6.341537e+000
1.385511e+003,-6.668106e+000
1.386475e+003,-6.981033e+000
1.387439e+003,-7.207352e+000
1.388403e+003,-7.261887e+000
1.389368e+003,-7.151489e+000
1.390332e+003,-6.577148e+000
1.391296e+003,-4.987183e+000
1.392260e+003,-3.942795e+000
1.393225e+003,-4.358398e+000
1.394189e+003,-4.784103e+000
1.395153e+003,-3.993042e+000
1.396117e+003,-2.836334e+000
1.397082e+003,-3.001984e+000
1.398046e+003,-4.644196e+000
1.399010e+003,-5.956436e+000
1.399974e+003,-5.289688e+000
1.400938e+003,-3.542969e+000
1.401903e+003,-3.364960e+000
1.402867e+003,-5.099182e+000
1.403831e+003,-6.030380e+000
1.404795e+003,-6.100449e+000
1.405760e+003,-5.696716e+000
1.406724e+003,-4.718613e+000
1.407688e+003,-3.745758e+000
1.408652e+003,-3.222305e+000
1.409617e+003,-3.129257e+000
1.410581e+003,-3.545883e+000
1.411545e+003,-4.631714e+000
1.412509e+003,-5.585953e+000
1.413474e+003,-5.800110e+000
1.414438e+003,-5.360474e+000
1.415402e+003,-3.827576e+000
1.416366e+003,-1.455627e+000
1.417330e+003,-1.813965e-001
1.418295e+003,-9.910889e-001
1.419259e+003,-2.252762e+000
1.420223e+003,-2.145462e+000
1.421187e+003,-8.901215e-001
1.422152e+003,6.943665e-001
1.423116e+003,3.267532e+000
1.424080e+003,4.199966e+000
1.425044e+003,8.683319e-001
1.426009e+003,-2.393768e+000
1.426973e+003,-3.873718e+000
1.427937e+003,-4.251801e+000
1.428901e+003,-4.069351e+000
1.429865e+003,-3.669510e+000
1.430830e+003,-3.609634e+000
1.431794e+003,-4.277298e+000
1.432758e+003,-5.234528e+000
1.433722e+003,-5.546616e+000
1.434687e+003,-5.111908e+000
1.435651e+003,-3.922012e+000
1.436615e+003,-8.200073e-001
1.437579e+003,7.877197e-001
1.438544e+003,-4.728699e-001
1.439508e+003,-2.150192e+000
1.440472e+003,-2.832428e+000
1.441436e+003,-2.551926e+000
1.442401e+003,-1.465271e+000
1.443365e+003,2.305298e-001
1.444329e+003,1.743896e+000
1.445293e+003,2.605911e+000
1.446257e+003,2.716919e+000
1.447222e+003,1.276031e+000
1.448186e+003,-1.289063e+000
1.449150e+003,-2.288589e+000
1.450114e+003,-1.109329e+000
1.451079e+003,-5.290222e-002
1.452043e+003,-5.652771e-001
1.453007e+003,-1.553177e+000
1.453971e+003,-1.335434e+000
1.454936e+003,-1.555634e-001
1.455900e+003,9.934998e-002
1.456864e+003,-1.233215e+000
1.457828e+003,-2.394089e+000
1.458792e+003,-1.863113e+000
1.459757e+003,-1.317184e+000
1.460721e+003,-2.668655e+000
1.461685e+003,-4.910431e+000
1.462649e+003,-5.812881e+000
1.463614e+003,-4.827652e+000
1.464578e+003,-3.262115e+000
1.465542e+003,-2.227066e+000
1.466506e+003,-1.643127e+000
1.467471e+003,-1.133667e+000
1.468435e+003,-4.966278e-001
1.469399e+003,-5.150299e-001
1.470363e+003,-2.275070e+000
1.471328e+003,-3.380707e+000
1.472292e+003,-3.115417e+000
1.473256e+003,-2.376007e+000
1.474220e+003,-1.522293e+000
1.475184e+003,-6.404877e-001
1.476149e+003,3.987732e-001
1.477113e+003,1.444489e+000
1.478077e+003,1.704575e+000
1.479041e+003,4.208679e-001
1.480006e+003,-1.708572e+000
1.480970e+003,-2.465454e+000
1.481934e+003,-1.496277e+000
1.482898e+003,-9.511108e-001
1.483863e+003,-1.488007e+000
1.484827e+003,-1.517715e+000
1.485791e+003,-9.027100e-002
1.486755e+003,1.681381e+000
1.487719e+003,2.702789e+000
1.488684e+003,3.108627e+000
1.489648e+003,3.763458e+000
1.490612e+003,4.952835e+000
1.491576e+003,5.631104e+000
1.492541e+003,4.586548e+000
1.493505e+003,2.992538e+000
1.494469e+003,3.689804e+000
1.495433e+003,6.216766e+000
1.496398e+003,8.501236e+000
1.497362e+003,1.053807e+001
1.498326e+003,1.200845e+001
1.499290e+003,1.220671e+001
1.500255e+003,1.209375e+001
1.501219e+003,1.296603e+001
1.502183e+003,1.470105e+001
1.503147e+003,1.664090e+001
1.504111e+003,1.877997e+001
1.505076e+003,2.034941e+001
1.506040e+003,2.017738e+001
1.507004e+003,2.005751e+001
1.507968e+003,2.189491e+001
1.508933e+003,2.504152e+001
1.509897e+003,2.790997e+001
1.510861e+003,3.039407e+001
1.511825e+003,3.436935e+001
1.512790e+003,4.154037e+001
1.513754e+003,5.002570e+001
1.514718e+003,5.633557e+001
1.515682e+003,6.040489e+001
1.516646e+003,6.404872e+001
1.517611e+003,6.704576e+001
1.518575e+003,7.069337e+001
1.519539e+003,7.670097e+001
1.520503e+003,8.225186e+001
1.521468e+003,8.609799e+001
1.522432e+003,8.836693e+001
1.523396e+003,8.905814e+001
1.524360e+003,8.847675e+001
1.525325e+003,8.760497e+001
1.526289e+003,8.711728e+001
1.527253e+003,8.639128e+001
1.528217e+003,8.429323e+001
1.529182e+003,8.088171e+001
1.530146e+003,7.645323e+001
1.531110e+003,7.043739e+001
1.532074e+003,6.427687e+001
1.533039e+003,5.818402e+001
1.534003e+003,5.152414e+001
1.534967e+003,4.321072e+001
1.535931e+003,3.505908e+001
1.536896e+003,2.915077e+001
1.537860e+003,2.543727e+001
1.538824e+003,2.274464e+001
1.539788e+003,2.032568e+001
1.540752e+003,1.751947e+001
1.541717e+003,1.334363e+001
1.542681e+003,8.353073e+000
1.543645e+003,5.772049e+000
1.544609e+003,6.907822e+000
1.545573e+003,7.442932e+000
1.546538e+003,6.696335e+000
1.547502e+003,6.040894e+000
1.548466e+003,6.318832e+000
1.549430e+003,6.842545e+000
1.550395e+003,6.307938e+000
1.551359e+003,5.323044e+000
1.552323e+003,6.436462e+000
1.553287e+003,1.032251e+001
1.554252e+003,1.342770e+001
1.555216e+003,1.249893e+001
1.556180e+003,9.008682e+000
1.557144e+003,5.999146e+000
1.558109e+003,3.548111e+000
1.559073e+003,2.724106e+000
1.560037e+003,4.671722e+000
1.561001e+003,5.607224e+000
1.561966e+003,3.191513e+000
1.562930e+003,4.881134e-001
1.563894e+003,6.378326e-001
1.564858e+003,2.583649e+000
1.565823e+003,3.416275e+000
1.566787e+003,2.619690e+000
1.567751e+003,2.114609e+000
1.568715e+003,3.177841e+000
1.569679e+003,4.441864e+000
1.570644e+003,3.878250e+000
1.571608e+003,2.158401e+000
1.572572e+003,1.307343e+000
1.573536e+003,1.433380e+000
1.574500e+003,2.316177e+000
1.575465e+003,4.433319e+000
1.576429e+003,6.361664e+000
1.577393e+003,6.849442e+000
1.578357e+003,6.325882e+000
1.579322e+003,5.295578e+000
1.580286e+003,3.963745e+000
1.581250e+003,4.016266e+000
1.582214e+003,6.478867e+000
1.583179e+003,8.446701e+000
1.584143e+003,7.314987e+000
1.585107e+003,4.841202e+000
1.586071e+003,2.908432e+000
1.587036e+003,1.857193e+000
1.588000e+003,3.039841e+000
1.588964e+003,6.889603e+000
1.589928e+003,9.755966e+000
1.590893e+003,8.373230e+000
1.591857e+003,5.504944e+000
1.592821e+003,5.609192e+000
1.593785e+003,8.110519e+000
1.594750e+003,9.509232e+000
1.595714e+003,9.227600e+000
1.596678e+003,8.587997e+000
1.597642e+003,7.792252e+000
1.598606e+003,7.302383e+000
1.599571e+003,7.726044e+000
1.600535e+003,8.550217e+000
1.601499e+003,9.138626e+000
1.602463e+003,9.434097e+000
1.603427e+003,9.540451e+000
1.604392e+003,9.461441e+000
1.605356e+003,9.575134e+000
1.606320e+003,1.057320e+001
1.607284e+003,1.196918e+001
1.608249e+003,1.224202e+001
1.609213e+003,1.134979e+001
1.610177e+003,1.055510e+001
1.611141e+003,9.964890e+000
1.612106e+003,9.739029e+000
1.613070e+003,1.031088e+001
1.614034e+003,1.094128e+001
1.614998e+003,1.133267e+001
1.615963e+003,1.132243e+001
1.616927e+003,1.014767e+001
1.617891e+003,8.032257e+000
1.618855e+003,7.241898e+000
1.619820e+003,9.342560e+000
1.620784e+003,1.199925e+001
1.621748e+003,1.164235e+001
1.622712e+003,8.978027e+000
1.623677e+003,7.827744e+000
1.624641e+003,8.440216e+000
1.625605e+003,9.377472e+000
1.626569e+003,1.064542e+001
1.627533e+003,1.128632e+001
1.628498e+003,1.039676e+001
1.629462e+003,9.287659e+000
1.630426e+003,9.076050e+000
1.631390e+003,9.497070e+000
1.632354e+003,9.764114e+000
1.633319e+003,9.709671e+000
1.634283e+003,9.938309e+000
1.635247e+003,1.099933e+001
1.636211e+003,1.223267e+001
1.637176e+003,1.251495e+001
1.638140e+003,1.191533e+001
1.639104e+003,1.075250e+001
1.640068e+003,8.563126e+000
1.641033e+003,7.523468e+000
1.641997e+003,9.111771e+000
1.642961e+003,1.070137e+001
1.643925e+003,1.091507e+001
1.644890e+003,1.055553e+001
1.645854e+003,1.024858e+001
1.646818e+003,1.006824e+001
1.647782e+003,1.005840e+001
1.648747e+003,1.019284e+001
1.649711e+003,1.009224e+001
1.650675e+003,9.359253e+000
1.651639e+003,8.525803e+000
1.652604e+003,8.746262e+000
1.653568e+003,9.930588e+000
1.654532e+003,1.073206e+001
1.655496e+003,1.113966e+001
1.656460e+003,1.093988e+001
1.657425e+003,9.583099e+000
1.658389e+003,8.316986e+000
1.659353e+003,7.920807e+000
1.660317e+003,7.852600e+000
1.661281e+003,7.449646e+000
1.662246e+003,6.824814e+000
1.663210e+003,6.612411e+000
1.664174e+003,7.023788e+000
1.665138e+003,7.382339e+000
1.666103e+003,6.931763e+000
1.667067e+003,6.262024e+000
1.668031e+003,6.886719e+000
1.668995e+003,8.681335e+000
1.669960e+003,9.488495e+000
1.670924e+003,8.947495e+000
1.671888e+003,8.414185e+000
1.672852e+003,8.547653e+000
1.673817e+003,8.329086e+000
1.674781e+003,6.358688e+000
1.675745e+003,4.263138e+000
1.676709e+003,3.978271e+000
1.677674e+003,5.173004e+000
1.678638e+003,6.619568e+000
1.679602e+003,7.916580e+000
1.680566e+003,8.392349e+000
1.681531e+003,7.125381e+000
1.682495e+003,5.364182e+000
1.683459e+003,5.523529e+000
1.684423e+003,7.136673e+000
1.685387e+003,7.201157e+000
1.686352e+003,5.202057e+000
1.687316e+003,4.048584e+000
1.688280e+003,5.210983e+000
1.689244e+003,6.388229e+000
1.690208e+003,5.438751e+000
1.691173e+003,3.867294e+000
1.692137e+003,3.313507e+000
1.693101e+003,3.647766e+000
1.694065e+003,4.147583e+000
1.695030e+003,4.596909e+000
1.695994e+003,4.715134e+000
1.696958e+003,4.108749e+000
1.697922e+003,3.431671e+000
1.698887e+003,3.686096e+000
1.699851e+003,4.525558e+000
1.700815e+003,4.869995e+000
1.701779e+003,4.589554e+000
1.702744e+003,3.787933e+000
1.703708e+003,2.377167e+000
1.704672e+003,1.260544e+000
1.705636e+003,1.042068e+000
1.706601e+003,1.352982e+000
1.707565e+003,1.959122e+000
1.708529e+003,2.755600e+000
1.709493e+003,3.220352e+000
1.710458e+003,3.258118e+000
1.711422e+003,3.205383e+000
1.712386e+003,3.623169e+000
1.713350e+003,3.604797e+000
1.714314e+003,1.617889e+000
1.715279e+003,-9.554596e-001
1.716243e+003,-1.600113e+000
1.717207e+003,-4.631958e-001
1.718171e+003,8.397827e-001
1.719135e+003,1.872925e+000
1.720100e+003,2.495575e+000
1.721064e+003,2.518875e+000
1.722028e+003,2.210297e+000
1.722992e+003,1.926926e+000
1.723957e+003,1.776291e+000
1.724921e+003,2.013733e+000
1.725885e+003,2.627350e+000
1.726849e+003,2.921967e+000
1.727814e+003,3.132599e+000
1.728778e+003,2.805954e+000
1.729742e+003,1.020233e+000
1.730706e+003,-7.891083e-001
1.731671e+003,-1.056122e+000
1.732635e+003,-4.343414e-001
1.733599e+003,-3.470764e-001
1.734563e+003,-9.328156e-001
1.735528e+003,-1.406387e+000
1.736492e+003,-1.384369e+000
1.737456e+003,-1.178085e+000
1.738420e+003,-1.175079e+000
1.739385e+003,-1.267654e+000
1.740349e+003,-7.924500e-001
1.741313e+003,5.950012e-001
1.742277e+003,1.039093e+000
1.743241e+003,-5.241089e-001
1.744206e+003,-1.196350e+000
1.745170e+003,3.919525e-001
1.746134e+003,1.715195e+000
1.747098e+003,9.401855e-001
1.748063e+003,-5.332794e-001
1.749027e+003,-1.014618e+000
1.749991e+003,-5.989380e-001
1.750955e+003,-3.128052e-001
1.751919e+003,-4.849396e-001
1.752884e+003,-4.367981e-001
1.753848e+003,4.115601e-001
1.754812e+003,1.338409e+000
1.755776e+003,7.724457e-001
1.756741e+003,-1.145538e+000
1.757705e+003,-1.496017e+000
1.758669e+003,6.139069e-001
1.759633e+003,1.470749e+000
1.760598e+003,-8.481140e-001
1.761562e+003,-2.300156e+000
1.762526e+003,-4.804230e-001
1.763490e+003,1.488129e+000
1.764455e+003,1.142456e+000
1.765419e+003,-3.892212e-001
1.766383e+003,-1.233826e+000
1.767347e+003,-1.206467e+000
1.768312e+003,-1.193558e+000
1.769276e+003,-1.637787e+000
1.770240e+003,-1.906708e+000
1.771204e+003,-9.394226e-001
1.772168e+003,4.756927e-001
1.773133e+003,-1.521301e-002
1.774097e+003,-2.130066e+000
1.775061e+003,-2.857513e+000
1.776025e+003,-1.813690e+000
1.776990e+003,-5.123291e-001
1.777954e+003,9.829102e-001
1.778918e+003,1.868011e+000
1.779882e+003,8.555603e-001
1.780846e+003,-6.523743e-001
1.781811e+003,-3.821716e-001
1.782775e+003,1.064331e+000
1.783739e+003,1.462189e+000
1.784703e+003,4.047241e-001
1.785668e+003,-2.584534e-001
1.786632e+003,4.603271e-001
1.787596e+003,1.330627e+000
1.788560e+003,1.675293e+000
1.789525e+003,1.649857e+000
1.790489e+003,1.134293e+000
1.791453e+003,3.550873e-001
1.792417e+003,7.637024e-002
1.793382e+003,4.252625e-001
1.794346e+003,8.123016e-001
1.795310e+003,9.113922e-001
1.796274e+003,1.048203e+000
1.797239e+003,1.746857e+000
1.798203e+003,2.689697e+000
1.799167e+003,2.536011e+000
1.800131e+003,9.313965e-001
1.801095e+003,-3.654480e-001
1.802060e+003,-1.110886e+000
1.803024e+003,-1.702103e+000
1.803988e+003,-2.468872e+000
1.804952e+003,-2.824478e+000
1.805917e+003,-2.031586e+000
1.806881e+003,-1.086929e+000
1.807845e+003,-1.175476e+000
1.808809e+003,-1.811646e+000
1.809773e+003,-1.635727e+000
1.810738e+003,-5.568237e-001
1.811702e+003,-9.063721e-003
1.812666e+003,-8.732758e-001
1.813630e+003,-2.081207e+000
1.814595e+003,-2.200958e+000
1.815559e+003,-1.473404e+000
1.816523e+003,-6.864777e-001
1.817487e+003,2.224121e-001
1.818452e+003,5.738220e-001
1.819416e+003,1.624451e-001
1.820380e+003,-9.881592e-002
1.821344e+003,1.691742e-001
1.822309e+003,3.180084e-001
1.823273e+003,-2.025146e-001
1.824237e+003,-7.951965e-001
1.825201e+003,-8.403625e-001
1.826166e+003,-5.130310e-001
1.827130e+003,-2.349854e-001
1.828094e+003,-1.150665e-001
1.829058e+003,-3.546753e-001
1.830022e+003,-1.348907e+000
1.830987e+003,-1.979126e+000
1.831951e+003,-9.736938e-001
1.832915e+003,7.072754e-001
1.833879e+003,1.898438e+000
1.834844e+003,2.499924e+000
1.835808e+003,2.196213e+000
1.836772e+003,1.107422e+000
1.837736e+003,5.764313e-001
1.838700e+003,1.184311e+000
1.839665e+003,1.660934e+000
1.840629e+003,6.973267e-001
1.841593e+003,-5.639191e-001
1.842557e+003,5.252838e-001
1.843522e+003,3.904175e+000
1.844486e+003,5.097000e+000
1.845450e+003,2.702133e+000
1.846414e+003,9.395599e-001
1.847379e+003,3.718567e-002
1.848343e+003,-7.576447e-001
1.849307e+003,-2.175949e+000
1.850271e+003,-2.956055e+000
1.851236e+003,-1.306244e+000
1.852200e+003,1.047165e+000
1.853164e+003,1.318710e+000
1.854128e+003,-2.026367e-001
1.855093e+003,-1.051483e+000
1.856057e+003,-3.003998e-001
1.857021e+003,5.939026e-001
1.857985e+003,3.365479e-001
1.858949e+003,-2.995453e-001
1.859914e+003,1.576080e-001
1.860878e+003,1.491821e+000
1.861842e+003,2.471481e+000
1.862806e+003,3.069565e+000
1.863771e+003,2.902756e+000
1.864735e+003,1.614929e+000
1.865699e+003,7.999725e-001
1.866663e+003,1.440765e+000
1.867627e+003,2.318939e+000
1.868592e+003,2.259491e+000
1.869556e+003,1.666336e+000
1.870520e+003,1.310440e+000
1.871484e+003,1.198013e+000
1.872449e+003,1.545685e+000
1.873413e+003,2.817963e+000
1.874377e+003,3.589035e+000
1.875341e+003,2.554337e+000
1.876306e+003,1.759430e+000
1.877270e+003,2.751556e+000
1.878234e+003,4.043549e+000
1.879198e+003,4.186920e+000
1.880163e+003,3.503769e+000
1.881127e+003,2.582336e+000
1.882091e+003,1.717636e+000
1.883055e+003,1.332886e+000
1.884020e+003,1.544266e+000
1.884984e+003,1.807037e+000
1.885948e+003,1.617935e+000
1.886912e+003,1.319061e+000
1.887876e+003,1.649307e+000
1.888841e+003,2.548706e+000
1.889805e+003,3.200714e+000
1.890769e+003,3.618393e+000
1.891733e+003,3.630447e+000
1.892698e+003,2.743256e+000
1.893662e+003,2.524445e+000
1.894626e+003,4.193298e+000
1.895590e+003,5.823624e+000
1.896554e+003,6.182877e+000
1.897519e+003,5.787292e+000
1.898483e+003,4.544464e+000
1.899447e+003,2.987228e+000
1.900411e+003,3.389420e+000
1.901376e+003,6.320786e+000
1.902340e+003,7.941315e+000
1.903304e+003,5.772629e+000
1.904268e+003,3.565567e+000
1.905233e+003,3.988998e+000
1.906197e+003,5.158478e+000
1.907161e+003,5.217789e+000
1.908125e+003,4.568176e+000
1.909090e+003,3.989883e+000
1.910054e+003,3.574585e+000
1.911018e+003,3.100281e+000
1.911982e+003,2.580750e+000
1.912947e+003,2.608398e+000
1.913911e+003,3.601761e+000
1.914875e+003,4.633789e+000
1.915839e+003,4.130157e+000
1.916803e+003,2.501556e+000
1.917768e+003,2.283661e+000
1.918732e+003,3.903793e+000
1.919696e+003,4.269974e+000
1.920660e+003,2.590454e+000
1.921625e+003,1.968689e+000
1.922589e+003,3.826599e+000
1.923553e+003,5.526108e+000
1.924517e+003,5.117569e+000
1.925481e+003,4.471802e+000
1.926446e+003,5.789536e+000
1.927410e+003,7.858368e+000
1.928374e+003,7.973740e+000
1.929338e+003,6.084686e+000
1.930303e+003,4.765060e+000
1.931267e+003,4.967499e+000
1.932231e+003,5.081757e+000
1.933195e+003,4.186050e+000
1.934160e+003,3.045563e+000
1.935124e+003,1.742157e+000
1.936088e+003,8.535461e-001
1.937052e+003,1.233826e+000
1.938017e+003,2.622086e+000
1.938981e+003,4.874771e+000
1.939945e+003,7.361252e+000
1.940909e+003,7.845154e+000
1.941874e+003,5.541550e+000
1.942838e+003,3.298233e+000
1.943802e+003,3.858078e+000
1.944766e+003,5.851974e+000
1.945730e+003,6.406540e+000
1.946695e+003,5.663300e+000
1.947659e+003,5.061646e+000
1.948623e+003,4.555817e+000
1.949587e+003,4.634033e+000
1.950552e+003,5.650009e+000
1.951516e+003,6.090988e+000
1.952480e+003,5.103363e+000
1.953444e+003,4.182785e+000
1.954408e+003,4.476089e+000
1.955373e+003,5.224411e+000
1.956337e+003,5.496338e+000
1.957301e+003,5.451935e+000
1.958265e+003,5.455750e+000
1.959230e+003,5.560150e+000
1.960194e+003,5.395172e+000
1.961158e+003,4.280869e+000
1.962122e+003,3.642578e+000
1.963087e+003,4.138763e+000
1.964051e+003,4.882294e+000
1.965015e+003,5.422546e+000
1.965979e+003,6.030991e+000
1.966944e+003,7.053635e+000
1.967908e+003,8.238480e+000
1.968872e+003,9.373016e+000
1.969836e+003,1.023616e+001
1.970801e+003,1.024190e+001
1.971765e+003,9.202057e+000
1.972729e+003,7.861450e+000
1.973693e+003,6.623108e+000
1.974657e+003,6.065125e+000
1.975622e+003,7.907196e+000
1.976586e+003,1.076668e+001
1.977550e+003,1.057710e+001
1.978514e+003,7.851105e+000
1.979479e+003,5.580765e+000
1.980443e+003,4.265549e+000
1.981407e+003,4.350098e+000
1.982371e+003,6.101196e+000
1.983335e+003,7.905167e+000
1.984300e+003,8.537750e+000
1.985264e+003,8.398407e+000
1.986228e+003,8.105164e+000
1.987192e+003,7.633545e+000
1.988157e+003,6.770584e+000
1.989121e+003,5.160355e+000
1.990085e+003,5.254730e+000
1.991049e+003,8.619766e+000
1.992014e+003,1.058577e+001
1.992978e+003,9.177094e+000
1.993942e+003,8.170624e+000
1.994906e+003,9.516708e+000
1.995871e+003,1.103848e+001
1.996835e+003,1.126115e+001
1.997799e+003,1.061670e+001
1.998763e+003,9.298416e+000
1.999728e+003,7.704498e+000
