5.003444e+002,2.990176e+001
5.013087e+002,3.092845e+001
5.022729e+002,3.000275e+001
5.032371e+002,2.800467e+001
5.042014e+002,2.762883e+001
5.051656e+002,2.863824e+001
5.061298e+002,2.968065e+001
5.070941e+002,2.946042e+001
5.080583e+002,2.756366e+001
5.090225e+002,2.622069e+001
5.099868e+002,2.592270e+001
5.109510e+002,2.547890e+001
5.119152e+002,2.378580e+001
5.128795e+002,2.066190e+001
5.138437e+002,1.912657e+001
5.148079e+002,2.190451e+001
5.157722e+002,2.497942e+001
5.167364e+002,2.691248e+001
5.177006e+002,2.733481e+001
5.186649e+002,2.671025e+001
5.196291e+002,2.508914e+001
5.205933e+002,2.332802e+001
5.215576e+002,2.211264e+001
5.225218e+002,2.142908e+001
5.234860e+002,2.111464e+001
5.244503e+002,2.105554e+001
5.254145e+002,2.157433e+001
5.263787e+002,2.180515e+001
5.273430e+002,2.183356e+001
5.283072e+002,2.152919e+001
5.292714e+002,2.042581e+001
5.302357e+002,1.732045e+001
5.311999e+002,1.570923e+001
5.321641e+002,1.733044e+001
5.331284e+002,1.965059e+001
5.340926e+002,2.059668e+001
5.350568e+002,1.927672e+001
5.360211e+002,1.725403e+001
5.369853e+002,1.581836e+001
5.379495e+002,1.483571e+001
5.389138e+002,1.415329e+001
5.398780e+002,1.369905e+001
5.408422e+002,1.355762e+001
5.418065e+002,1.428244e+001
5.427707e+002,1.571471e+001
5.437349e+002,1.671658e+001
5.446992e+002,1.685548e+001
5.456634e+002,1.639807e+001
5.466276e+002,1.637183e+001
5.475919e+002,1.825838e+001
5.485561e+002,1.870157e+001
5.495203e+002,1.630101e+001
5.504846e+002,1.270296e+001
5.514488e+002,1.030037e+001
5.524130e+002,1.021111e+001
5.533773e+002,1.109769e+001
5.543415e+002,1.285919e+001
5.553057e+002,1.464899e+001
5.562700e+002,1.543793e+001
5.572342e+002,1.458818e+001
5.581984e+002,1.288524e+001
5.591627e+002,1.229478e+001
5.601269e+002,1.253972e+001
5.610911e+002,1.305664e+001
5.620554e+002,1.354549e+001
5.630196e+002,1.391302e+001
5.639838e+002,1.380983e+001
5.649481e+002,1.274698e+001
5.659123e+002,1.194365e+001
5.668765e+002,1.243939e+001
5.678408e+002,1.358463e+001
5.688050e+002,1.307455e+001
5.697692e+002,7.848999e+000
5.707335e+002,3.995255e+000
5.716977e+002,4.430878e+000
5.726619e+002,7.003860e+000
5.736262e+002,8.686035e+000
5.745904e+002,7.304977e+000
5.755546e+002,4.990051e+000
5.765189e+002,5.176208e+000
5.774831e+002,6.758911e+000
5.784473e+002,8.125580e+000
5.794116e+002,8.237839e+000
5.803758e+002,7.265244e+000
5.813400e+002,5.966705e+000
5.823043e+002,3.963943e+000
5.832685e+002,2.117645e+000
5.842327e+002,4.917755e-001
5.851970e+002,-6.792603e-001
5.861612e+002,-4.250946e-001
5.871254e+002,3.319000e+000
5.880897e+002,6.241135e+000
5.890539e+002,7.185013e+000
5.900181e+002,6.739960e+000
5.909824e+002,6.005707e+000
5.919466e+002,5.608414e+000
5.929108e+002,5.382919e+000
5.938751e+002,4.901001e+000
5.948393e+002,4.434753e+000
5.958035e+002,4.608154e+000
5.967678e+002,5.873993e+000
5.977320e+002,7.980194e+000
5.986962e+002,8.230286e+000
5.996605e+002,6.490280e+000
6.006247e+002,4.774261e+000
6.015889e+002,4.163193e+000
6.025532e+002,4.570175e+000
6.035174e+002,4.401474e+000
6.044816e+002,2.823608e+000
6.054459e+002,1.588852e+000
6.064101e+002,9.463959e-001
6.073743e+002,8.028259e-001
6.083386e+002,1.026443e+000
6.093028e+002,1.807495e+000
6.102670e+002,2.517212e+000
6.112313e+002,2.599533e+000
6.121955e+002,2.317352e+000
6.131597e+002,1.951004e+000
6.141240e+002,1.697479e+000
6.150882e+002,1.578903e+000
6.160524e+002,1.864212e+000
6.170167e+002,2.545044e+000
6.179809e+002,3.372513e+000
6.189451e+002,4.264618e+000
6.199094e+002,5.094849e+000
6.208736e+002,5.409775e+000
6.218378e+002,4.710419e+000
6.228021e+002,4.344589e+000
6.237663e+002,4.902802e+000
6.247305e+002,5.790863e+000
6.256948e+002,5.871155e+000
6.266590e+002,4.180588e+000
6.276232e+002,2.487411e+000
6.285875e+002,2.021637e+000
6.295517e+002,2.246506e+000
6.305159e+002,2.834290e+000
6.314802e+002,3.484192e+000
6.324444e+002,3.733582e+000
6.334086e+002,1.579666e+000
6.343729e+002,-1.955643e+000
6.353371e+002,-4.142426e+000
6.363013e+002,-3.875153e+000
6.372656e+002,-1.905136e+000
6.382298e+002,-8.066559e-001
6.391940e+002,-1.668457e+000
6.401583e+002,-2.146866e+000
6.411225e+002,-1.456573e+000
6.420867e+002,-4.569550e-001
6.430510e+002,-3.688812e-001
6.440152e+002,-1.876221e+000
6.449794e+002,-3.574585e+000
6.459437e+002,-5.713699e+000
6.469079e+002,-7.082291e+000
6.478721e+002,-5.886490e+000
6.488364e+002,-1.900528e+000
6.498006e+002,2.542557e+000
6.507648e+002,2.667282e+000
6.517291e+002,-3.334045e-002
6.526933e+002,-1.976471e+000
6.536575e+002,-2.509125e+000
6.546218e+002,-2.054977e+000
6.555860e+002,-1.386673e+000
6.565502e+002,-3.070526e-001
6.575145e+002,5.073395e-001
6.584787e+002,1.368958e+000
6.594429e+002,1.797272e+000
6.604072e+002,1.127777e+000
6.613714e+002,-8.789368e-001
6.623356e+002,-2.418762e+000
6.632999e+002,-2.475037e+000
6.642641e+002,-2.178680e+000
6.652283e+002,-1.935486e+000
6.661926e+002,-1.759659e+000
6.671568e+002,-1.374039e+000
6.681210e+002,-3.638916e-001
6.690853e+002,7.995911e-001
6.700495e+002,1.027588e+000
6.710137e+002,3.585815e-001
6.719780e+002,-5.044556e-001
6.729422e+002,-8.473816e-001
6.739064e+002,-6.362152e-001
6.748707e+002,-3.395691e-001
6.758349e+002,5.482635e-001
6.767991e+002,8.908539e-001
6.777634e+002,-2.395477e-001
6.787276e+002,-2.440063e+000
6.796918e+002,-3.415527e+000
6.806561e+002,-7.910156e-001
6.816203e+002,1.252380e+000
6.825845e+002,5.898590e-001
6.835488e+002,-1.654419e+000
6.845130e+002,-3.462463e+000
6.854772e+002,-3.275589e+000
6.864415e+002,-1.950867e+000
6.874057e+002,-1.727768e+000
6.883699e+002,-2.388947e+000
6.893342e+002,-3.062973e+000
6.902984e+002,-3.213562e+000
6.912626e+002,-2.919632e+000
6.922269e+002,-3.022339e+000
6.931911e+002,-4.442368e+000
6.941553e+002,-4.555664e+000
6.951196e+002,-2.553055e+000
6.960838e+002,4.372711e-001
6.970480e+002,2.925659e+000
6.980123e+002,4.963577e+000
6.989765e+002,5.597061e+000
6.999407e+002,3.202637e+000
7.009050e+002,4.498901e-001
7.018692e+002,4.295349e-002
7.028334e+002,2.546967e+000
7.037977e+002,5.322052e+000
7.047619e+002,3.536331e+000
7.057261e+002,-6.994324e-001
7.066904e+002,-3.343018e+000
7.076546e+002,-3.752151e+000
7.086188e+002,-2.793823e+000
7.095831e+002,-1.765152e+000
7.105473e+002,-6.582642e-001
7.115115e+002,2.227631e-001
7.124758e+002,1.185318e+000
7.134400e+002,1.613419e+000
7.144042e+002,9.232025e-001
7.153685e+002,-8.011169e-001
7.163327e+002,-2.236526e+000
7.172969e+002,-2.721481e+000
7.182612e+002,-2.767212e+000
7.192254e+002,-2.133240e+000
7.201896e+002,-1.308884e+000
7.211539e+002,-1.260559e+000
7.221181e+002,-2.930344e+000
7.230823e+002,-5.275848e+000
7.240466e+002,-5.447800e+000
7.250108e+002,-3.771454e+000
7.259750e+002,-1.547455e+000
7.269393e+002,4.929504e-001
7.279035e+002,2.129425e+000
7.288677e+002,2.726212e+000
7.298320e+002,1.393066e+000
7.307962e+002,6.624908e-001
7.317604e+002,1.187927e+000
7.327247e+002,2.244141e+000
7.336889e+002,2.711853e+000
7.346531e+002,2.020966e+000
7.356174e+002,8.101501e-001
7.365816e+002,-5.287323e-001
7.375458e+002,-1.680954e+000
7.385101e+002,-2.497101e+000
7.394743e+002,-2.901138e+000
7.404385e+002,-2.803787e+000
7.414028e+002,-1.865540e+000
7.423670e+002,-6.806030e-001
7.433312e+002,-5.664673e-001
7.442955e+002,-1.436539e+000
7.452597e+002,-2.884720e+000
7.462239e+002,-4.873001e+000
7.471882e+002,-8.007019e+000
7.481524e+002,-9.107941e+000
7.491166e+002,-7.303223e+000
7.500809e+002,-5.261948e+000
7.510451e+002,-3.745987e+000
7.520093e+002,-2.786850e+000
7.529736e+002,-2.114746e+000
7.539378e+002,-1.442108e+000
7.549020e+002,-9.968719e-001
7.558663e+002,-1.200821e+000
7.568306e+002,-1.623810e+000
7.577948e+002,-1.708252e+000
7.587590e+002,-1.173782e+000
7.597233e+002,-3.235779e-001
7.606875e+002,1.705475e-001
7.616517e+002,4.611969e-001
7.626160e+002,1.245773e+000
7.635802e+002,3.096771e+000
7.645444e+002,5.190048e+000
7.655087e+002,5.524109e+000
7.664729e+002,2.545334e+000
7.674371e+002,1.163116e+000
7.684014e+002,2.826965e+000
7.693656e+002,4.797546e+000
7.703298e+002,5.321121e+000
7.712941e+002,4.245224e+000
7.722583e+002,2.903915e+000
7.732225e+002,2.380173e+000
7.741868e+002,1.794235e+000
7.751510e+002,-8.020020e-002
7.761152e+002,-2.612213e+000
7.770795e+002,-4.255157e+000
7.780437e+002,-3.645844e+000
7.790079e+002,-1.141022e+000
7.799722e+002,5.637512e-001
7.809364e+002,1.414993e+000
7.819006e+002,2.289886e+000
7.828649e+002,4.043137e+000
7.838291e+002,6.233383e+000
7.847933e+002,7.103638e+000
7.857576e+002,5.828064e+000
7.867218e+002,3.911911e+000
7.876860e+002,8.602600e-001
7.886503e+002,-1.824066e+000
7.896145e+002,-2.844330e+000
7.905787e+002,-1.907440e+000
7.915430e+002,-1.040649e-002
7.925072e+002,2.492798e+000
7.934714e+002,4.677322e+000
7.944357e+002,5.604599e+000
7.953999e+002,5.358673e+000
7.963641e+002,4.414505e+000
7.973284e+002,3.182205e+000
7.982926e+002,1.593292e+000
7.992568e+002,1.447708e+000
8.002211e+002,3.498154e+000
8.011853e+002,4.730225e+000
8.021495e+002,3.688126e+000
8.031138e+002,1.263351e+000
8.040780e+002,-9.613037e-004
8.050422e+002,2.736511e-001
8.060065e+002,1.675491e+000
8.069707e+002,5.472092e+000
8.079349e+002,9.159073e+000
8.088992e+002,9.728455e+000
8.098634e+002,6.497589e+000
8.108276e+002,2.706940e+000
8.117919e+002,3.670319e+000
8.127561e+002,6.836365e+000
8.137203e+002,7.232529e+000
8.146846e+002,4.472961e+000
8.156488e+002,7.942047e-001
8.166130e+002,-1.264969e+000
8.175773e+002,-1.646439e+000
8.185415e+002,-8.895264e-001
8.195057e+002,2.018448e+000
8.204700e+002,4.350037e+000
8.214342e+002,4.872452e+000
8.223984e+002,4.126038e+000
8.233627e+002,3.573578e+000
8.243269e+002,3.648941e+000
8.252911e+002,4.271774e+000
8.262554e+002,6.169556e+000
8.272196e+002,7.983398e+000
8.281838e+002,7.832855e+000
8.291481e+002,5.324158e+000
8.301123e+002,2.204849e+000
8.310765e+002,1.706604e+000
8.320408e+002,3.603745e+000
8.330050e+002,4.545364e+000
8.339692e+002,4.232681e+000
8.349335e+002,3.487091e+000
8.358977e+002,3.243973e+000
8.368619e+002,3.716629e+000
8.378262e+002,3.681274e+000
8.387904e+002,2.016632e+000
8.397546e+002,8.768921e-001
8.407189e+002,8.628845e-001
8.416831e+002,1.749329e+000
8.426473e+002,3.351944e+000
8.436116e+002,5.903320e+000
8.445758e+002,7.885757e+000
8.455400e+002,6.926620e+000
8.465043e+002,4.647903e+000
8.474685e+002,2.891891e+000
8.484327e+002,2.329468e+000
8.493970e+002,2.600952e+000
8.503612e+002,2.952286e+000
8.513254e+002,3.334793e+000
8.522897e+002,3.693222e+000
8.532539e+002,3.920776e+000
8.542181e+002,4.086197e+000
8.551824e+002,4.286896e+000
8.561466e+002,4.682449e+000
8.571108e+002,5.517670e+000
8.580751e+002,6.911850e+000
8.590393e+002,7.971283e+000
8.600035e+002,8.170532e+000
8.609678e+002,8.258820e+000
8.619320e+002,9.339081e+000
8.628962e+002,1.172615e+001
8.638605e+002,1.406577e+001
8.648247e+002,1.380809e+001
8.657889e+002,1.209358e+001
8.667532e+002,1.152492e+001
8.677174e+002,1.243634e+001
8.686816e+002,1.372350e+001
8.696459e+002,1.405325e+001
8.706101e+002,1.321780e+001
8.715743e+002,1.359018e+001
8.725386e+002,1.659482e+001
8.735028e+002,1.891885e+001
8.744670e+002,1.969890e+001
8.754313e+002,1.904454e+001
8.763955e+002,1.682182e+001
8.773597e+002,1.215898e+001
8.783240e+002,9.157944e+000
8.792882e+002,1.219403e+001
8.802524e+002,1.695346e+001
8.812167e+002,1.979504e+001
8.821809e+002,2.001486e+001
8.831451e+002,1.927859e+001
8.841094e+002,1.979390e+001
8.850736e+002,2.154457e+001
8.860378e+002,2.183499e+001
8.870021e+002,2.012830e+001
8.879663e+002,1.872908e+001
8.889305e+002,1.919112e+001
8.898948e+002,2.103818e+001
8.908590e+002,2.199512e+001
8.918232e+002,2.139389e+001
8.927875e+002,2.096892e+001
8.937517e+002,2.130086e+001
8.947159e+002,2.179616e+001
8.956802e+002,2.171552e+001
8.966444e+002,2.093187e+001
8.976086e+002,2.016789e+001
8.985729e+002,2.029579e+001
8.995371e+002,2.112285e+001
9.005013e+002,2.206763e+001
9.014656e+002,2.318430e+001
9.024298e+002,2.474757e+001
9.033940e+002,2.702258e+001
9.043583e+002,2.959200e+001
9.053225e+002,3.000082e+001
9.062867e+002,2.475934e+001
9.072510e+002,2.171411e+001
9.082152e+002,2.268619e+001
9.091794e+002,2.515364e+001
9.101437e+002,2.670343e+001
9.111079e+002,2.694070e+001
9.120721e+002,2.688948e+001
9.130364e+002,2.676685e+001
9.140006e+002,2.659245e+001
9.149648e+002,2.661655e+001
9.159291e+002,2.677362e+001
9.168933e+002,2.673259e+001
9.178575e+002,2.620688e+001
9.188218e+002,2.534239e+001
9.197860e+002,2.493509e+001
9.207502e+002,2.493719e+001
9.217145e+002,2.468938e+001
9.226787e+002,2.405832e+001
9.236429e+002,2.346425e+001
9.246072e+002,2.334738e+001
9.255714e+002,2.365842e+001
9.265356e+002,2.416484e+001
9.274999e+002,2.549408e+001
9.284641e+002,2.616579e+001
9.294283e+002,2.539075e+001
9.303926e+002,2.375009e+001
9.313568e+002,2.221527e+001
9.323210e+002,2.126392e+001
9.332853e+002,2.063736e+001
9.342495e+002,1.981403e+001
9.352137e+002,1.903426e+001
9.361780e+002,1.920418e+001
9.371422e+002,2.057655e+001
9.381064e+002,2.186432e+001
9.390707e+002,2.096347e+001
9.400349e+002,1.705190e+001
9.409991e+002,1.562595e+001
9.419634e+002,1.963272e+001
9.429276e+002,2.195308e+001
9.438918e+002,1.920148e+001
9.448561e+002,1.414450e+001
9.458203e+002,1.165120e+001
9.467845e+002,1.343127e+001
9.477488e+002,1.609532e+001
9.487130e+002,1.729417e+001
9.496772e+002,1.808972e+001
9.506415e+002,1.970482e+001
9.516057e+002,2.186366e+001
9.525699e+002,2.297002e+001
9.535342e+002,2.140619e+001
9.544984e+002,1.756577e+001
9.554626e+002,1.538129e+001
9.564269e+002,1.513693e+001
9.573911e+002,1.543504e+001
9.583553e+002,1.578548e+001
9.593196e+002,1.645116e+001
9.602838e+002,1.822687e+001
9.612480e+002,2.165756e+001
9.622123e+002,2.376738e+001
9.631765e+002,2.260573e+001
9.641407e+002,2.117389e+001
9.651050e+002,2.113882e+001
9.660692e+002,2.182043e+001
9.670334e+002,2.128999e+001
9.679977e+002,1.837428e+001
9.689619e+002,1.491325e+001
9.699261e+002,1.524831e+001
9.708904e+002,1.803452e+001
9.718546e+002,1.981557e+001
9.728188e+002,1.961423e+001
9.737831e+002,1.891858e+001
9.747473e+002,2.007486e+001
9.757115e+002,2.377704e+001
9.766758e+002,2.577272e+001
9.776400e+002,2.450644e+001
9.786042e+002,2.365173e+001
9.795685e+002,2.431844e+001
9.805327e+002,2.558392e+001
9.814969e+002,2.645668e+001
9.824612e+002,2.670236e+001
9.834254e+002,2.612222e+001
9.843896e+002,2.352342e+001
9.853539e+002,2.029698e+001
9.863181e+002,1.775717e+001
9.872823e+002,1.601283e+001
9.882466e+002,1.514909e+001
9.892108e+002,1.542638e+001
9.901750e+002,1.677066e+001
9.911393e+002,1.724854e+001
9.921035e+002,1.541228e+001
9.930677e+002,1.429349e+001
9.940320e+002,1.418030e+001
9.949962e+002,1.495218e+001
9.959604e+002,1.705779e+001
9.969247e+002,2.040398e+001
9.978889e+002,2.274025e+001
9.988531e+002,2.195580e+001
9.998174e+002,2.071812e+001
1.000782e+003,2.097913e+001
1.001746e+003,2.201392e+001
1.002710e+003,2.249171e+001
1.003674e+003,2.187106e+001
1.004639e+003,2.089316e+001
1.005603e+003,2.091440e+001
1.006567e+003,2.200420e+001
1.007531e+003,2.257166e+001
1.008495e+003,2.239291e+001
1.009460e+003,2.222020e+001
1.010424e+003,2.245123e+001
1.011388e+003,2.309634e+001
1.012352e+003,2.427618e+001
1.013317e+003,2.688142e+001
1.014281e+003,2.793515e+001
1.015245e+003,2.571742e+001
1.016209e+003,2.258981e+001
1.017174e+003,1.991420e+001
1.018138e+003,1.810452e+001
1.019102e+003,1.725343e+001
1.020066e+003,1.763750e+001
1.021031e+003,1.855751e+001
1.021995e+003,1.739090e+001
1.022959e+003,1.446974e+001
1.023923e+003,1.185081e+001
1.024887e+003,1.004614e+001
1.025852e+003,9.052658e+000
1.026816e+003,9.384125e+000
1.027780e+003,1.185353e+001
1.028744e+003,1.225711e+001
1.029709e+003,7.849167e+000
1.030673e+003,4.148148e+000
1.031637e+003,3.054947e+000
1.032601e+003,3.457230e+000
1.033566e+003,3.642746e+000
1.034530e+003,3.056732e+000
1.035494e+003,2.797729e+000
1.036458e+003,4.693100e+000
1.037422e+003,7.183548e+000
1.038387e+003,7.485565e+000
1.039351e+003,5.658890e+000
1.040315e+003,3.493149e+000
1.041279e+003,2.319244e+000
1.042244e+003,2.030273e+000
1.043208e+003,1.826279e+000
1.044172e+003,1.148972e+000
1.045136e+003,1.372833e+000
1.046101e+003,3.711929e+000
1.047065e+003,5.853119e+000
1.048029e+003,5.753784e+000
1.048993e+003,3.988129e+000
1.049958e+003,3.202499e+000
1.050922e+003,4.981644e+000
1.051886e+003,7.413452e+000
1.052850e+003,8.731400e+000
1.053814e+003,9.325043e+000
1.054779e+003,9.647552e+000
1.055743e+003,9.771988e+000
1.056707e+003,9.313019e+000
1.057671e+003,7.682800e+000
1.058636e+003,4.841019e+000
1.059600e+003,4.474411e+000
1.060564e+003,1.001971e+001
1.061528e+003,1.327652e+001
1.062493e+003,1.139697e+001
1.063457e+003,7.618988e+000
1.064421e+003,5.482239e+000
1.065385e+003,5.447983e+000
1.066349e+003,5.819107e+000
1.067314e+003,5.984482e+000
1.068278e+003,6.037918e+000
1.069242e+003,6.322083e+000
1.070206e+003,6.537720e+000
1.071171e+003,5.939880e+000
1.072135e+003,4.280762e+000
1.073099e+003,2.288132e+000
1.074063e+003,1.283554e+000
1.075028e+003,1.392303e+000
1.075992e+003,2.017715e+000
1.076956e+003,3.882370e+000
1.077920e+003,4.813431e+000
1.078885e+003,3.478851e+000
1.079849e+003,1.066757e+000
1.080813e+003,-6.374054e-001
1.081777e+003,-1.569016e+000
1.082741e+003,-7.532959e-001
1.083706e+003,4.946808e+000
1.084670e+003,1.000313e+001
1.085634e+003,1.097124e+001
1.086598e+003,8.915405e+000
1.087563e+003,6.112259e+000
1.088527e+003,4.017868e+000
1.089491e+003,2.798645e+000
1.090455e+003,2.636154e+000
1.091420e+003,3.566940e+000
1.092384e+003,4.980972e+000
1.093348e+003,7.708527e+000
1.094312e+003,9.262512e+000
1.095276e+003,7.508804e+000
1.096241e+003,3.653137e+000
1.097205e+003,1.109680e+000
1.098169e+003,2.841644e-001
1.099133e+003,4.451294e-001
1.100098e+003,2.295425e+000
1.101062e+003,4.164200e+000
1.102026e+003,4.897018e+000
1.102990e+003,4.776810e+000
1.103955e+003,4.691422e+000
1.104919e+003,5.161438e+000
1.105883e+003,5.905518e+000
1.106847e+003,6.480423e+000
1.107812e+003,6.830063e+000
1.108776e+003,6.517365e+000
1.109740e+003,5.127808e+000
1.110704e+003,3.899719e+000
1.111668e+003,4.134659e+000
1.112633e+003,5.484558e+000
1.113597e+003,5.953201e+000
1.114561e+003,4.738968e+000
1.115525e+003,3.840530e+000
1.116490e+003,4.189636e+000
1.117454e+003,4.684540e+000
1.118418e+003,4.598724e+000
1.119382e+003,4.175827e+000
1.120347e+003,4.108902e+000
1.121311e+003,4.719757e+000
1.122275e+003,5.482346e+000
1.123239e+003,5.680054e+000
1.124203e+003,5.489929e+000
1.125168e+003,5.192917e+000
1.126132e+003,4.702438e+000
1.127096e+003,4.486343e+000
1.128060e+003,4.841446e+000
1.129025e+003,5.671310e+000
1.129989e+003,6.789215e+000
1.130953e+003,8.352097e+000
1.131917e+003,9.683105e+000
1.132882e+003,1.089424e+001
1.133846e+003,1.170181e+001
1.134810e+003,1.133101e+001
1.135774e+003,1.049881e+001
1.136739e+003,1.098546e+001
1.137703e+003,1.373932e+001
1.138667e+003,1.703270e+001
1.139631e+003,1.743639e+001
1.140595e+003,1.544316e+001
1.141560e+003,1.582159e+001
1.142524e+003,1.926735e+001
1.143488e+003,2.372346e+001
1.144452e+003,2.816254e+001
1.145417e+003,3.247203e+001
1.146381e+003,3.609145e+001
1.147345e+003,3.845026e+001
1.148309e+003,4.151512e+001
1.149274e+003,4.645819e+001
1.150238e+003,5.159169e+001
1.151202e+003,5.556047e+001
1.152166e+003,5.931708e+001
1.153130e+003,6.514085e+001
1.154095e+003,7.376489e+001
1.155059e+003,8.240477e+001
1.156023e+003,8.735585e+001
1.156987e+003,8.869345e+001
1.157952e+003,8.848064e+001
1.158916e+003,8.674014e+001
1.159880e+003,8.480135e+001
1.160844e+003,8.411311e+001
1.161809e+003,8.303232e+001
1.162773e+003,7.727498e+001
1.163737e+003,6.517947e+001
1.164701e+003,5.601076e+001
1.165666e+003,5.582457e+001
1.166630e+003,5.531049e+001
1.167594e+003,5.027946e+001
1.168558e+003,4.311801e+001
1.169522e+003,3.705577e+001
1.170487e+003,3.328716e+001
1.171451e+003,3.130542e+001
1.172415e+003,3.073647e+001
1.173379e+003,3.115540e+001
1.174344e+003,3.027110e+001
1.175308e+003,2.802499e+001
1.176272e+003,2.642912e+001
1.177236e+003,2.642970e+001
1.178201e+003,2.724615e+001
1.179165e+003,2.833003e+001
1.180129e+003,2.961763e+001
1.181093e+003,2.864932e+001
1.182057e+003,2.227025e+001
1.183022e+003,1.773181e+001
1.183986e+003,1.947813e+001
1.184950e+003,2.287360e+001
1.185914e+003,2.336597e+001
1.186879e+003,2.071684e+001
1.187843e+003,1.755017e+001
1.188807e+003,1.592108e+001
1.189771e+003,1.580649e+001
1.190736e+003,1.783499e+001
1.191700e+003,2.239285e+001
1.192664e+003,2.459293e+001
1.193628e+003,2.270734e+001
1.194593e+003,2.026425e+001
1.195557e+003,1.999750e+001
1.196521e+003,2.117255e+001
1.197485e+003,2.113380e+001
1.198449e+003,1.912064e+001
1.199414e+003,1.714265e+001
1.200378e+003,1.611470e+001
1.201342e+003,1.543320e+001
1.202306e+003,1.468431e+001
1.203271e+003,1.392342e+001
1.204235e+003,1.370618e+001
1.205199e+003,1.418929e+001
1.206163e+003,1.425038e+001
1.207128e+003,1.174327e+001
1.208092e+003,6.457169e+000
1.209056e+003,4.435364e+000
1.210020e+003,7.758926e+000
1.210984e+003,9.648102e+000
1.211949e+003,6.832581e+000
1.212913e+003,2.331848e+000
1.213877e+003,3.857880e-001
1.214841e+003,1.224106e+000
1.215806e+003,1.117630e+000
1.216770e+003,-2.434586e+000
1.217734e+003,-5.609451e+000
1.218698e+003,-5.001892e+000
1.219663e+003,-3.120499e+000
1.220627e+003,-3.300888e+000
1.221591e+003,-5.854660e+000
1.222555e+003,-8.485519e+000
1.223520e+003,-9.036133e+000
1.224484e+003,-7.920929e+000
1.225448e+003,-7.370911e+000
1.226412e+003,-7.816956e+000
1.227376e+003,-7.952042e+000
1.228341e+003,-7.735153e+000
1.229305e+003,-7.351639e+000
1.230269e+003,-6.475052e+000
1.231233e+003,-5.633316e+000
1.232198e+003,-6.042206e+000
1.233162e+003,-8.032898e+000
1.234126e+003,-9.889557e+000
1.235090e+003,-1.040430e+001
1.236055e+003,-1.029514e+001
1.237019e+003,-1.033878e+001
1.237983e+003,-1.046349e+001
1.238947e+003,-1.018446e+001
1.239911e+003,-9.255692e+000
1.240876e+003,-8.298553e+000
1.241840e+003,-8.402863e+000
1.242804e+003,-9.662994e+000
1.243768e+003,-1.011998e+001
1.244733e+003,-8.721619e+000
1.245697e+003,-7.890411e+000
1.246661e+003,-8.540436e+000
1.247625e+003,-9.368103e+000
1.248590e+003,-9.121658e+000
1.249554e+003,-8.033417e+000
1.250518e+003,-7.414230e+000
1.251482e+003,-7.975372e+000
1.252447e+003,-8.575989e+000
1.253411e+003,-7.400436e+000
1.254375e+003,-5.325653e+000
1.255339e+003,-4.410751e+000
1.256303e+003,-4.656143e+000
1.257268e+003,-4.894424e+000
1.258232e+003,-4.435165e+000
1.259196e+003,-3.895721e+000
1.260160e+003,-4.842133e+000
1.261125e+003,-7.790146e+000
1.262089e+003,-8.293060e+000
1.263053e+003,-3.508072e+000
1.264017e+003,6.323700e-001
1.264982e+003,3.286880e+000
1.265946e+003,4.392548e+000
1.266910e+003,3.010040e+000
1.267874e+003,2.545166e-002
1.268839e+003,-1.682602e+000
1.269803e+003,-1.572571e-001
1.270767e+003,2.429337e+000
1.271731e+003,1.610733e+000
1.272695e+003,-2.451035e+000
1.273660e+003,-4.950851e+000
1.274624e+003,-5.508896e+000
1.275588e+003,-5.693832e+000
1.276552e+003,-6.397766e+000
1.277517e+003,-7.054886e+000
1.278481e+003,-6.392563e+000
1.279445e+003,-4.224442e+000
1.280409e+003,-3.069092e+000
1.281374e+003,-4.966614e+000
1.282338e+003,-6.330399e+000
1.283302e+003,-4.066010e+000
1.284266e+003,-1.085938e+000
1.285230e+003,-1.191757e+000
1.286195e+003,-4.455383e+000
1.287159e+003,-7.918259e+000
1.288123e+003,-9.103043e+000
1.289087e+003,-8.361221e+000
1.290052e+003,-6.858856e+000
1.291016e+003,-3.916901e+000
1.291980e+003,-3.219696e+000
1.292944e+003,-6.742783e+000
1.293909e+003,-9.937424e+000
1.294873e+003,-1.099854e+001
1.295837e+003,-1.059825e+001
1.296801e+003,-9.389709e+000
1.297766e+003,-7.602798e+000
1.298730e+003,-6.146332e+000
1.299694e+003,-5.513763e+000
1.300658e+003,-5.557037e+000
1.301622e+003,-6.440811e+000
1.302587e+003,-7.597595e+000
1.303551e+003,-8.077835e+000
1.304515e+003,-7.726852e+000
1.305479e+003,-7.236374e+000
1.306444e+003,-7.239075e+000
1.307408e+003,-7.579102e+000
1.308372e+003,-7.486176e+000
1.309336e+003,-6.632385e+000
1.310301e+003,-6.402420e+000
1.311265e+003,-7.532227e+000
1.312229e+003,-8.324081e+000
1.313193e+003,-8.489807e+000
1.314157e+003,-7.983414e+000
1.315122e+003,-6.206116e+000
1.316086e+003,-3.662292e+000
1.317050e+003,-2.167084e+000
1.318014e+003,-2.910385e+000
1.318979e+003,-4.855988e+000
1.319943e+003,-6.426559e+000
1.320907e+003,-7.566467e+000
1.321871e+003,-8.441681e+000
1.322836e+003,-9.294662e+000
1.323800e+003,-9.571442e+000
1.324764e+003,-8.521378e+000
1.325728e+003,-6.902023e+000
1.326693e+003,-6.153748e+000
1.327657e+003,-6.393066e+000
1.328621e+003,-6.395187e+000
1.329585e+003,-5.243698e+000
1.330549e+003,-4.205917e+000
1.331514e+003,-3.720596e+000
1.332478e+003,-4.212891e+000
1.333442e+003,-7.148209e+000
1.334406e+003,-1.137129e+001
1.335371e+003,-1.325201e+001
1.336335e+003,-1.069434e+001
1.337299e+003,-6.119659e+000
1.338263e+003,-4.185959e+000
1.339228e+003,-5.220963e+000
1.340192e+003,-5.777176e+000
1.341156e+003,-5.845367e+000
1.342120e+003,-5.506668e+000
1.343084e+003,-4.037643e+000
1.344049e+003,-3.012589e+000
1.345013e+003,-4.283340e+000
1.345977e+003,-6.952286e+000
1.346941e+003,-8.219589e+000
1.347906e+003,-7.041229e+000
1.348870e+003,-5.188019e+000
1.349834e+003,-3.984940e+000
1.350798e+003,-3.529892e+000
1.351763e+003,-4.016159e+000
1.352727e+003,-5.213791e+000
1.353691e+003,-5.922012e+000
1.354655e+003,-5.604721e+000
1.355620e+003,-4.976227e+000
1.356584e+003,-4.790115e+000
1.357548e+003,-4.987595e+000
1.358512e+003,-5.396912e+000
1.359476e+003,-6.212891e+000
1.360441e+003,-7.109329e+000
1.361405e+003,-8.422348e+000
1.362369e+003,-9.229874e+000
1.363333e+003,-8.464706e+000
1.364298e+003,-7.187820e+000
1.365262e+003,-7.224518e+000
1.366226e+003,-8.704437e+000
1.367190e+003,-9.771500e+000
1.368155e+003,-8.757599e+000
1.369119e+003,-6.297424e+000
1.370083e+003,-4.325363e+000
1.371047e+003,-2.778717e+000
1.372011e+003,-1.913315e+000
1.372976e+003,-2.032516e+000
1.373940e+003,-2.630142e+000
1.374904e+003,-3.871185e+000
1.375868e+003,-5.167557e+000
1.376833e+003,-5.990417e+000
1.377797e+003,-6.238678e+000
1.378761e+003,-5.450119e+000
1.379725e+003,-2.979034e+000
1.380690e+003,-7.653961e-001
1.381654e+003,-1.446533e+000
1.382618e+003,-3.285095e+000
1.383582e+003,-3.741379e+000
1.384547e+003,-2.885376e+000
1.385511e+003,-2.576035e+000
1.386475e+003,-3.909103e+000
1.387439e+003,-5.824402e+000
1.388403e+003,-6.813370e+000
1.389368e+003,-6.886765e+000
1.390332e+003,-6.104996e+000
1.391296e+003,-3.719925e+000
1.392260e+003,-1.840790e+000
1.393225e+003,-8.430328e-001
1.394189e+003,-5.514069e-001
1.395153e+003,-1.444809e+000
1.396117e+003,-2.728790e+000
1.397082e+003,-3.106552e+000
1.398046e+003,-2.354858e+000
1.399010e+003,-1.528366e+000
1.399974e+003,-1.657974e+000
1.400938e+003,-2.617752e+000
1.401903e+003,-3.707840e+000
1.402867e+003,-4.796875e+000
1.403831e+003,-5.080994e+000
1.404795e+003,-4.294952e+000
1.405760e+003,-3.389328e+000
1.406724e+003,-2.659500e+000
1.407688e+003,-2.369141e+000
1.408652e+003,-2.970535e+000
1.409617e+003,-4.074127e+000
1.410581e+003,-4.095917e+000
1.411545e+003,-2.192245e+000
1.412509e+003,-2.904053e-001
1.413474e+003,-6.026154e-001
1.414438e+003,-2.098053e+000
1.415402e+003,-2.861923e+000
1.416366e+003,-2.847290e+000
1.417330e+003,-2.700745e+000
1.418295e+003,-2.674576e+000
1.419259e+003,-2.574799e+000
1.420223e+003,-2.056808e+000
1.421187e+003,-1.329636e+000
1.422152e+003,-1.414948e+000
1.423116e+003,-2.608810e+000
1.424080e+003,-3.277557e+000
1.425044e+003,-2.703690e+000
1.426009e+003,-2.020218e+000
1.426973e+003,-1.791229e+000
1.427937e+003,-1.657593e+000
1.428901e+003,-8.848114e-001
1.429865e+003,4.015961e-001
1.430830e+003,1.133545e+000
1.431794e+003,5.751343e-001
1.432758e+003,-5.679779e-001
1.433722e+003,-7.404938e-001
1.434687e+003,3.048706e-001
1.435651e+003,1.256363e+000
1.436615e+003,1.868759e+000
1.437579e+003,1.985046e+000
1.438544e+003,1.348495e+000
1.439508e+003,5.592346e-001
1.440472e+003,-1.668701e-001
1.441436e+003,-5.464630e-001
1.442401e+003,-6.327820e-002
1.443365e+003,1.272217e+000
1.444329e+003,2.547150e+000
1.445293e+003,3.114868e+000
1.446257e+003,3.312225e+000
1.447222e+003,3.813629e+000
1.448186e+003,4.457016e+000
1.449150e+003,4.255417e+000
1.450114e+003,2.827026e+000
1.451079e+003,1.609344e+000
1.452043e+003,1.416290e+000
1.453007e+003,1.934067e+000
1.453971e+003,3.064285e+000
1.454936e+003,4.546585e+000
1.455900e+003,4.668671e+000
1.456864e+003,2.621002e+000
1.457828e+003,1.018906e+000
1.458792e+003,1.821030e+000
1.459757e+003,3.148422e+000
1.460721e+003,3.779968e+000
1.461685e+003,3.676056e+000
1.462649e+003,2.768509e+000
1.463614e+003,1.179443e+000
1.464578e+003,-4.017334e-001
1.465542e+003,-1.473022e+000
1.466506e+003,-2.036255e+000
1.467471e+003,-1.772690e+000
1.468435e+003,-2.396393e-001
1.469399e+003,5.299530e-001
1.470363e+003,-7.073059e-001
1.471328e+003,-1.359940e+000
1.472292e+003,-6.659088e-001
1.473256e+003,3.741455e-001
1.474220e+003,1.620209e+000
1.475184e+003,2.700226e+000
1.476149e+003,2.722916e+000
1.477113e+003,1.548599e+000
1.478077e+003,3.448181e-001
1.479041e+003,3.203430e-001
1.480006e+003,1.421860e+000
1.480970e+003,3.351868e+000
1.481934e+003,6.545959e+000
1.482898e+003,8.077728e+000
1.483863e+003,6.868210e+000
1.484827e+003,5.656601e+000
1.485791e+003,5.198959e+000
1.486755e+003,5.188385e+000
1.487719e+003,5.522339e+000
1.488684e+003,5.889435e+000
1.489648e+003,5.354889e+000
1.490612e+003,3.756485e+000
1.491576e+003,3.343567e+000
1.492541e+003,6.355942e+000
1.493505e+003,1.088890e+001
1.494469e+003,1.254510e+001
1.495433e+003,1.172958e+001
1.496398e+003,1.164473e+001
1.497362e+003,1.313988e+001
1.498326e+003,1.444850e+001
1.499290e+003,1.383142e+001
1.500255e+003,1.305717e+001
1.501219e+003,1.493892e+001
1.502183e+003,1.896503e+001
1.503147e+003,2.183125e+001
1.504111e+003,2.249194e+001
1.505076e+003,2.366396e+001
1.506040e+003,2.718823e+001
1.507004e+003,3.173349e+001
1.507968e+003,3.629305e+001
1.508933e+003,4.067975e+001
1.509897e+003,4.414091e+001
1.510861e+003,4.683908e+001
1.511825e+003,5.094907e+001
1.512790e+003,5.826555e+001
1.513754e+003,6.700223e+001
1.514718e+003,7.337834e+001
1.515682e+003,7.731567e+001
1.516646e+003,8.415726e+001
1.517611e+003,9.634505e+001
1.518575e+003,1.068466e+002
1.519539e+003,1.124781e+002
1.520503e+003,1.171206e+002
1.521468e+003,1.226396e+002
1.522432e+003,1.284107e+002
1.523396e+003,1.346003e+002
1.524360e+003,1.401232e+002
1.525325e+003,1.415167e+002
1.526289e+003,1.365052e+002
1.527253e+003,1.280967e+002
1.528217e+003,1.214885e+002
1.529182e+003,1.167971e+002
1.530146e+003,1.126351e+002
1.531110e+003,1.108765e+002
1.532074e+003,1.058122e+002
1.533039e+003,9.478494e+001
1.534003e+003,8.289330e+001
1.534967e+003,7.205060e+001
1.535931e+003,6.224258e+001
1.536896e+003,5.318681e+001
1.537860e+003,4.486877e+001
1.538824e+003,3.724370e+001
1.539788e+003,3.026192e+001
1.540752e+003,2.427127e+001
1.541717e+003,1.981148e+001
1.542681e+003,1.680377e+001
1.543645e+003,1.420468e+001
1.544609e+003,1.191771e+001
1.545573e+003,1.075586e+001
1.546538e+003,1.139165e+001
1.547502e+003,1.189247e+001
1.548466e+003,1.173744e+001
1.549430e+003,1.127644e+001
1.550395e+003,1.083539e+001
1.551359e+003,1.028210e+001
1.552323e+003,9.017853e+000
1.553287e+003,6.946655e+000
1.554252e+003,5.455734e+000
1.555216e+003,5.918472e+000
1.556180e+003,7.297714e+000
1.557144e+003,7.047012e+000
1.558109e+003,5.143402e+000
1.559073e+003,4.166824e+000
1.560037e+003,4.586807e+000
1.561001e+003,4.672516e+000
1.561966e+003,3.468094e+000
1.562930e+003,2.368546e+000
1.563894e+003,2.890671e+000
1.564858e+003,4.344376e+000
1.565823e+003,5.005783e+000
1.566787e+003,4.547775e+000
1.567751e+003,3.786819e+000
1.568715e+003,3.050888e+000
1.569679e+003,2.758530e+000
1.570644e+003,3.936829e+000
1.571608e+003,5.688446e+000
1.572572e+003,5.238541e+000
1.573536e+003,2.512543e+000
1.574500e+003,1.110703e+000
1.575465e+003,2.685745e+000
1.576429e+003,5.068558e+000
1.577393e+003,6.987930e+000
1.578357e+003,8.216461e+000
1.579322e+003,8.199615e+000
1.580286e+003,7.024506e+000
1.581250e+003,5.597214e+000
1.582214e+003,3.924438e+000
1.583179e+003,3.032242e+000
1.584143e+003,3.913803e+000
1.585107e+003,5.698715e+000
1.586071e+003,7.689087e+000
1.587036e+003,9.752609e+000
1.588000e+003,1.104462e+001
1.588964e+003,1.129045e+001
1.589928e+003,1.098090e+001
1.590893e+003,1.019424e+001
1.591857e+003,9.311844e+000
1.592821e+003,9.005219e+000
1.593785e+003,9.175888e+000
1.594750e+003,8.984421e+000
1.595714e+003,8.131149e+000
1.596678e+003,7.898132e+000
1.597642e+003,9.189468e+000
1.598606e+003,1.071397e+001
1.599571e+003,1.136345e+001
1.600535e+003,1.173396e+001
1.601499e+003,1.293230e+001
1.602463e+003,1.464915e+001
1.603427e+003,1.493242e+001
1.604392e+003,1.280789e+001
1.605356e+003,1.062863e+001
1.606320e+003,1.134355e+001
1.607284e+003,1.367311e+001
1.608249e+003,1.346745e+001
1.609213e+003,1.059702e+001
1.610177e+003,9.560150e+000
1.611141e+003,1.209314e+001
1.612106e+003,1.400429e+001
1.613070e+003,1.205000e+001
1.614034e+003,9.834930e+000
1.614998e+003,1.045972e+001
1.615963e+003,1.244141e+001
1.616927e+003,1.306107e+001
1.617891e+003,1.194484e+001
1.618855e+003,1.037274e+001
1.619820e+003,8.930786e+000
1.620784e+003,7.904709e+000
1.621748e+003,8.317566e+000
1.622712e+003,9.947540e+000
1.623677e+003,1.029050e+001
1.624641e+003,9.114273e+000
1.625605e+003,7.912125e+000
1.626569e+003,6.053116e+000
1.627533e+003,5.259705e+000
1.628498e+003,7.645706e+000
1.629462e+003,1.051163e+001
1.630426e+003,1.131055e+001
1.631390e+003,1.076012e+001
1.632354e+003,1.093452e+001
1.633319e+003,1.224507e+001
1.634283e+003,1.322299e+001
1.635247e+003,1.275845e+001
1.636211e+003,1.134705e+001
1.637176e+003,9.364151e+000
1.638140e+003,7.032272e+000
1.639104e+003,7.451355e+000
1.640068e+003,1.177000e+001
1.641033e+003,1.451520e+001
1.641997e+003,1.357341e+001
1.642961e+003,1.198340e+001
1.643925e+003,1.054974e+001
1.644890e+003,9.792786e+000
1.645854e+003,1.071420e+001
1.646818e+003,1.263031e+001
1.647782e+003,1.394893e+001
1.648747e+003,1.412962e+001
1.649711e+003,1.333904e+001
1.650675e+003,1.152139e+001
1.651639e+003,9.483566e+000
1.652604e+003,8.962723e+000
1.653568e+003,9.826111e+000
1.654532e+003,1.003632e+001
1.655496e+003,9.309875e+000
1.656460e+003,8.570374e+000
1.657425e+003,7.760651e+000
1.658389e+003,7.533493e+000
1.659353e+003,8.947754e+000
1.660317e+003,1.052655e+001
1.661281e+003,1.055269e+001
1.662246e+003,9.286819e+000
1.663210e+003,7.860580e+000
1.664174e+003,6.720886e+000
1.665138e+003,6.123642e+000
1.666103e+003,6.363022e+000
1.667067e+003,6.993622e+000
1.668031e+003,7.215698e+000
1.668995e+003,7.073715e+000
1.669960e+003,6.825500e+000
1.670924e+003,6.481079e+000
1.671888e+003,6.191513e+000
1.672852e+003,5.929092e+000
1.673817e+003,5.718246e+000
1.674781e+003,5.067566e+000
1.675745e+003,4.808136e+000
1.676709e+003,6.692154e+000
1.677674e+003,9.749924e+000
1.678638e+003,1.057381e+001
1.679602e+003,8.132874e+000
1.680566e+003,5.732010e+000
1.681531e+003,6.399292e+000
1.682495e+003,8.116486e+000
1.683459e+003,6.695251e+000
1.684423e+003,2.810974e+000
1.685387e+003,1.541443e+000
1.686352e+003,3.735840e+000
1.687316e+003,5.504501e+000
1.688280e+003,5.532654e+000
1.689244e+003,4.998077e+000
1.690208e+003,4.405853e+000
1.691173e+003,3.892242e+000
1.692137e+003,3.733154e+000
1.693101e+003,3.905380e+000
1.694065e+003,4.071213e+000
1.695030e+003,4.055710e+000
1.695994e+003,4.003159e+000
1.696958e+003,4.356491e+000
1.697922e+003,4.399155e+000
1.698887e+003,2.442154e+000
1.699851e+003,-4.137115e-001
1.700815e+003,-1.762238e-001
1.701779e+003,3.324768e+000
1.702744e+003,4.674728e+000
1.703708e+003,1.672516e+000
1.704672e+003,-1.254608e+000
1.705636e+003,-9.288940e-001
1.706601e+003,9.822693e-001
1.707565e+003,2.524857e+000
1.708529e+003,3.741714e+000
1.709493e+003,4.481583e+000
1.710458e+003,4.704941e+000
1.711422e+003,4.506027e+000
1.712386e+003,4.066711e+000
1.713350e+003,3.218674e+000
1.714314e+003,9.420013e-001
1.715279e+003,-1.536163e+000
1.716243e+003,-1.570496e+000
1.717207e+003,4.011993e-001
1.718171e+003,1.246780e+000
1.719135e+003,1.245880e-001
1.720100e+003,-1.018463e+000
1.721064e+003,-9.517517e-001
1.722028e+003,-2.457275e-001
1.722992e+003,6.043243e-001
1.723957e+003,1.548828e+000
1.724921e+003,1.629395e+000
1.725885e+003,5.442352e-001
1.726849e+003,-5.291901e-001
1.727814e+003,-2.074493e+000
1.728778e+003,-2.302017e+000
1.729742e+003,8.852234e-001
1.730706e+003,4.464493e+000
1.731671e+003,5.348831e+000
1.732635e+003,4.152832e+000
1.733599e+003,2.699631e+000
1.734563e+003,1.530106e+000
1.735528e+003,2.548370e-001
1.736492e+003,-1.381912e+000
1.737456e+003,-2.459122e+000
1.738420e+003,-1.752792e+000
1.739385e+003,2.619934e-002
1.740349e+003,5.461578e-001
1.741313e+003,-3.604736e-001
1.742277e+003,-1.294342e+000
1.743241e+003,-2.573456e+000
1.744206e+003,-3.220627e+000
1.745170e+003,-2.882141e+000
1.746134e+003,-2.257477e+000
1.747098e+003,-1.412888e+000
1.748063e+003,-7.432709e-001
1.749027e+003,-7.055206e-001
1.749991e+003,-1.180252e+000
1.750955e+003,-1.884567e+000
1.751919e+003,-2.647141e+000
1.752884e+003,-3.183487e+000
1.753848e+003,-3.256302e+000
1.754812e+003,-2.992020e+000
1.755776e+003,-2.503754e+000
1.756741e+003,-1.724014e+000
1.757705e+003,-1.482300e+000
1.758669e+003,-2.191391e+000
1.759633e+003,-2.459854e+000
1.760598e+003,-1.635178e+000
1.761562e+003,-1.266953e+000
1.762526e+003,-2.073318e+000
1.763490e+003,-3.018402e+000
1.764455e+003,-3.445206e+000
1.765419e+003,-3.456467e+000
1.766383e+003,-3.355240e+000
1.767347e+003,-3.223648e+000
1.768312e+003,-2.965836e+000
1.769276e+003,-2.565521e+000
1.770240e+003,-1.956558e+000
1.771204e+003,-6.971283e-001
1.772168e+003,7.661438e-001
1.773133e+003,1.057587e+000
1.774097e+003,2.941742e-001
1.775061e+003,-2.806091e-001
1.776025e+003,-6.104736e-001
1.776990e+003,-1.181519e+000
1.777954e+003,-2.369675e+000
1.778918e+003,-2.989670e+000
1.779882e+003,-1.668808e+000
1.780846e+003,9.393311e-002
1.781811e+003,1.004486e-001
1.782775e+003,-1.032135e+000
1.783739e+003,-1.215179e+000
1.784703e+003,-2.964783e-002
1.785668e+003,9.949951e-001
1.786632e+003,1.106613e+000
1.787596e+003,7.797546e-001
1.788560e+003,4.642639e-001
1.789525e+003,1.194153e-001
1.790489e+003,-5.638733e-001
1.791453e+003,-1.496368e+000
1.792417e+003,-2.342606e+000
1.793382e+003,-2.972610e+000
1.794346e+003,-2.980240e+000
1.795310e+003,-2.096664e+000
1.796274e+003,-1.447098e+000
1.797239e+003,-2.395355e+000
1.798203e+003,-4.165421e+000
1.799167e+003,-4.602570e+000
1.800131e+003,-3.641403e+000
1.801095e+003,-3.241135e+000
1.802060e+003,-3.287643e+000
1.803024e+003,-3.622162e+000
1.803988e+003,-5.190338e+000
1.804952e+003,-6.006805e+000
1.805917e+003,-4.238739e+000
1.806881e+003,-2.033020e+000
1.807845e+003,-1.983978e+000
1.808809e+003,-3.044495e+000
1.809773e+003,-2.317657e+000
1.810738e+003,4.434814e-001
1.811702e+003,2.546097e+000
1.812666e+003,2.309372e+000
1.813630e+003,1.023895e+000
1.814595e+003,3.694763e-001
1.815559e+003,1.655273e-001
1.816523e+003,-1.137695e-001
1.817487e+003,-4.069977e-001
1.818452e+003,-1.243347e+000
1.819416e+003,-2.895309e+000
1.820380e+003,-4.123413e+000
1.821344e+003,-5.023087e+000
1.822309e+003,-5.006363e+000
1.823273e+003,-2.966187e+000
1.824237e+003,-3.431091e-001
1.825201e+003,1.665894e+000
1.826166e+003,2.885651e+000
1.827130e+003,3.005035e+000
1.828094e+003,1.972748e+000
1.829058e+003,6.976318e-001
1.830022e+003,-7.050171e-001
1.830987e+003,-1.377151e+000
1.831951e+003,4.463196e-002
1.832915e+003,2.156891e+000
1.833879e+003,3.165146e+000
1.834844e+003,3.026108e+000
1.835808e+003,1.286484e+000
1.836772e+003,-1.717102e+000
1.837736e+003,-2.645050e+000
1.838700e+003,1.228333e-002
1.839665e+003,2.354187e+000
1.840629e+003,6.091919e-001
1.841593e+003,-3.023499e+000
1.842557e+003,-3.959991e+000
1.843522e+003,-2.239731e+000
1.844486e+003,-4.915009e-001
1.845450e+003,2.116028e+000
1.846414e+003,3.336075e+000
1.847379e+003,1.691132e+000
1.848343e+003,3.589478e-001
1.849307e+003,1.105011e+000
1.850271e+003,1.716431e+000
1.851236e+003,8.822632e-002
1.852200e+003,-2.285980e+000
1.853164e+003,-3.290970e+000
1.854128e+003,-3.041885e+000
1.855093e+003,-2.985443e+000
1.856057e+003,-3.506470e+000
1.857021e+003,-3.329895e+000
1.857985e+003,-1.312515e+000
1.858949e+003,1.279831e+000
1.859914e+003,2.273102e+000
1.860878e+003,1.941437e+000
1.861842e+003,1.586411e+000
1.862806e+003,1.175751e+000
1.863771e+003,1.049545e+000
1.864735e+003,1.309448e+000
1.865699e+003,1.428055e+000
1.866663e+003,1.201096e+000
1.867627e+003,8.933563e-001
1.868592e+003,5.201263e-001
1.869556e+003,1.670380e-001
1.870520e+003,4.303741e-001
1.871484e+003,1.107086e+000
1.872449e+003,7.034454e-001
1.873413e+003,-1.153015e+000
1.874377e+003,-2.061264e+000
1.875341e+003,-8.844910e-001
1.876306e+003,3.131256e-001
1.877270e+003,5.419006e-001
1.878234e+003,1.096039e-001
1.879198e+003,-9.311523e-001
1.880163e+003,-2.168884e+000
1.881127e+003,-3.366379e+000
1.882091e+003,-4.086243e+000
1.883055e+003,-2.831680e+000
1.884020e+003,7.157288e-001
1.884984e+003,3.876205e+000
1.885948e+003,4.213867e+000
1.886912e+003,2.743713e+000
1.887876e+003,1.322006e+000
1.888841e+003,2.055359e-002
1.889805e+003,-1.972961e-001
1.890769e+003,9.530334e-001
1.891733e+003,1.656906e+000
1.892698e+003,1.622986e+000
1.893662e+003,1.204285e+000
1.894626e+003,-4.121399e-002
1.895590e+003,-8.256531e-001
1.896554e+003,4.971008e-001
1.897519e+003,2.322296e+000
1.898483e+003,2.449844e+000
1.899447e+003,1.235229e+000
1.900411e+003,4.487915e-001
1.901376e+003,4.298706e-001
1.902340e+003,4.968109e-001
1.903304e+003,4.753723e-001
1.904268e+003,3.077393e-001
1.905233e+003,-1.403656e-001
1.906197e+003,-5.817108e-001
1.907161e+003,-1.123962e+000
1.908125e+003,-1.194656e+000
1.909090e+003,7.775726e-001
1.910054e+003,4.070892e+000
1.911018e+003,5.723160e+000
1.911982e+003,4.927765e+000
1.912947e+003,3.645432e+000
1.913911e+003,3.286148e+000
1.914875e+003,3.372772e+000
1.915839e+003,3.123779e+000
1.916803e+003,2.584091e+000
1.917768e+003,2.450470e+000
1.918732e+003,2.920471e+000
1.919696e+003,2.934158e+000
1.920660e+003,2.360809e+000
1.921625e+003,1.806671e+000
1.922589e+003,1.060349e+000
1.923553e+003,7.650299e-001
1.924517e+003,1.681061e+000
1.925481e+003,2.855392e+000
1.926446e+003,3.608871e+000
1.927410e+003,3.966553e+000
1.928374e+003,3.986328e+000
1.929338e+003,3.615128e+000
1.930303e+003,2.734619e+000
1.931267e+003,1.072632e+000
1.932231e+003,1.722412e-001
1.933195e+003,1.034576e+000
1.934160e+003,2.306854e+000
1.935124e+003,3.309219e+000
1.936088e+003,3.863220e+000
1.937052e+003,3.688797e+000
1.938017e+003,3.129745e+000
1.938981e+003,2.938019e+000
1.939945e+003,3.058609e+000
1.940909e+003,2.392319e+000
1.941874e+003,5.728149e-001
1.942838e+003,-6.868439e-001
1.943802e+003,3.255463e-001
1.944766e+003,2.717545e+000
1.945730e+003,4.684586e+000
1.946695e+003,6.114609e+000
1.947659e+003,6.449066e+000
1.948623e+003,5.530762e+000
1.949587e+003,5.020523e+000
1.950552e+003,5.179031e+000
1.951516e+003,5.713837e+000
1.952480e+003,7.017151e+000
1.953444e+003,7.562958e+000
1.954408e+003,5.448288e+000
1.955373e+003,2.698669e+000
1.956337e+003,2.713409e+000
1.957301e+003,4.667740e+000
1.958265e+003,5.082520e+000
1.959230e+003,3.637329e+000
1.960194e+003,2.904892e+000
1.961158e+003,3.468933e+000
1.962122e+003,4.080246e+000
1.963087e+003,4.746613e+000
1.964051e+003,5.038437e+000
1.965015e+003,4.155319e+000
1.965979e+003,3.452682e+000
1.966944e+003,4.672867e+000
1.967908e+003,6.754639e+000
1.968872e+003,7.798203e+000
1.969836e+003,7.536285e+000
1.970801e+003,6.480194e+000
1.971765e+003,4.963425e+000
1.972729e+003,3.964859e+000
1.973693e+003,4.349579e+000
1.974657e+003,5.532242e+000
1.975622e+003,7.077621e+000
1.976586e+003,8.508438e+000
1.977550e+003,8.346741e+000
1.978514e+003,6.932297e+000
1.979479e+003,6.223816e+000
1.980443e+003,6.435486e+000
1.981407e+003,6.144424e+000
1.982371e+003,4.818390e+000
1.983335e+003,3.693405e+000
1.984300e+003,3.612686e+000
1.985264e+003,4.343872e+000
1.986228e+003,5.754898e+000
1.987192e+003,7.556702e+000
1.988157e+003,8.185272e+000
1.989121e+003,7.335709e+000
1.990085e+003,7.162338e+000
1.991049e+003,8.859131e+000
1.992014e+003,8.925308e+000
1.992978e+003,5.299820e+000
1.993942e+003,2.125504e+000
1.994906e+003,7.244110e-001
1.995871e+003,3.555298e-001
1.996835e+003,5.850830e-001
1.997799e+003,1.508957e+000
1.998763e+003,3.905624e+000
1.999728e+003,7.114410e+000
