5.003444e+002,2.162913e+002
5.013087e+002,2.170908e+002
5.022729e+002,2.161069e+002
5.032371e+002,2.140264e+002
5.042014e+002,2.111257e+002
5.051656e+002,2.076569e+002
5.061298e+002,2.037892e+002
5.070941e+002,1.993558e+002
5.080583e+002,1.935747e+002
5.090225e+002,1.898676e+002
5.099868e+002,1.889344e+002
5.109510e+002,1.885283e+002
5.119152e+002,1.877168e+002
5.128795e+002,1.864890e+002
5.138437e+002,1.851166e+002
5.148079e+002,1.852075e+002
5.157722e+002,1.841686e+002
5.167364e+002,1.796706e+002
5.177006e+002,1.719168e+002
5.186649e+002,1.637045e+002
5.196291e+002,1.590608e+002
5.205933e+002,1.569310e+002
5.215576e+002,1.550127e+002
5.225218e+002,1.526898e+002
5.234860e+002,1.507468e+002
5.244503e+002,1.514198e+002
5.254145e+002,1.568141e+002
5.263787e+002,1.590453e+002
5.273430e+002,1.563087e+002
5.283072e+002,1.516647e+002
5.292714e+002,1.493348e+002
5.302357e+002,1.505084e+002
5.311999e+002,1.491822e+002
5.321641e+002,1.439180e+002
5.331284e+002,1.383782e+002
5.340926e+002,1.352801e+002
5.350568e+002,1.354122e+002
5.360211e+002,1.355858e+002
5.369853e+002,1.344034e+002
5.379495e+002,1.323232e+002
5.389138e+002,1.288412e+002
5.398780e+002,1.238965e+002
5.408422e+002,1.182716e+002
5.418065e+002,1.143715e+002
5.427707e+002,1.119962e+002
5.437349e+002,1.100695e+002
5.446992e+002,1.082112e+002
5.456634e+002,1.065237e+002
5.466276e+002,1.056008e+002
5.475919e+002,1.064871e+002
5.485561e+002,1.074769e+002
5.495203e+002,1.097393e+002
5.504846e+002,1.111674e+002
5.514488e+002,1.083361e+002
5.524130e+002,9.798718e+001
5.533773e+002,8.895496e+001
5.543415e+002,8.589624e+001
5.553057e+002,8.604626e+001
5.562700e+002,8.685681e+001
5.572342e+002,8.666113e+001
5.581984e+002,8.559521e+001
5.591627e+002,8.435291e+001
5.601269e+002,8.331244e+001
5.610911e+002,8.256415e+001
5.620554e+002,8.202472e+001
5.630196e+002,8.133673e+001
5.639838e+002,7.932269e+001
5.649481e+002,7.460797e+001
5.659123e+002,7.064459e+001
5.668765e+002,6.940533e+001
5.678408e+002,7.019946e+001
5.688050e+002,7.001306e+001
5.697692e+002,6.617810e+001
5.707335e+002,6.202332e+001
5.716977e+002,5.790430e+001
5.726619e+002,5.477148e+001
5.736262e+002,5.426196e+001
5.745904e+002,5.808630e+001
5.755546e+002,6.298401e+001
5.765189e+002,6.290790e+001
5.774831e+002,5.936835e+001
5.784473e+002,5.541876e+001
5.794116e+002,5.339911e+001
5.803758e+002,5.358856e+001
5.813400e+002,5.488824e+001
5.823043e+002,5.750922e+001
5.832685e+002,5.817969e+001
5.842327e+002,5.500317e+001
5.851970e+002,4.918073e+001
5.861612e+002,4.610443e+001
5.871254e+002,4.929047e+001
5.880897e+002,5.138739e+001
5.890539e+002,4.978601e+001
5.900181e+002,4.606055e+001
5.909824e+002,4.344012e+001
5.919466e+002,4.478125e+001
5.929108e+002,4.646918e+001
5.938751e+002,4.398724e+001
5.948393e+002,3.930402e+001
5.958035e+002,3.544940e+001
5.967678e+002,3.471033e+001
5.977320e+002,3.688959e+001
5.986962e+002,3.900433e+001
5.996605e+002,4.046741e+001
6.006247e+002,4.137195e+001
6.015889e+002,4.216229e+001
6.025532e+002,4.280133e+001
6.035174e+002,4.179950e+001
6.044816e+002,3.716754e+001
6.054459e+002,3.310864e+001
6.064101e+002,2.966498e+001
6.073743e+002,2.722632e+001
6.083386e+002,2.666425e+001
6.093028e+002,2.951294e+001
6.102670e+002,3.258759e+001
6.112313e+002,3.343073e+001
6.121955e+002,3.275946e+001
6.131597e+002,3.141431e+001
6.141240e+002,2.996490e+001
6.150882e+002,2.835059e+001
6.160524e+002,2.610651e+001
6.170167e+002,2.363959e+001
6.179809e+002,2.296960e+001
6.189451e+002,2.539587e+001
6.199094e+002,3.002826e+001
6.208736e+002,3.208942e+001
6.218378e+002,2.912531e+001
6.228021e+002,2.746075e+001
6.237663e+002,2.861182e+001
6.247305e+002,3.133051e+001
6.256948e+002,3.328912e+001
6.266590e+002,3.291138e+001
6.276232e+002,3.178094e+001
6.285875e+002,3.238916e+001
6.295517e+002,3.313605e+001
6.305159e+002,3.154047e+001
6.314802e+002,2.627441e+001
6.324444e+002,1.918103e+001
6.334086e+002,1.618103e+001
6.343729e+002,1.658569e+001
6.353371e+002,1.872247e+001
6.363013e+002,2.242163e+001
6.372656e+002,2.641748e+001
6.382298e+002,2.655438e+001
6.391940e+002,1.715271e+001
6.401583e+002,1.082294e+001
6.411225e+002,1.039886e+001
6.420867e+002,1.288257e+001
6.430510e+002,1.452075e+001
6.440152e+002,1.395679e+001
6.449794e+002,1.181714e+001
6.459437e+002,7.171326e+000
6.469079e+002,2.373047e+000
6.478721e+002,-6.304932e-001
6.488364e+002,-1.038147e+000
6.498006e+002,5.059204e-001
6.507648e+002,3.685730e+000
6.517291e+002,7.336670e+000
6.526933e+002,8.693848e+000
6.536575e+002,7.104736e+000
6.546218e+002,3.914185e+000
6.555860e+002,1.768494e+000
6.565502e+002,1.606628e+000
6.575145e+002,2.265015e-001
6.584787e+002,-4.189392e+000
6.594429e+002,-8.158386e+000
6.604072e+002,-8.184082e+000
6.613714e+002,-3.290405e+000
6.623356e+002,5.386963e-001
6.632999e+002,-1.493347e+000
6.642641e+002,-4.339905e+000
6.652283e+002,-4.918640e+000
6.661926e+002,-2.921631e+000
6.671568e+002,-7.952881e-002
6.681210e+002,1.503601e+000
6.690853e+002,1.649048e+000
6.700495e+002,4.710083e-001
6.710137e+002,-1.830261e+000
6.719780e+002,-3.343262e+000
6.729422e+002,-1.858948e+000
6.739064e+002,3.441223e+000
6.748707e+002,5.390076e+000
6.758349e+002,2.442566e+000
6.767991e+002,-1.197632e+000
6.777634e+002,-3.793213e+000
6.787276e+002,-4.949036e+000
6.796918e+002,-4.825378e+000
6.806561e+002,-3.056519e+000
6.816203e+002,-1.431152e+000
6.825845e+002,-6.932373e-001
6.835488e+002,-5.237427e-001
6.845130e+002,-3.807373e-001
6.854772e+002,1.835938e-001
6.864415e+002,1.666077e+000
6.874057e+002,5.101196e+000
6.883699e+002,9.041809e+000
6.893342e+002,1.080505e+001
6.902984e+002,8.909851e+000
6.912626e+002,4.104614e+000
6.922269e+002,4.087524e-001
6.931911e+002,-1.503052e+000
6.941553e+002,-1.547424e+000
6.951196e+002,9.974365e-001
6.960838e+002,4.255066e+000
6.970480e+002,5.515808e+000
6.980123e+002,3.698425e+000
6.989765e+002,1.925537e+000
6.999407e+002,7.534790e-001
7.009050e+002,4.367676e-001
7.018692e+002,1.980957e+000
7.028334e+002,5.226196e+000
7.037977e+002,7.871582e+000
7.047619e+002,5.676086e+000
7.057261e+002,1.016541e+000
7.066904e+002,-2.185364e+000
7.076546e+002,-3.332336e+000
7.086188e+002,-3.319214e+000
7.095831e+002,-3.673157e+000
7.105473e+002,-5.582153e+000
7.115115e+002,-4.526245e+000
7.124758e+002,2.649475e+000
7.134400e+002,8.746216e+000
7.144042e+002,8.781921e+000
7.153685e+002,2.954651e+000
7.163327e+002,-1.900085e+000
7.172969e+002,-1.698853e+000
7.182612e+002,-5.899658e-001
7.192254e+002,3.402100e-001
7.201896e+002,5.281982e-001
7.211539e+002,-6.679077e-001
7.221181e+002,-3.948242e+000
7.230823e+002,-8.007080e+000
7.240466e+002,-9.498047e+000
7.250108e+002,-8.437195e+000
7.259750e+002,-5.904663e+000
7.269393e+002,-2.806763e+000
7.279035e+002,1.807251e-001
7.288677e+002,2.040222e+000
7.298320e+002,4.019104e+000
7.307962e+002,5.382751e+000
7.317604e+002,5.633667e+000
7.327247e+002,5.549622e+000
7.336889e+002,5.848816e+000
7.346531e+002,6.097961e+000
7.356174e+002,5.314270e+000
7.365816e+002,3.627258e+000
7.375458e+002,2.285645e+000
7.385101e+002,2.530640e+000
7.394743e+002,4.393860e+000
7.404385e+002,6.526489e+000
7.414028e+002,6.732422e+000
7.423670e+002,4.055847e+000
7.433312e+002,-5.201416e-001
7.442955e+002,-6.482849e+000
7.452597e+002,-1.072845e+001
7.462239e+002,-9.687134e+000
7.471882e+002,-1.957153e+000
7.481524e+002,4.005676e+000
7.491166e+002,7.103638e+000
7.500809e+002,8.542664e+000
7.510451e+002,8.920044e+000
7.520093e+002,8.081360e+000
7.529736e+002,5.019470e+000
7.539378e+002,-2.458984e+000
7.549020e+002,-8.030029e+000
7.558663e+002,-7.164124e+000
7.568306e+002,-2.623962e+000
7.577948e+002,1.802002e+000
7.587590e+002,3.630615e+000
7.597233e+002,3.501343e+000
7.606875e+002,4.673828e+000
7.616517e+002,7.282410e+000
7.626160e+002,8.193909e+000
7.635802e+002,5.825073e+000
7.645444e+002,2.371399e+000
7.655087e+002,2.687561e+000
7.664729e+002,9.615173e+000
7.674371e+002,1.366760e+001
7.684014e+002,1.302985e+001
7.693656e+002,1.096368e+001
7.703298e+002,9.104187e+000
7.712941e+002,7.940674e+000
7.722583e+002,7.762146e+000
7.732225e+002,9.796387e+000
7.741868e+002,1.188721e+001
7.751510e+002,1.157910e+001
7.761152e+002,9.871338e+000
7.770795e+002,9.382446e+000
7.780437e+002,1.237982e+001
7.790079e+002,1.811774e+001
7.799722e+002,2.176166e+001
7.809364e+002,2.370313e+001
7.819006e+002,2.354321e+001
7.828649e+002,2.008765e+001
7.838291e+002,1.489905e+001
7.847933e+002,1.242108e+001
7.857576e+002,1.365411e+001
7.867218e+002,1.473438e+001
7.876860e+002,1.634851e+001
7.886503e+002,1.762018e+001
7.896145e+002,1.697815e+001
7.905787e+002,1.430756e+001
7.915430e+002,1.272845e+001
7.925072e+002,1.708154e+001
7.934714e+002,2.252637e+001
7.944357e+002,2.403143e+001
7.953999e+002,2.195239e+001
7.963641e+002,1.934070e+001
7.973284e+002,1.942065e+001
7.982926e+002,2.240894e+001
7.992568e+002,2.433411e+001
8.002211e+002,2.408594e+001
8.011853e+002,2.263885e+001
8.021495e+002,2.065533e+001
8.031138e+002,1.919397e+001
8.040780e+002,1.976123e+001
8.050422e+002,2.347467e+001
8.060065e+002,2.615747e+001
8.069707e+002,2.551190e+001
8.079349e+002,2.327368e+001
8.088992e+002,2.126532e+001
8.098634e+002,2.040118e+001
8.108276e+002,2.034302e+001
8.117919e+002,2.004773e+001
8.127561e+002,1.909619e+001
8.137203e+002,1.886005e+001
8.146846e+002,2.000970e+001
8.156488e+002,2.117548e+001
8.166130e+002,2.002551e+001
8.175773e+002,1.553833e+001
8.185415e+002,1.404309e+001
8.195057e+002,1.733264e+001
8.204700e+002,1.979321e+001
8.214342e+002,1.883270e+001
8.223984e+002,1.565259e+001
8.233627e+002,1.373358e+001
8.243269e+002,1.507397e+001
8.252911e+002,1.663239e+001
8.262554e+002,1.578790e+001
8.272196e+002,1.450269e+001
8.281838e+002,1.505713e+001
8.291481e+002,1.805017e+001
8.301123e+002,2.186572e+001
8.310765e+002,2.364227e+001
8.320408e+002,2.332825e+001
8.330050e+002,2.338458e+001
8.339692e+002,2.429266e+001
8.349335e+002,2.489996e+001
8.358977e+002,2.357672e+001
8.368619e+002,1.999805e+001
8.378262e+002,1.927063e+001
8.387904e+002,2.495636e+001
8.397546e+002,2.865283e+001
8.407189e+002,2.669775e+001
8.416831e+002,2.182904e+001
8.426473e+002,1.853857e+001
8.436116e+002,1.861493e+001
8.445758e+002,2.205029e+001
8.455400e+002,3.199493e+001
8.465043e+002,4.233984e+001
8.474685e+002,4.559863e+001
8.484327e+002,4.075775e+001
8.493970e+002,3.320093e+001
8.503612e+002,3.125897e+001
8.513254e+002,3.574170e+001
8.522897e+002,3.970459e+001
8.532539e+002,4.357916e+001
8.542181e+002,4.582587e+001
8.551824e+002,4.529651e+001
8.561466e+002,4.294110e+001
8.571108e+002,4.225592e+001
8.580751e+002,4.272290e+001
8.590393e+002,4.408466e+001
8.600035e+002,4.766809e+001
8.609678e+002,5.224927e+001
8.619320e+002,5.621948e+001
8.628962e+002,5.890472e+001
8.638605e+002,6.138702e+001
8.648247e+002,6.567572e+001
8.657889e+002,7.081006e+001
8.667532e+002,7.541229e+001
8.677174e+002,7.927002e+001
8.686816e+002,8.129791e+001
8.696459e+002,7.975549e+001
8.706101e+002,7.391852e+001
8.715743e+002,7.246210e+001
8.725386e+002,7.938568e+001
8.735028e+002,8.527130e+001
8.744670e+002,8.629871e+001
8.754313e+002,8.426630e+001
8.763955e+002,8.305762e+001
8.773597e+002,8.402496e+001
8.783240e+002,8.675604e+001
8.792882e+002,9.288458e+001
8.802524e+002,9.870227e+001
8.812167e+002,1.000471e+002
8.821809e+002,9.685944e+001
8.831451e+002,9.277502e+001
8.841094e+002,9.254059e+001
8.850736e+002,9.661194e+001
8.860378e+002,1.023876e+002
8.870021e+002,1.102401e+002
8.879663e+002,1.171227e+002
8.889305e+002,1.209639e+002
8.898948e+002,1.220193e+002
8.908590e+002,1.222794e+002
8.918232e+002,1.211127e+002
8.927875e+002,1.214643e+002
8.937517e+002,1.250416e+002
8.947159e+002,1.294303e+002
8.956802e+002,1.318047e+002
8.966444e+002,1.315983e+002
8.976086e+002,1.315416e+002
8.985729e+002,1.359963e+002
8.995371e+002,1.419339e+002
9.005013e+002,1.432772e+002
9.014656e+002,1.408144e+002
9.024298e+002,1.378102e+002
9.033940e+002,1.362678e+002
9.043583e+002,1.357263e+002
9.053225e+002,1.359392e+002
9.062867e+002,1.379689e+002
9.072510e+002,1.385204e+002
9.082152e+002,1.374557e+002
9.091794e+002,1.361633e+002
9.101437e+002,1.356459e+002
9.111079e+002,1.359991e+002
9.120721e+002,1.371358e+002
9.130364e+002,1.390466e+002
9.140006e+002,1.407753e+002
9.149648e+002,1.426703e+002
9.159291e+002,1.446288e+002
9.168933e+002,1.460546e+002
9.178575e+002,1.462731e+002
9.188218e+002,1.450776e+002
9.197860e+002,1.424171e+002
9.207502e+002,1.380283e+002
9.217145e+002,1.333252e+002
9.226787e+002,1.281165e+002
9.236429e+002,1.244099e+002
9.246072e+002,1.255637e+002
9.255714e+002,1.327415e+002
9.265356e+002,1.363488e+002
9.274999e+002,1.310021e+002
9.284641e+002,1.255444e+002
9.294283e+002,1.240108e+002
9.303926e+002,1.247328e+002
9.313568e+002,1.237374e+002
9.323210e+002,1.188179e+002
9.332853e+002,1.127553e+002
9.342495e+002,1.100822e+002
9.352137e+002,1.092005e+002
9.361780e+002,1.087719e+002
9.371422e+002,1.088463e+002
9.381064e+002,1.090607e+002
9.390707e+002,1.081981e+002
9.400349e+002,1.051934e+002
9.409991e+002,1.045269e+002
9.419634e+002,1.081529e+002
9.429276e+002,1.109984e+002
9.438918e+002,1.122816e+002
9.448561e+002,1.120055e+002
9.458203e+002,1.098759e+002
9.467845e+002,1.055318e+002
9.477488e+002,1.016164e+002
9.487130e+002,9.982690e+001
9.496772e+002,9.923584e+001
9.506415e+002,9.966833e+001
9.516057e+002,1.007423e+002
9.525699e+002,1.014480e+002
9.535342e+002,1.006670e+002
9.544984e+002,9.867822e+001
9.554626e+002,1.006235e+002
9.564269e+002,1.087599e+002
9.573911e+002,1.137843e+002
9.583553e+002,1.109781e+002
9.593196e+002,1.042604e+002
9.602838e+002,1.002114e+002
9.612480e+002,9.965442e+001
9.622123e+002,9.850500e+001
9.631765e+002,9.478864e+001
9.641407e+002,9.137952e+001
9.651050e+002,8.928394e+001
9.660692e+002,8.826276e+001
9.670334e+002,8.808472e+001
9.679977e+002,8.894055e+001
9.689619e+002,9.041980e+001
9.699261e+002,8.920135e+001
9.708904e+002,8.645276e+001
9.718546e+002,8.763824e+001
9.728188e+002,9.407159e+001
9.737831e+002,1.033293e+002
9.747473e+002,1.126348e+002
9.757115e+002,1.220637e+002
9.766758e+002,1.321850e+002
9.776400e+002,1.485817e+002
9.786042e+002,1.597568e+002
9.795685e+002,1.621251e+002
9.805327e+002,1.571656e+002
9.814969e+002,1.458350e+002
9.824612e+002,1.287425e+002
9.834254e+002,1.120568e+002
9.843896e+002,1.004064e+002
9.853539e+002,9.249298e+001
9.863181e+002,8.870636e+001
9.872823e+002,8.779883e+001
9.882466e+002,8.636572e+001
9.892108e+002,8.199017e+001
9.901750e+002,7.602563e+001
9.911393e+002,7.330231e+001
9.921035e+002,7.459283e+001
9.930677e+002,7.515814e+001
9.940320e+002,7.389459e+001
9.949962e+002,7.360236e+001
9.959604e+002,7.773578e+001
9.969247e+002,8.635992e+001
9.978889e+002,9.402942e+001
9.988531e+002,9.634308e+001
9.998174e+002,9.772131e+001
1.000782e+003,1.020231e+002
1.001746e+003,1.077155e+002
1.002710e+003,1.124608e+002
1.003674e+003,1.150078e+002
1.004639e+003,1.153196e+002
1.005603e+003,1.130828e+002
1.006567e+003,1.077953e+002
1.007531e+003,1.048379e+002
1.008495e+003,1.053819e+002
1.009460e+003,1.059543e+002
1.010424e+003,1.046411e+002
1.011388e+003,1.019014e+002
1.012352e+003,9.899707e+001
1.013317e+003,9.540503e+001
1.014281e+003,9.238867e+001
1.015245e+003,9.171997e+001
1.016209e+003,9.003729e+001
1.017174e+003,8.389789e+001
1.018138e+003,7.423956e+001
1.019102e+003,6.561987e+001
1.020066e+003,6.211469e+001
1.021031e+003,6.172943e+001
1.021995e+003,5.745642e+001
1.022959e+003,4.964343e+001
1.023923e+003,4.188721e+001
1.024887e+003,3.502600e+001
1.025852e+003,2.909174e+001
1.026816e+003,2.448315e+001
1.027780e+003,2.185645e+001
1.028744e+003,1.935889e+001
1.029709e+003,1.578339e+001
1.030673e+003,1.333972e+001
1.031637e+003,1.309760e+001
1.032601e+003,1.392413e+001
1.033566e+003,1.467773e+001
1.034530e+003,1.505713e+001
1.035494e+003,1.487292e+001
1.036458e+003,1.307751e+001
1.037422e+003,1.067719e+001
1.038387e+003,9.369019e+000
1.039351e+003,9.131470e+000
1.040315e+003,9.930603e+000
1.041279e+003,1.209528e+001
1.042244e+003,1.540265e+001
1.043208e+003,1.771429e+001
1.044172e+003,1.778735e+001
1.045136e+003,1.789227e+001
1.046101e+003,1.822113e+001
1.047065e+003,1.892377e+001
1.048029e+003,2.014087e+001
1.048993e+003,2.161078e+001
1.049958e+003,2.294861e+001
1.050922e+003,2.442493e+001
1.051886e+003,2.540796e+001
1.052850e+003,2.446881e+001
1.053814e+003,2.288574e+001
1.054779e+003,2.244885e+001
1.055743e+003,2.337903e+001
1.056707e+003,2.452051e+001
1.057671e+003,2.451306e+001
1.058636e+003,2.324695e+001
1.059600e+003,2.192236e+001
1.060564e+003,2.038995e+001
1.061528e+003,2.024219e+001
1.062493e+003,2.204596e+001
1.063457e+003,2.417407e+001
1.064421e+003,2.547900e+001
1.065385e+003,2.598608e+001
1.066349e+003,2.526953e+001
1.067314e+003,2.211957e+001
1.068278e+003,1.885822e+001
1.069242e+003,1.679681e+001
1.070206e+003,1.608148e+001
1.071171e+003,1.708783e+001
1.072135e+003,1.951471e+001
1.073099e+003,2.173901e+001
1.074063e+003,2.131409e+001
1.075028e+003,1.808118e+001
1.075992e+003,1.661005e+001
1.076956e+003,1.762982e+001
1.077920e+003,1.804858e+001
1.078885e+003,1.688672e+001
1.079849e+003,1.501031e+001
1.080813e+003,1.330475e+001
1.081777e+003,1.166901e+001
1.082741e+003,1.185272e+001
1.083706e+003,1.655896e+001
1.084670e+003,2.080243e+001
1.085634e+003,2.133002e+001
1.086598e+003,1.931372e+001
1.087563e+003,1.788525e+001
1.088527e+003,1.888385e+001
1.089491e+003,2.060974e+001
1.090455e+003,1.857971e+001
1.091420e+003,1.186682e+001
1.092384e+003,9.833923e+000
1.093348e+003,1.489227e+001
1.094312e+003,1.939600e+001
1.095276e+003,1.801678e+001
1.096241e+003,1.328589e+001
1.097205e+003,1.249609e+001
1.098169e+003,1.769257e+001
1.099133e+003,2.218152e+001
1.100098e+003,2.399615e+001
1.101062e+003,2.435791e+001
1.102026e+003,2.325751e+001
1.102990e+003,2.144678e+001
1.103955e+003,2.003473e+001
1.104919e+003,1.958911e+001
1.105883e+003,1.964221e+001
1.106847e+003,1.950793e+001
1.107812e+003,1.910211e+001
1.108776e+003,1.854712e+001
1.109740e+003,1.775366e+001
1.110704e+003,1.701862e+001
1.111668e+003,1.655334e+001
1.112633e+003,1.683997e+001
1.113597e+003,1.895099e+001
1.114561e+003,2.367664e+001
1.115525e+003,2.763184e+001
1.116490e+003,2.961841e+001
1.117454e+003,3.064380e+001
1.118418e+003,3.110944e+001
1.119382e+003,3.175214e+001
1.120347e+003,3.371295e+001
1.121311e+003,3.729071e+001
1.122275e+003,4.007806e+001
1.123239e+003,3.718286e+001
1.124203e+003,3.009912e+001
1.125168e+003,2.956470e+001
1.126132e+003,3.833917e+001
1.127096e+003,4.896277e+001
1.128060e+003,5.680548e+001
1.129025e+003,6.161414e+001
1.129989e+003,6.213641e+001
1.130953e+003,5.497974e+001
1.131917e+003,5.063635e+001
1.132882e+003,5.368481e+001
1.133846e+003,5.860638e+001
1.134810e+003,6.216766e+001
1.135774e+003,6.480328e+001
1.136739e+003,6.854193e+001
1.137703e+003,7.447955e+001
1.138667e+003,8.160028e+001
1.139631e+003,8.814941e+001
1.140595e+003,9.428918e+001
1.141560e+003,1.020863e+002
1.142524e+003,1.119536e+002
1.143488e+003,1.237666e+002
1.144452e+003,1.371943e+002
1.145417e+003,1.523139e+002
1.146381e+003,1.689246e+002
1.147345e+003,1.854043e+002
1.148309e+003,2.077242e+002
1.149274e+003,2.421394e+002
1.150238e+003,2.778088e+002
1.151202e+003,3.122590e+002
1.152166e+003,3.435681e+002
1.153130e+003,3.697809e+002
1.154095e+003,3.894699e+002
1.155059e+003,4.018497e+002
1.156023e+003,4.067325e+002
1.156987e+003,4.036674e+002
1.157952e+003,3.927247e+002
1.158916e+003,3.744017e+002
1.159880e+003,3.516426e+002
1.160844e+003,3.218678e+002
1.161809e+003,2.881388e+002
1.162773e+003,2.595250e+002
1.163737e+003,2.373708e+002
1.164701e+003,2.145061e+002
1.165666e+003,1.852510e+002
1.166630e+003,1.598802e+002
1.167594e+003,1.423759e+002
1.168558e+003,1.309354e+002
1.169522e+003,1.238943e+002
1.170487e+003,1.200372e+002
1.171451e+003,1.176463e+002
1.172415e+003,1.147440e+002
1.173379e+003,1.114056e+002
1.174344e+003,1.091788e+002
1.175308e+003,1.084382e+002
1.176272e+003,1.062526e+002
1.177236e+003,1.008036e+002
1.178201e+003,9.443329e+001
1.179165e+003,8.985645e+001
1.180129e+003,8.673889e+001
1.181093e+003,8.323297e+001
1.182057e+003,7.773907e+001
1.183022e+003,7.432214e+001
1.183986e+003,7.642841e+001
1.184950e+003,7.975006e+001
1.185914e+003,7.973926e+001
1.186879e+003,7.657690e+001
1.187843e+003,7.419470e+001
1.188807e+003,7.570435e+001
1.189771e+003,7.922650e+001
1.190736e+003,7.955280e+001
1.191700e+003,7.628876e+001
1.192664e+003,7.306024e+001
1.193628e+003,6.971539e+001
1.194593e+003,6.762805e+001
1.195557e+003,6.926526e+001
1.196521e+003,7.288269e+001
1.197485e+003,7.209363e+001
1.198449e+003,6.478668e+001
1.199414e+003,5.703528e+001
1.200378e+003,5.114008e+001
1.201342e+003,4.618689e+001
1.202306e+003,4.118359e+001
1.203271e+003,3.651324e+001
1.204235e+003,3.389313e+001
1.205199e+003,3.393384e+001
1.206163e+003,3.412921e+001
1.207128e+003,2.992511e+001
1.208092e+003,2.104504e+001
1.209056e+003,1.502277e+001
1.210020e+003,1.305420e+001
1.210984e+003,1.104407e+001
1.211949e+003,7.985352e+000
1.212913e+003,3.964600e+000
1.213877e+003,-1.042419e+000
1.214841e+003,-6.853455e+000
1.215806e+003,-1.226062e+001
1.216770e+003,-1.729749e+001
1.217734e+003,-2.116333e+001
1.218698e+003,-2.273438e+001
1.219663e+003,-2.376190e+001
1.220627e+003,-2.624475e+001
1.221591e+003,-3.051984e+001
1.222555e+003,-3.606390e+001
1.223520e+003,-4.242889e+001
1.224484e+003,-4.871228e+001
1.225448e+003,-5.141077e+001
1.226412e+003,-4.805450e+001
1.227376e+003,-4.674274e+001
1.228341e+003,-4.925299e+001
1.229305e+003,-5.202087e+001
1.230269e+003,-5.352124e+001
1.231233e+003,-5.384711e+001
1.232198e+003,-5.286615e+001
1.233162e+003,-5.025958e+001
1.234126e+003,-4.781329e+001
1.235090e+003,-4.718628e+001
1.236055e+003,-4.762183e+001
1.237019e+003,-4.847919e+001
1.237983e+003,-4.966626e+001
1.238947e+003,-5.083875e+001
1.239911e+003,-5.164386e+001
1.240876e+003,-5.163385e+001
1.241840e+003,-5.018756e+001
1.242804e+003,-4.715601e+001
1.243768e+003,-4.501959e+001
1.244733e+003,-4.424335e+001
1.245697e+003,-4.382318e+001
1.246661e+003,-4.466791e+001
1.247625e+003,-4.573505e+001
1.248590e+003,-4.573053e+001
1.249554e+003,-4.475067e+001
1.250518e+003,-4.404767e+001
1.251482e+003,-4.443683e+001
1.252447e+003,-4.528235e+001
1.253411e+003,-4.580884e+001
1.254375e+003,-4.558875e+001
1.255339e+003,-4.413818e+001
1.256303e+003,-4.127155e+001
1.257268e+003,-3.722223e+001
1.258232e+003,-3.196033e+001
1.259196e+003,-2.679907e+001
1.260160e+003,-2.400305e+001
1.261125e+003,-2.368976e+001
1.262089e+003,-2.277808e+001
1.263053e+003,-2.121582e+001
1.264017e+003,-1.948584e+001
1.264982e+003,-1.697949e+001
1.265946e+003,-1.457611e+001
1.266910e+003,-1.302789e+001
1.267874e+003,-1.241345e+001
1.268839e+003,-1.254041e+001
1.269803e+003,-1.327887e+001
1.270767e+003,-1.408173e+001
1.271731e+003,-1.332996e+001
1.272695e+003,-1.109943e+001
1.273660e+003,-1.240308e+001
1.274624e+003,-1.938757e+001
1.275588e+003,-2.622803e+001
1.276552e+003,-2.936475e+001
1.277517e+003,-2.979205e+001
1.278481e+003,-2.927832e+001
1.279445e+003,-2.786810e+001
1.280409e+003,-2.816406e+001
1.281374e+003,-3.256873e+001
1.282338e+003,-3.663080e+001
1.283302e+003,-3.797046e+001
1.284266e+003,-3.790076e+001
1.285230e+003,-3.772528e+001
1.286195e+003,-3.786072e+001
1.287159e+003,-3.809229e+001
1.288123e+003,-3.807831e+001
1.289087e+003,-3.778247e+001
1.290052e+003,-3.786609e+001
1.291016e+003,-3.876385e+001
1.291980e+003,-3.965790e+001
1.292944e+003,-4.135236e+001
1.293909e+003,-4.272473e+001
1.294873e+003,-4.235120e+001
1.295837e+003,-4.133746e+001
1.296801e+003,-4.187286e+001
1.297766e+003,-4.401746e+001
1.298730e+003,-4.467578e+001
1.299694e+003,-4.145526e+001
1.300658e+003,-3.821796e+001
1.301622e+003,-3.939697e+001
1.302587e+003,-4.295581e+001
1.303551e+003,-4.680542e+001
1.304515e+003,-5.010223e+001
1.305479e+003,-5.064606e+001
1.306444e+003,-4.637714e+001
1.307408e+003,-3.906360e+001
1.308372e+003,-3.400507e+001
1.309336e+003,-3.133368e+001
1.310301e+003,-3.074847e+001
1.311265e+003,-3.344568e+001
1.312229e+003,-3.620654e+001
1.313193e+003,-3.916010e+001
1.314157e+003,-4.118579e+001
1.315122e+003,-4.053784e+001
1.316086e+003,-3.777319e+001
1.317050e+003,-3.529773e+001
1.318014e+003,-3.443488e+001
1.318979e+003,-3.529010e+001
1.319943e+003,-3.978198e+001
1.320907e+003,-4.669055e+001
1.321871e+003,-4.671564e+001
1.322836e+003,-3.777838e+001
1.323800e+003,-2.997827e+001
1.324764e+003,-2.963745e+001
1.325728e+003,-3.309314e+001
1.326693e+003,-3.430933e+001
1.327657e+003,-3.328949e+001
1.328621e+003,-3.265167e+001
1.329585e+003,-3.198425e+001
1.330549e+003,-3.145300e+001
1.331514e+003,-3.210785e+001
1.332478e+003,-3.377161e+001
1.333442e+003,-3.637085e+001
1.334406e+003,-3.929535e+001
1.335371e+003,-4.164178e+001
1.336335e+003,-4.285315e+001
1.337299e+003,-4.278473e+001
1.338263e+003,-4.114581e+001
1.339228e+003,-3.760608e+001
1.340192e+003,-3.545630e+001
1.341156e+003,-3.638080e+001
1.342120e+003,-3.615430e+001
1.343084e+003,-3.351245e+001
1.344049e+003,-3.080859e+001
1.345013e+003,-2.979932e+001
1.345977e+003,-2.989795e+001
1.346941e+003,-2.923157e+001
1.347906e+003,-2.707642e+001
1.348870e+003,-2.554688e+001
1.349834e+003,-2.778796e+001
1.350798e+003,-3.128320e+001
1.351763e+003,-3.011029e+001
1.352727e+003,-2.508667e+001
1.353691e+003,-2.176160e+001
1.354655e+003,-2.218610e+001
1.355620e+003,-2.455804e+001
1.356584e+003,-2.753424e+001
1.357548e+003,-3.071838e+001
1.358512e+003,-3.117511e+001
1.359476e+003,-2.743640e+001
1.360441e+003,-2.593890e+001
1.361405e+003,-3.111292e+001
1.362369e+003,-3.540234e+001
1.363333e+003,-3.394012e+001
1.364298e+003,-2.977686e+001
1.365262e+003,-2.752594e+001
1.366226e+003,-2.821112e+001
1.367190e+003,-2.947723e+001
1.368155e+003,-2.922791e+001
1.369119e+003,-2.796082e+001
1.370083e+003,-2.715924e+001
1.371047e+003,-2.677698e+001
1.372011e+003,-2.619952e+001
1.372976e+003,-2.622791e+001
1.373940e+003,-2.587750e+001
1.374904e+003,-2.366193e+001
1.375868e+003,-2.125134e+001
1.376833e+003,-2.112329e+001
1.377797e+003,-2.333850e+001
1.378761e+003,-2.619543e+001
1.379725e+003,-2.937109e+001
1.380690e+003,-3.136005e+001
1.381654e+003,-2.984076e+001
1.382618e+003,-2.631476e+001
1.383582e+003,-2.227460e+001
1.384547e+003,-1.808636e+001
1.385511e+003,-1.485065e+001
1.386475e+003,-1.324774e+001
1.387439e+003,-1.312061e+001
1.388403e+003,-1.478302e+001
1.389368e+003,-1.826282e+001
1.390332e+003,-1.966174e+001
1.391296e+003,-1.730066e+001
1.392260e+003,-1.549139e+001
1.393225e+003,-1.497961e+001
1.394189e+003,-1.560754e+001
1.395153e+003,-1.789569e+001
1.396117e+003,-2.098224e+001
1.397082e+003,-2.427533e+001
1.398046e+003,-2.701917e+001
1.399010e+003,-2.738202e+001
1.399974e+003,-2.378363e+001
1.400938e+003,-1.835895e+001
1.401903e+003,-1.677057e+001
1.402867e+003,-1.940497e+001
1.403831e+003,-1.946442e+001
1.404795e+003,-1.610608e+001
1.405760e+003,-1.244659e+001
1.406724e+003,-9.416809e+000
1.407688e+003,-8.044312e+000
1.408652e+003,-9.678223e+000
1.409617e+003,-1.320349e+001
1.410581e+003,-1.469043e+001
1.411545e+003,-1.229193e+001
1.412509e+003,-9.220276e+000
1.413474e+003,-8.612732e+000
1.414438e+003,-1.000476e+001
1.415402e+003,-1.233282e+001
1.416366e+003,-1.493567e+001
1.417330e+003,-1.621240e+001
1.418295e+003,-1.544141e+001
1.419259e+003,-1.347394e+001
1.420223e+003,-1.077985e+001
1.421187e+003,-7.970703e+000
1.422152e+003,-7.772034e+000
1.423116e+003,-1.095953e+001
1.424080e+003,-1.287042e+001
1.425044e+003,-1.213336e+001
1.426009e+003,-1.071454e+001
1.426973e+003,-8.604492e+000
1.427937e+003,-6.767151e+000
1.428901e+003,-6.630981e+000
1.429865e+003,-7.682800e+000
1.430830e+003,-7.805847e+000
1.431794e+003,-5.794006e+000
1.432758e+003,-2.773071e+000
1.433722e+003,-4.869385e-001
1.434687e+003,1.553955e+000
1.435651e+003,4.349915e+000
1.436615e+003,7.171204e+000
1.437579e+003,9.127014e+000
1.438544e+003,1.077301e+001
1.439508e+003,1.123895e+001
1.440472e+003,9.590088e+000
1.441436e+003,6.971741e+000
1.442401e+003,4.691895e+000
1.443365e+003,3.147644e+000
1.444329e+003,3.590820e+000
1.445293e+003,7.664124e+000
1.446257e+003,1.275311e+001
1.447222e+003,1.293683e+001
1.448186e+003,9.215942e+000
1.449150e+003,7.352234e+000
1.450114e+003,7.973145e+000
1.451079e+003,9.262695e+000
1.452043e+003,1.167719e+001
1.453007e+003,1.383282e+001
1.453971e+003,1.305994e+001
1.454936e+003,9.571228e+000
1.455900e+003,6.089294e+000
1.456864e+003,2.839417e+000
1.457828e+003,1.611816e+000
1.458792e+003,5.259827e+000
1.459757e+003,9.239807e+000
1.460721e+003,9.623596e+000
1.461685e+003,7.552429e+000
1.462649e+003,5.594543e+000
1.463614e+003,4.650757e+000
1.464578e+003,4.305969e+000
1.465542e+003,4.104553e+000
1.466506e+003,3.861816e+000
1.467471e+003,3.437622e+000
1.468435e+003,3.148560e+000
1.469399e+003,3.402771e+000
1.470363e+003,3.753174e+000
1.471328e+003,4.378174e+000
1.472292e+003,4.378967e+000
1.473256e+003,4.751831e+000
1.474220e+003,7.808594e+000
1.475184e+003,1.218042e+001
1.476149e+003,1.428772e+001
1.477113e+003,1.309698e+001
1.478077e+003,1.163245e+001
1.479041e+003,1.317462e+001
1.480006e+003,1.687677e+001
1.480970e+003,1.902307e+001
1.481934e+003,1.855615e+001
1.482898e+003,1.920648e+001
1.483863e+003,2.084546e+001
1.484827e+003,2.343719e+001
1.485791e+003,2.852679e+001
1.486755e+003,3.389813e+001
1.487719e+003,3.722192e+001
1.488684e+003,3.867102e+001
1.489648e+003,3.922711e+001
1.490612e+003,3.950909e+001
1.491576e+003,4.155365e+001
1.492541e+003,4.748834e+001
1.493505e+003,5.491797e+001
1.494469e+003,5.776978e+001
1.495433e+003,5.664844e+001
1.496398e+003,5.837457e+001
1.497362e+003,6.499609e+001
1.498326e+003,7.263940e+001
1.499290e+003,7.893530e+001
1.500255e+003,8.523425e+001
1.501219e+003,9.325665e+001
1.502183e+003,1.027449e+002
1.503147e+003,1.120797e+002
1.504111e+003,1.202840e+002
1.505076e+003,1.317054e+002
1.506040e+003,1.515439e+002
1.507004e+003,1.731461e+002
1.507968e+003,1.873094e+002
1.508933e+003,1.988813e+002
1.509897e+003,2.187141e+002
1.510861e+003,2.491932e+002
1.511825e+003,2.828993e+002
1.512790e+003,3.147411e+002
1.513754e+003,3.451925e+002
1.514718e+003,3.755208e+002
1.515682e+003,4.053062e+002
1.516646e+003,4.362893e+002
1.517611e+003,4.713179e+002
1.518575e+003,5.022321e+002
1.519539e+003,5.288666e+002
1.520503e+003,5.491256e+002
1.521468e+003,5.607963e+002
1.522432e+003,5.653723e+002
1.523396e+003,5.649914e+002
1.524360e+003,5.599432e+002
1.525325e+003,5.489410e+002
1.526289e+003,5.312870e+002
1.527253e+003,5.090647e+002
1.528217e+003,4.855887e+002
1.529182e+003,4.612299e+002
1.530146e+003,4.349620e+002
1.531110e+003,4.072927e+002
1.532074e+003,3.756702e+002
1.533039e+003,3.367627e+002
1.534003e+003,2.962673e+002
1.534967e+003,2.555079e+002
1.535931e+003,2.170073e+002
1.536896e+003,1.823758e+002
1.537860e+003,1.524043e+002
1.538824e+003,1.274343e+002
1.539788e+003,1.074501e+002
1.540752e+003,9.265466e+001
1.541717e+003,8.394983e+001
1.542681e+003,8.047546e+001
1.543645e+003,7.512872e+001
1.544609e+003,6.695160e+001
1.545573e+003,6.054248e+001
1.546538e+003,5.440912e+001
1.547502e+003,5.072461e+001
1.548466e+003,5.207922e+001
1.549430e+003,5.582605e+001
1.550395e+003,5.980682e+001
1.551359e+003,6.311151e+001
1.552323e+003,6.508575e+001
1.553287e+003,6.551563e+001
1.554252e+003,6.405768e+001
1.555216e+003,6.025684e+001
1.556180e+003,5.453625e+001
1.557144e+003,4.705817e+001
1.558109e+003,3.796576e+001
1.559073e+003,3.338666e+001
1.560037e+003,3.519543e+001
1.561001e+003,3.649225e+001
1.561966e+003,3.525916e+001
1.562930e+003,3.346106e+001
1.563894e+003,3.174774e+001
1.564858e+003,3.067334e+001
1.565823e+003,3.266895e+001
1.566787e+003,3.778546e+001
1.567751e+003,3.993408e+001
1.568715e+003,3.475159e+001
1.569679e+003,2.862616e+001
1.570644e+003,2.997144e+001
1.571608e+003,3.617682e+001
1.572572e+003,4.077612e+001
1.573536e+003,4.387390e+001
1.574500e+003,4.465729e+001
1.575465e+003,4.081506e+001
1.576429e+003,3.745679e+001
1.577393e+003,3.954474e+001
1.578357e+003,4.437756e+001
1.579322e+003,4.677661e+001
1.580286e+003,4.669800e+001
1.581250e+003,4.740265e+001
1.582214e+003,5.009412e+001
1.583179e+003,5.290686e+001
1.584143e+003,5.441162e+001
1.585107e+003,5.489807e+001
1.586071e+003,5.502814e+001
1.587036e+003,5.540631e+001
1.588000e+003,5.672534e+001
1.588964e+003,5.892432e+001
1.589928e+003,6.049738e+001
1.590893e+003,5.990143e+001
1.591857e+003,5.880151e+001
1.592821e+003,6.041321e+001
1.593785e+003,6.407568e+001
1.594750e+003,6.498138e+001
1.595714e+003,6.176337e+001
1.596678e+003,5.971161e+001
1.597642e+003,6.162372e+001
1.598606e+003,6.444800e+001
1.599571e+003,6.626306e+001
1.600535e+003,6.742804e+001
1.601499e+003,6.773700e+001
1.602463e+003,6.748248e+001
1.603427e+003,6.849969e+001
1.604392e+003,7.174884e+001
1.605356e+003,7.499188e+001
1.606320e+003,7.585260e+001
1.607284e+003,7.504034e+001
1.608249e+003,7.420404e+001
1.609213e+003,7.331293e+001
1.610177e+003,7.389148e+001
1.611141e+003,7.705609e+001
1.612106e+003,7.956580e+001
1.613070e+003,7.895422e+001
1.614034e+003,7.784216e+001
1.614998e+003,7.808539e+001
1.615963e+003,7.918970e+001
1.616927e+003,8.021240e+001
1.617891e+003,8.085773e+001
1.618855e+003,8.113293e+001
1.619820e+003,8.092499e+001
1.620784e+003,7.969800e+001
1.621748e+003,7.634918e+001
1.622712e+003,7.220361e+001
1.623677e+003,7.291223e+001
1.624641e+003,7.967603e+001
1.625605e+003,8.461383e+001
1.626569e+003,8.392627e+001
1.627533e+003,8.266650e+001
1.628498e+003,8.460248e+001
1.629462e+003,8.684711e+001
1.630426e+003,8.613605e+001
1.631390e+003,8.375793e+001
1.632354e+003,8.320325e+001
1.633319e+003,8.510822e+001
1.634283e+003,8.690399e+001
1.635247e+003,8.672968e+001
1.636211e+003,8.498407e+001
1.637176e+003,8.166943e+001
1.638140e+003,7.726776e+001
1.639104e+003,7.698413e+001
1.640068e+003,8.232080e+001
1.641033e+003,8.569971e+001
1.641997e+003,8.364270e+001
1.642961e+003,8.200208e+001
1.643925e+003,8.459052e+001
1.644890e+003,8.814716e+001
1.645854e+003,8.967090e+001
1.646818e+003,8.918549e+001
1.647782e+003,8.754791e+001
1.648747e+003,8.508685e+001
1.649711e+003,8.231744e+001
1.650675e+003,7.951831e+001
1.651639e+003,7.775720e+001
1.652604e+003,7.981598e+001
1.653568e+003,8.523041e+001
1.654532e+003,8.636169e+001
1.655496e+003,8.148370e+001
1.656460e+003,7.713342e+001
1.657425e+003,7.519421e+001
1.658389e+003,7.449933e+001
1.659353e+003,7.528741e+001
1.660317e+003,7.615430e+001
1.661281e+003,7.545752e+001
1.662246e+003,7.336401e+001
1.663210e+003,7.071783e+001
1.664174e+003,6.801715e+001
1.665138e+003,6.663489e+001
1.666103e+003,6.804553e+001
1.667067e+003,7.045264e+001
1.668031e+003,7.051630e+001
1.668995e+003,6.844220e+001
1.669960e+003,6.545435e+001
1.670924e+003,6.114130e+001
1.671888e+003,5.860425e+001
1.672852e+003,5.967267e+001
1.673817e+003,6.105170e+001
1.674781e+003,6.113928e+001
1.675745e+003,6.003003e+001
1.676709e+003,5.652454e+001
1.677674e+003,5.193738e+001
1.678638e+003,5.079913e+001
1.679602e+003,5.447675e+001
1.680566e+003,5.719159e+001
1.681531e+003,5.391254e+001
1.682495e+003,4.830292e+001
1.683459e+003,4.617194e+001
1.684423e+003,4.684985e+001
1.685387e+003,4.789355e+001
1.686352e+003,4.950446e+001
1.687316e+003,4.893268e+001
1.688280e+003,4.375452e+001
1.689244e+003,3.907568e+001
1.690208e+003,3.946252e+001
1.691173e+003,4.164130e+001
1.692137e+003,4.262183e+001
1.693101e+003,4.270801e+001
1.694065e+003,4.202173e+001
1.695030e+003,4.015570e+001
1.695994e+003,4.008411e+001
1.696958e+003,4.613348e+001
1.697922e+003,5.225366e+001
1.698887e+003,4.958435e+001
1.699851e+003,4.111292e+001
1.700815e+003,3.562488e+001
1.701779e+003,3.369122e+001
1.702744e+003,3.173633e+001
1.703708e+003,2.876251e+001
1.704672e+003,2.686456e+001
1.705636e+003,2.779132e+001
1.706601e+003,2.938525e+001
1.707565e+003,2.872546e+001
1.708529e+003,2.681628e+001
1.709493e+003,2.601758e+001
1.710458e+003,2.660632e+001
1.711422e+003,2.763940e+001
1.712386e+003,2.970544e+001
1.713350e+003,3.149268e+001
1.714314e+003,3.105743e+001
1.715279e+003,2.951111e+001
1.716243e+003,2.959924e+001
1.717207e+003,3.089471e+001
1.718171e+003,2.981213e+001
1.719135e+003,2.544977e+001
1.720100e+003,2.170697e+001
1.721064e+003,2.118073e+001
1.722028e+003,2.201843e+001
1.722992e+003,2.202625e+001
1.723957e+003,2.168854e+001
1.724921e+003,2.181061e+001
1.725885e+003,2.203864e+001
1.726849e+003,2.106067e+001
1.727814e+003,1.773236e+001
1.728778e+003,1.576355e+001
1.729742e+003,1.816058e+001
1.730706e+003,2.108875e+001
1.731671e+003,1.978687e+001
1.732635e+003,1.575342e+001
1.733599e+003,1.351379e+001
1.734563e+003,1.402496e+001
1.735528e+003,1.493201e+001
1.736492e+003,1.482294e+001
1.737456e+003,1.449658e+001
1.738420e+003,1.502881e+001
1.739385e+003,1.555072e+001
1.740349e+003,1.368170e+001
1.741313e+003,8.668640e+000
1.742277e+003,6.492615e+000
1.743241e+003,1.017908e+001
1.744206e+003,1.235181e+001
1.745170e+003,9.829285e+000
1.746134e+003,7.827393e+000
1.747098e+003,1.072186e+001
1.748063e+003,1.452161e+001
1.749027e+003,1.385291e+001
1.749991e+003,9.915039e+000
1.750955e+003,7.555786e+000
1.751919e+003,8.207886e+000
1.752884e+003,9.081360e+000
1.753848e+003,7.864014e+000
1.754812e+003,5.406128e+000
1.755776e+003,3.396606e+000
1.756741e+003,2.197876e+000
1.757705e+003,4.345642e+000
1.758669e+003,1.164996e+001
1.759633e+003,1.612878e+001
1.760598e+003,1.574438e+001
1.761562e+003,1.358441e+001
1.762526e+003,8.802246e+000
1.763490e+003,5.069275e+000
1.764455e+003,5.965942e+000
1.765419e+003,9.187744e+000
1.766383e+003,1.096515e+001
1.767347e+003,1.064459e+001
1.768312e+003,9.410278e+000
1.769276e+003,7.694702e+000
1.770240e+003,6.178711e+000
1.771204e+003,6.065979e+000
1.772168e+003,7.196533e+000
1.773133e+003,8.866882e+000
1.774097e+003,1.089508e+001
1.775061e+003,1.123553e+001
1.776025e+003,9.022766e+000
1.776990e+003,7.491699e+000
1.777954e+003,8.389282e+000
1.778918e+003,9.867493e+000
1.779882e+003,1.027002e+001
1.780846e+003,1.012177e+001
1.781811e+003,1.092377e+001
1.782775e+003,1.219873e+001
1.783739e+003,1.175354e+001
1.784703e+003,9.196655e+000
1.785668e+003,7.353271e+000
1.786632e+003,7.499634e+000
1.787596e+003,7.703857e+000
1.788560e+003,6.577637e+000
1.789525e+003,5.548645e+000
1.790489e+003,6.389160e+000
1.791453e+003,8.487488e+000
1.792417e+003,1.021509e+001
1.793382e+003,1.123468e+001
1.794346e+003,1.210620e+001
1.795310e+003,1.311951e+001
1.796274e+003,1.354279e+001
1.797239e+003,1.270837e+001
1.798203e+003,1.123651e+001
1.799167e+003,9.577637e+000
1.800131e+003,6.663391e+000
1.801095e+003,5.868225e+000
1.802060e+003,9.944824e+000
1.803024e+003,1.286951e+001
1.803988e+003,1.283966e+001
1.804952e+003,1.257153e+001
1.805917e+003,1.425977e+001
1.806881e+003,1.553503e+001
1.807845e+003,1.295825e+001
1.808809e+003,8.614990e+000
1.809773e+003,7.147827e+000
1.810738e+003,9.240784e+000
1.811702e+003,1.157013e+001
1.812666e+003,1.203833e+001
1.813630e+003,1.241827e+001
1.814595e+003,1.546338e+001
1.815559e+003,1.984778e+001
1.816523e+003,1.985199e+001
1.817487e+003,1.495496e+001
1.818452e+003,1.288019e+001
1.819416e+003,1.581610e+001
1.820380e+003,1.710663e+001
1.821344e+003,1.295099e+001
1.822309e+003,8.890808e+000
1.823273e+003,8.596863e+000
1.824237e+003,1.011951e+001
1.825201e+003,1.170972e+001
1.826166e+003,1.311078e+001
1.827130e+003,1.418463e+001
1.828094e+003,1.479926e+001
1.829058e+003,1.533502e+001
1.830022e+003,1.659033e+001
1.830987e+003,1.707977e+001
1.831951e+003,1.481665e+001
1.832915e+003,1.160468e+001
1.833879e+003,9.500122e+000
1.834844e+003,8.784912e+000
1.835808e+003,1.040997e+001
1.836772e+003,1.422534e+001
1.837736e+003,1.767456e+001
1.838700e+003,1.950159e+001
1.839665e+003,2.006061e+001
1.840629e+003,1.979730e+001
1.841593e+003,1.865802e+001
1.842557e+003,1.593439e+001
1.843522e+003,1.166064e+001
1.844486e+003,9.765564e+000
1.845450e+003,1.192352e+001
1.846414e+003,1.417139e+001
1.847379e+003,1.668561e+001
1.848343e+003,1.790247e+001
1.849307e+003,1.666101e+001
1.850271e+003,1.509827e+001
1.851236e+003,1.436914e+001
1.852200e+003,1.485211e+001
1.853164e+003,1.755731e+001
1.854128e+003,2.102716e+001
1.855093e+003,2.147174e+001
1.856057e+003,1.809595e+001
1.857021e+003,1.476447e+001
1.857985e+003,1.447852e+001
1.858949e+003,1.596967e+001
1.859914e+003,1.743158e+001
1.860878e+003,1.895447e+001
1.861842e+003,2.073468e+001
1.862806e+003,2.268060e+001
1.863771e+003,2.330884e+001
1.864735e+003,2.190637e+001
1.865699e+003,2.053925e+001
1.866663e+003,1.998572e+001
1.867627e+003,2.060376e+001
1.868592e+003,2.311456e+001
1.869556e+003,2.611926e+001
1.870520e+003,2.782562e+001
1.871484e+003,2.819922e+001
1.872449e+003,2.684155e+001
1.873413e+003,2.373108e+001
1.874377e+003,2.268097e+001
1.875341e+003,2.603693e+001
1.876306e+003,2.839081e+001
1.877270e+003,2.452332e+001
1.878234e+003,2.019958e+001
1.879198e+003,2.339899e+001
1.880163e+003,2.978906e+001
1.881127e+003,2.981183e+001
1.882091e+003,2.385022e+001
1.883055e+003,1.985699e+001
1.884020e+003,2.113068e+001
1.884984e+003,2.455847e+001
1.885948e+003,2.739948e+001
1.886912e+003,2.958002e+001
1.887876e+003,3.096124e+001
1.888841e+003,3.161237e+001
1.889805e+003,3.206177e+001
1.890769e+003,3.263745e+001
1.891733e+003,3.088416e+001
1.892698e+003,2.455591e+001
1.893662e+003,2.018420e+001
1.894626e+003,2.094202e+001
1.895590e+003,2.331732e+001
1.896554e+003,2.592615e+001
1.897519e+003,2.840350e+001
1.898483e+003,2.978394e+001
1.899447e+003,3.010889e+001
1.900411e+003,3.070166e+001
1.901376e+003,3.194751e+001
1.902340e+003,3.246948e+001
1.903304e+003,3.077942e+001
1.904268e+003,2.964081e+001
1.905233e+003,3.214288e+001
1.906197e+003,3.493958e+001
1.907161e+003,3.435620e+001
1.908125e+003,3.177014e+001
1.909090e+003,2.875293e+001
1.910054e+003,2.615063e+001
1.911018e+003,2.628882e+001
1.911982e+003,2.975342e+001
1.912947e+003,3.399054e+001
1.913911e+003,3.704663e+001
1.914875e+003,3.819360e+001
1.915839e+003,3.570227e+001
1.916803e+003,3.070563e+001
1.917768e+003,3.124164e+001
1.918732e+003,3.921979e+001
1.919696e+003,4.114697e+001
1.920660e+003,3.382129e+001
1.921625e+003,2.971533e+001
1.922589e+003,3.267987e+001
1.923553e+003,3.689789e+001
1.924517e+003,4.079028e+001
1.925481e+003,4.340295e+001
1.926446e+003,4.339117e+001
1.927410e+003,4.172351e+001
1.928374e+003,3.972754e+001
1.929338e+003,3.750116e+001
1.930303e+003,3.655048e+001
1.931267e+003,3.816638e+001
1.932231e+003,3.979510e+001
1.933195e+003,3.951892e+001
1.934160e+003,3.903845e+001
1.935124e+003,3.997119e+001
1.936088e+003,4.090387e+001
1.937052e+003,4.015216e+001
1.938017e+003,3.848950e+001
1.938981e+003,3.721979e+001
1.939945e+003,3.672943e+001
1.940909e+003,3.750977e+001
1.941874e+003,3.952313e+001
1.942838e+003,4.101593e+001
1.943802e+003,4.057654e+001
1.944766e+003,3.967578e+001
1.945730e+003,4.092700e+001
1.946695e+003,4.363165e+001
1.947659e+003,4.339716e+001
1.948623e+003,3.970605e+001
1.949587e+003,3.824512e+001
1.950552e+003,4.045099e+001
1.951516e+003,4.213641e+001
1.952480e+003,4.163947e+001
1.953444e+003,4.082300e+001
1.954408e+003,4.034222e+001
1.955373e+003,4.047998e+001
1.956337e+003,4.300830e+001
1.957301e+003,4.711829e+001
1.958265e+003,4.842090e+001
1.959230e+003,4.646686e+001
1.960194e+003,4.514575e+001
1.961158e+003,4.407501e+001
1.962122e+003,4.395050e+001
1.963087e+003,4.596436e+001
1.964051e+003,4.792493e+001
1.965015e+003,4.874060e+001
1.965979e+003,4.937433e+001
1.966944e+003,5.090973e+001
1.967908e+003,5.239966e+001
1.968872e+003,5.171490e+001
1.969836e+003,4.938281e+001
1.970801e+003,4.866211e+001
1.971765e+003,5.086224e+001
1.972729e+003,5.343146e+001
1.973693e+003,5.418494e+001
1.974657e+003,5.410864e+001
1.975622e+003,5.457355e+001
1.976586e+003,5.518060e+001
1.977550e+003,5.548157e+001
1.978514e+003,5.541577e+001
1.979479e+003,5.320435e+001
1.980443e+003,4.884247e+001
1.981407e+003,4.814453e+001
1.982371e+003,5.361426e+001
1.983335e+003,5.911139e+001
1.984300e+003,5.980750e+001
1.985264e+003,5.787561e+001
1.986228e+003,5.672009e+001
1.987192e+003,5.621582e+001
1.988157e+003,5.575012e+001
1.989121e+003,5.533051e+001
1.990085e+003,5.566931e+001
1.991049e+003,5.773370e+001
1.992014e+003,5.899078e+001
1.992978e+003,5.831500e+001
1.993942e+003,5.753644e+001
1.994906e+003,5.659766e+001
1.995871e+003,5.649268e+001
1.996835e+003,5.894116e+001
1.997799e+003,6.231433e+001
1.998763e+003,6.431451e+001
1.999728e+003,6.464508e+001
