5.003444e+002,1.982697e+001
5.013087e+002,2.151575e+001
5.022729e+002,1.959088e+001
5.032371e+002,1.545673e+001
5.042014e+002,1.216870e+001
5.051656e+002,9.792053e+000
5.061298e+002,8.505066e+000
5.070941e+002,8.544861e+000
5.080583e+002,1.019757e+001
5.090225e+002,9.729370e+000
5.099868e+002,5.537170e+000
5.109510e+002,1.562317e+000
5.119152e+002,-7.141113e-003
5.128795e+002,1.093018e+000
5.138437e+002,2.455872e+000
5.148079e+002,3.330994e+000
5.157722e+002,4.469543e+000
5.167364e+002,6.653076e+000
5.177006e+002,9.406616e+000
5.186649e+002,1.095721e+001
5.196291e+002,8.440857e+000
5.205933e+002,4.947327e+000
5.215576e+002,3.139404e+000
5.225218e+002,2.953186e+000
5.234860e+002,3.466248e+000
5.244503e+002,3.590515e+000
5.254145e+002,3.867554e+000
5.263787e+002,3.959839e+000
5.273430e+002,3.211365e+000
5.283072e+002,2.712708e+000
5.292714e+002,3.999634e+000
5.302357e+002,7.712280e+000
5.311999e+002,1.024188e+001
5.321641e+002,1.270929e+001
5.331284e+002,1.420880e+001
5.340926e+002,1.318872e+001
5.350568e+002,8.628784e+000
5.360211e+002,3.518860e+000
5.369853e+002,1.283264e+000
5.379495e+002,4.967041e-001
5.389138e+002,-2.198486e-001
5.398780e+002,-1.429810e+000
5.408422e+002,-2.563110e+000
5.418065e+002,-1.369080e+000
5.427707e+002,1.770020e+000
5.437349e+002,4.430725e+000
5.446992e+002,5.911743e+000
5.456634e+002,6.370056e+000
5.466276e+002,6.548340e+000
5.475919e+002,5.936218e+000
5.485561e+002,6.160461e+000
5.495203e+002,8.609009e+000
5.504846e+002,1.107446e+001
5.514488e+002,9.980957e+000
5.524130e+002,2.138123e+000
5.533773e+002,-4.018921e+000
5.543415e+002,-3.231750e+000
5.553057e+002,5.396118e-001
5.562700e+002,3.304443e+000
5.572342e+002,2.547180e+000
5.581984e+002,-3.771973e-001
5.591627e+002,-2.010864e+000
5.601269e+002,-2.498657e+000
5.610911e+002,-2.674316e+000
5.620554e+002,-3.135803e+000
5.630196e+002,-3.963318e+000
5.639838e+002,-4.030884e+000
5.649481e+002,-1.723511e+000
5.659123e+002,-9.171753e-001
5.668765e+002,-2.835693e+000
5.678408e+002,-6.072327e+000
5.688050e+002,-7.377197e+000
5.697692e+002,-5.478760e+000
5.707335e+002,-3.683594e+000
5.716977e+002,-2.036194e+000
5.726619e+002,-1.004456e+000
5.736262e+002,-1.161987e+000
5.745904e+002,-2.933289e+000
5.755546e+002,-5.514587e+000
5.765189e+002,-9.344666e+000
5.774831e+002,-1.350281e+001
5.784473e+002,-1.509729e+001
5.794116e+002,-1.196985e+001
5.803758e+002,-4.413147e+000
5.813400e+002,-8.240356e-001
5.823043e+002,-2.694397e+000
5.832685e+002,-5.116394e+000
5.842327e+002,-6.020508e+000
5.851970e+002,-5.333862e+000
5.861612e+002,-4.766052e+000
5.871254e+002,-6.031128e+000
5.880897e+002,-6.427368e+000
5.890539e+002,-4.967896e+000
5.900181e+002,-2.675110e+000
5.909824e+002,-1.204773e+000
5.919466e+002,-1.724487e+000
5.929108e+002,-2.526001e+000
5.938751e+002,-1.171204e+000
5.948393e+002,1.026611e+000
5.958035e+002,1.790405e+000
5.967678e+002,-4.212036e-001
5.977320e+002,-4.702148e+000
5.986962e+002,-5.098206e+000
5.996605e+002,-2.259277e+000
6.006247e+002,3.248291e-001
6.015889e+002,1.227539e+000
6.025532e+002,5.823975e-001
6.035174e+002,-4.102783e-001
6.044816e+002,-4.228943e+000
6.054459e+002,-5.269226e+000
6.064101e+002,1.187134e-001
6.073743e+002,8.351868e+000
6.083386e+002,1.296198e+001
6.093028e+002,9.668701e+000
6.102670e+002,3.968689e+000
6.112313e+002,-1.551086e+000
6.121955e+002,-5.760254e+000
6.131597e+002,-6.634033e+000
6.141240e+002,-2.906372e+000
6.150882e+002,3.689819e+000
6.160524e+002,5.825928e+000
6.170167e+002,4.553833e+000
6.179809e+002,3.030823e+000
6.189451e+002,2.423035e+000
6.199094e+002,2.299866e+000
6.208736e+002,1.247131e+000
6.218378e+002,-1.674133e+000
6.228021e+002,-3.354614e+000
6.237663e+002,-2.580505e+000
6.247305e+002,-4.702759e-001
6.256948e+002,9.416504e-001
6.266590e+002,2.743530e-001
6.276232e+002,-1.120667e+000
6.285875e+002,-2.890808e+000
6.295517e+002,-3.816040e+000
6.305159e+002,-2.034912e+000
6.314802e+002,3.091797e+000
6.324444e+002,9.138123e+000
6.334086e+002,9.243103e+000
6.343729e+002,5.597656e+000
6.353371e+002,2.358093e+000
6.363013e+002,9.706421e-001
6.372656e+002,5.605469e-001
6.382298e+002,-1.660461e+000
6.391940e+002,-9.955750e+000
6.401583e+002,-1.453381e+001
6.411225e+002,-1.178265e+001
6.420867e+002,-6.024292e+000
6.430510e+002,-3.084290e+000
6.440152e+002,-5.903564e+000
6.449794e+002,-8.395996e+000
6.459437e+002,-7.004578e+000
6.469079e+002,-4.317261e+000
6.478721e+002,-1.579712e+000
6.488364e+002,5.816650e-001
6.498006e+002,1.818542e+000
6.507648e+002,4.125977e-001
6.517291e+002,-2.693054e+000
6.526933e+002,-4.744873e+000
6.536575e+002,-5.236877e+000
6.546218e+002,-4.849670e+000
6.555860e+002,-4.905762e+000
6.565502e+002,-6.149414e+000
6.575145e+002,-6.226990e+000
6.584787e+002,-4.024841e+000
6.594429e+002,-1.623047e+000
6.604072e+002,-1.264709e+000
6.613714e+002,-3.595337e+000
6.623356e+002,-4.077087e+000
6.632999e+002,2.374390e+000
6.642641e+002,8.040161e+000
6.652283e+002,8.104248e+000
6.661926e+002,3.338379e+000
6.671568e+002,-1.411133e+000
6.681210e+002,-4.663086e-001
6.690853e+002,4.251404e+000
6.700495e+002,8.132141e+000
6.710137e+002,1.100415e+001
6.719780e+002,1.237268e+001
6.729422e+002,1.147461e+001
6.739064e+002,7.522400e+000
6.748707e+002,4.847290e+000
6.758349e+002,3.469788e+000
6.767991e+002,2.681824e+000
6.777634e+002,3.216675e+000
6.787276e+002,5.078430e+000
6.796918e+002,6.162415e+000
6.806561e+002,3.276611e+000
6.816203e+002,1.211731e+000
6.825845e+002,3.048828e+000
6.835488e+002,6.779968e+000
6.845130e+002,8.819336e+000
6.854772e+002,6.396301e+000
6.864415e+002,2.327698e+000
6.874057e+002,2.580139e+000
6.883699e+002,5.272095e+000
6.893342e+002,7.009583e+000
6.902984e+002,6.002686e+000
6.912626e+002,2.844849e+000
6.922269e+002,5.674438e-001
6.931911e+002,-3.515625e-001
6.941553e+002,5.568848e-001
6.951196e+002,4.184021e+000
6.960838e+002,8.508301e+000
6.970480e+002,1.049640e+001
6.980123e+002,8.761230e+000
6.989765e+002,7.313904e+000
6.999407e+002,8.187805e+000
7.009050e+002,9.556458e+000
7.018692e+002,9.802673e+000
7.028334e+002,8.411011e+000
7.037977e+002,6.427979e+000
7.047619e+002,6.081177e+000
7.057261e+002,6.832397e+000
7.066904e+002,6.447510e+000
7.076546e+002,4.545532e+000
7.086188e+002,2.530884e+000
7.095831e+002,2.765930e+000
7.105473e+002,6.330872e+000
7.115115e+002,7.736755e+000
7.124758e+002,5.603760e+000
7.134400e+002,2.845032e+000
7.144042e+002,1.216492e+000
7.153685e+002,1.007080e+000
7.163327e+002,1.487976e+000
7.172969e+002,2.756104e+000
7.182612e+002,4.475586e+000
7.192254e+002,7.095093e+000
7.201896e+002,9.751709e+000
7.211539e+002,1.080878e+001
7.221181e+002,8.730042e+000
7.230823e+002,5.128418e+000
7.240466e+002,4.607239e+000
7.250108e+002,6.902466e+000
7.259750e+002,9.687134e+000
7.269393e+002,1.120422e+001
7.279035e+002,1.106885e+001
7.288677e+002,1.057043e+001
7.298320e+002,1.016840e+001
7.307962e+002,1.103845e+001
7.317604e+002,1.485541e+001
7.327247e+002,1.950159e+001
7.336889e+002,2.131989e+001
7.346531e+002,1.784717e+001
7.356174e+002,1.336450e+001
7.365816e+002,1.118909e+001
7.375458e+002,1.031317e+001
7.385101e+002,9.762817e+000
7.394743e+002,9.368469e+000
7.404385e+002,9.900818e+000
7.414028e+002,1.274243e+001
7.423670e+002,1.630359e+001
7.433312e+002,1.810120e+001
7.442955e+002,1.869885e+001
7.452597e+002,1.906122e+001
7.462239e+002,1.983130e+001
7.471882e+002,2.082025e+001
7.481524e+002,2.195343e+001
7.491166e+002,2.190009e+001
7.500809e+002,2.193390e+001
7.510451e+002,2.369641e+001
7.520093e+002,2.619635e+001
7.529736e+002,2.578668e+001
7.539378e+002,1.906299e+001
7.549020e+002,1.306793e+001
7.558663e+002,1.267725e+001
7.568306e+002,1.537787e+001
7.577948e+002,1.714343e+001
7.587590e+002,1.552173e+001
7.597233e+002,1.230072e+001
7.606875e+002,1.537769e+001
7.616517e+002,2.413635e+001
7.626160e+002,2.913293e+001
7.635802e+002,2.691064e+001
7.645444e+002,2.097748e+001
7.655087e+002,1.855554e+001
7.664729e+002,2.134882e+001
7.674371e+002,2.383771e+001
7.684014e+002,2.615033e+001
7.693656e+002,2.757837e+001
7.703298e+002,2.776526e+001
7.712941e+002,2.674170e+001
7.722583e+002,2.469556e+001
7.732225e+002,2.019922e+001
7.741868e+002,1.619171e+001
7.751510e+002,1.530481e+001
7.761152e+002,1.696326e+001
7.770795e+002,1.941791e+001
7.780437e+002,2.106946e+001
7.790079e+002,2.183490e+001
7.799722e+002,2.225519e+001
7.809364e+002,2.239484e+001
7.819006e+002,2.206848e+001
7.828649e+002,2.141455e+001
7.838291e+002,2.078149e+001
7.847933e+002,2.048120e+001
7.857576e+002,2.015302e+001
7.867218e+002,1.913501e+001
7.876860e+002,1.681964e+001
7.886503e+002,1.519489e+001
7.896145e+002,1.654578e+001
7.905787e+002,2.118750e+001
7.915430e+002,2.588318e+001
7.925072e+002,2.615442e+001
7.934714e+002,2.415210e+001
7.944357e+002,2.257617e+001
7.953999e+002,2.206189e+001
7.963641e+002,2.228088e+001
7.973284e+002,2.266125e+001
7.982926e+002,2.319604e+001
7.992568e+002,2.432977e+001
8.002211e+002,2.586755e+001
8.011853e+002,2.587805e+001
8.021495e+002,2.333807e+001
8.031138e+002,2.004163e+001
8.040780e+002,2.027032e+001
8.050422e+002,2.646283e+001
8.060065e+002,3.197797e+001
8.069707e+002,3.504456e+001
8.079349e+002,3.568091e+001
8.088992e+002,3.307166e+001
8.098634e+002,2.767139e+001
8.108276e+002,2.291498e+001
8.117919e+002,2.425427e+001
8.127561e+002,2.836902e+001
8.137203e+002,3.030603e+001
8.146846e+002,3.006598e+001
8.156488e+002,2.937262e+001
8.166130e+002,2.997955e+001
8.175773e+002,3.207739e+001
8.185415e+002,3.338184e+001
8.195057e+002,3.171912e+001
8.204700e+002,3.101843e+001
8.214342e+002,3.398163e+001
8.223984e+002,3.892932e+001
8.233627e+002,4.109686e+001
8.243269e+002,3.758234e+001
8.252911e+002,3.409265e+001
8.262554e+002,3.420898e+001
8.272196e+002,3.577600e+001
8.281838e+002,3.629523e+001
8.291481e+002,3.498987e+001
8.301123e+002,3.349030e+001
8.310765e+002,3.515363e+001
8.320408e+002,3.931281e+001
8.330050e+002,3.986066e+001
8.339692e+002,3.573145e+001
8.349335e+002,3.076196e+001
8.358977e+002,2.899829e+001
8.368619e+002,3.110510e+001
8.378262e+002,3.382178e+001
8.387904e+002,3.776630e+001
8.397546e+002,4.057318e+001
8.407189e+002,4.136938e+001
8.416831e+002,4.079980e+001
8.426473e+002,3.981671e+001
8.436116e+002,3.869873e+001
8.445758e+002,3.826636e+001
8.455400e+002,3.896960e+001
8.465043e+002,3.982477e+001
8.474685e+002,4.069855e+001
8.484327e+002,4.184027e+001
8.493970e+002,4.323224e+001
8.503612e+002,4.416583e+001
8.513254e+002,4.432880e+001
8.522897e+002,4.406403e+001
8.532539e+002,4.335962e+001
8.542181e+002,4.165021e+001
8.551824e+002,3.770099e+001
8.561466e+002,3.269830e+001
8.571108e+002,3.246295e+001
8.580751e+002,4.152496e+001
8.590393e+002,4.846899e+001
8.600035e+002,4.926910e+001
8.609678e+002,4.729114e+001
8.619320e+002,4.583179e+001
8.628962e+002,4.631458e+001
8.638605e+002,4.841913e+001
8.648247e+002,5.284540e+001
8.657889e+002,5.816852e+001
8.667532e+002,6.166510e+001
8.677174e+002,6.295837e+001
8.686816e+002,6.254510e+001
8.696459e+002,6.086853e+001
8.706101e+002,5.794000e+001
8.715743e+002,5.596008e+001
8.725386e+002,5.448199e+001
8.735028e+002,5.447125e+001
8.744670e+002,5.641663e+001
8.754313e+002,5.918439e+001
8.763955e+002,6.129645e+001
8.773597e+002,6.258392e+001
8.783240e+002,6.318231e+001
8.792882e+002,6.239642e+001
8.802524e+002,6.111926e+001
8.812167e+002,6.018774e+001
8.821809e+002,5.980701e+001
8.831451e+002,5.983264e+001
8.841094e+002,6.024817e+001
8.850736e+002,6.133386e+001
8.860378e+002,6.130151e+001
8.870021e+002,5.943042e+001
8.879663e+002,5.793475e+001
8.889305e+002,5.803876e+001
8.898948e+002,5.927521e+001
8.908590e+002,5.992761e+001
8.918232e+002,5.875348e+001
8.927875e+002,6.006171e+001
8.937517e+002,6.754254e+001
8.947159e+002,7.558490e+001
8.956802e+002,7.862604e+001
8.966444e+002,7.562274e+001
8.976086e+002,7.086243e+001
8.985729e+002,6.879077e+001
8.995371e+002,6.873102e+001
9.005013e+002,6.884973e+001
9.014656e+002,6.927448e+001
9.024298e+002,6.967761e+001
9.033940e+002,6.931812e+001
9.043583e+002,6.820593e+001
9.053225e+002,6.976257e+001
9.062867e+002,7.848474e+001
9.072510e+002,8.311108e+001
9.082152e+002,8.158783e+001
9.091794e+002,7.821698e+001
9.101437e+002,7.706042e+001
9.111079e+002,7.871362e+001
9.120721e+002,8.050146e+001
9.130364e+002,8.012634e+001
9.140006e+002,7.912036e+001
9.149648e+002,7.890808e+001
9.159291e+002,7.947870e+001
9.168933e+002,7.990826e+001
9.178575e+002,7.932440e+001
9.188218e+002,7.799219e+001
9.197860e+002,7.795660e+001
9.207502e+002,7.905573e+001
9.217145e+002,7.878296e+001
9.226787e+002,7.647070e+001
9.236429e+002,7.402612e+001
9.246072e+002,7.389264e+001
9.255714e+002,7.635181e+001
9.265356e+002,7.747455e+001
9.274999e+002,7.462921e+001
9.284641e+002,7.205530e+001
9.294283e+002,7.209064e+001
9.303926e+002,7.366138e+001
9.313568e+002,7.458655e+001
9.323210e+002,7.371759e+001
9.332853e+002,7.159888e+001
9.342495e+002,6.764703e+001
9.352137e+002,6.324091e+001
9.361780e+002,6.168475e+001
9.371422e+002,6.401721e+001
9.381064e+002,6.800806e+001
9.390707e+002,7.010199e+001
9.400349e+002,6.932813e+001
9.409991e+002,6.946857e+001
9.419634e+002,7.062592e+001
9.429276e+002,7.213464e+001
9.438918e+002,7.438147e+001
9.448561e+002,7.691412e+001
9.458203e+002,7.895380e+001
9.467845e+002,8.035522e+001
9.477488e+002,8.186743e+001
9.487130e+002,8.425238e+001
9.496772e+002,8.659528e+001
9.506415e+002,8.847656e+001
9.516057e+002,8.961127e+001
9.525699e+002,8.922803e+001
9.535342e+002,8.642505e+001
9.544984e+002,8.158020e+001
9.554626e+002,8.037585e+001
9.564269e+002,8.437054e+001
9.573911e+002,8.757684e+001
9.583553e+002,8.675836e+001
9.593196e+002,8.462250e+001
9.602838e+002,8.638776e+001
9.612480e+002,9.357477e+001
9.622123e+002,9.817499e+001
9.631765e+002,9.586139e+001
9.641407e+002,9.295471e+001
9.651050e+002,9.282324e+001
9.660692e+002,9.401599e+001
9.670334e+002,9.282794e+001
9.679977e+002,8.718536e+001
9.689619e+002,8.038025e+001
9.699261e+002,7.910529e+001
9.708904e+002,8.124744e+001
9.718546e+002,8.245294e+001
9.728188e+002,8.151477e+001
9.737831e+002,7.941962e+001
9.747473e+002,7.704474e+001
9.757115e+002,7.391394e+001
9.766758e+002,7.429279e+001
9.776400e+002,8.246259e+001
9.786042e+002,8.980688e+001
9.795685e+002,9.453949e+001
9.805327e+002,9.643359e+001
9.814969e+002,9.521118e+001
9.824612e+002,9.108478e+001
9.834254e+002,8.706061e+001
9.843896e+002,8.507086e+001
9.853539e+002,8.454474e+001
9.863181e+002,8.555792e+001
9.872823e+002,8.749664e+001
9.882466e+002,8.932220e+001
9.892108e+002,9.065179e+001
9.901750e+002,9.241064e+001
9.911393e+002,9.579498e+001
9.921035e+002,1.002635e+002
9.930677e+002,1.042129e+002
9.940320e+002,1.077419e+002
9.949962e+002,1.117032e+002
9.959604e+002,1.163561e+002
9.969247e+002,1.219250e+002
9.978889e+002,1.301106e+002
9.988531e+002,1.447607e+002
9.998174e+002,1.565192e+002
1.000782e+003,1.594215e+002
1.001746e+003,1.571026e+002
1.002710e+003,1.542424e+002
1.003674e+003,1.530793e+002
1.004639e+003,1.530562e+002
1.005603e+003,1.533130e+002
1.006567e+003,1.536760e+002
1.007531e+003,1.538919e+002
1.008495e+003,1.541532e+002
1.009460e+003,1.541230e+002
1.010424e+003,1.532470e+002
1.011388e+003,1.520781e+002
1.012352e+003,1.528493e+002
1.013317e+003,1.580607e+002
1.014281e+003,1.596486e+002
1.015245e+003,1.533617e+002
1.016209e+003,1.444991e+002
1.017174e+003,1.366008e+002
1.018138e+003,1.303033e+002
1.019102e+003,1.242438e+002
1.020066e+003,1.173297e+002
1.021031e+003,1.106810e+002
1.021995e+003,1.064832e+002
1.022959e+003,1.038196e+002
1.023923e+003,1.023032e+002
1.024887e+003,1.024403e+002
1.025852e+003,1.023191e+002
1.026816e+003,9.867657e+001
1.027780e+003,9.089349e+001
1.028744e+003,8.466870e+001
1.029709e+003,8.073370e+001
1.030673e+003,7.774878e+001
1.031637e+003,7.551752e+001
1.032601e+003,7.359625e+001
1.033566e+003,7.161578e+001
1.034530e+003,6.961511e+001
1.035494e+003,6.817651e+001
1.036458e+003,6.754974e+001
1.037422e+003,6.777899e+001
1.038387e+003,6.959247e+001
1.039351e+003,7.260632e+001
1.040315e+003,7.489935e+001
1.041279e+003,7.512097e+001
1.042244e+003,7.401154e+001
1.043208e+003,7.411908e+001
1.044172e+003,7.568890e+001
1.045136e+003,7.702777e+001
1.046101e+003,7.917645e+001
1.047065e+003,8.060632e+001
1.048029e+003,7.970367e+001
1.048993e+003,7.687366e+001
1.049958e+003,7.403662e+001
1.050922e+003,7.195367e+001
1.051886e+003,7.146741e+001
1.052850e+003,7.410480e+001
1.053814e+003,7.809698e+001
1.054779e+003,8.152527e+001
1.055743e+003,8.372064e+001
1.056707e+003,8.445892e+001
1.057671e+003,8.337646e+001
1.058636e+003,8.034271e+001
1.059600e+003,7.892377e+001
1.060564e+003,8.187286e+001
1.061528e+003,8.377545e+001
1.062493e+003,8.218597e+001
1.063457e+003,7.928180e+001
1.064421e+003,7.828033e+001
1.065385e+003,7.969287e+001
1.066349e+003,7.992017e+001
1.067314e+003,7.566156e+001
1.068278e+003,7.151086e+001
1.069242e+003,7.089795e+001
1.070206e+003,7.277533e+001
1.071171e+003,7.569708e+001
1.072135e+003,7.850256e+001
1.073099e+003,7.981732e+001
1.074063e+003,7.756305e+001
1.075028e+003,7.144214e+001
1.075992e+003,6.849933e+001
1.076956e+003,7.001398e+001
1.077920e+003,7.100775e+001
1.078885e+003,6.908521e+001
1.079849e+003,6.640814e+001
1.080813e+003,6.715729e+001
1.081777e+003,7.270569e+001
1.082741e+003,7.758527e+001
1.083706e+003,7.749506e+001
1.084670e+003,7.611511e+001
1.085634e+003,7.529816e+001
1.086598e+003,7.478326e+001
1.087563e+003,7.369275e+001
1.088527e+003,7.182581e+001
1.089491e+003,7.002362e+001
1.090455e+003,6.904565e+001
1.091420e+003,6.855225e+001
1.092384e+003,6.930408e+001
1.093348e+003,7.140790e+001
1.094312e+003,7.368994e+001
1.095276e+003,7.668073e+001
1.096241e+003,7.996356e+001
1.097205e+003,8.085181e+001
1.098169e+003,7.760437e+001
1.099133e+003,7.482385e+001
1.100098e+003,7.446820e+001
1.101062e+003,7.535059e+001
1.102026e+003,7.728522e+001
1.102990e+003,7.986322e+001
1.103955e+003,8.259393e+001
1.104919e+003,8.505554e+001
1.105883e+003,8.661823e+001
1.106847e+003,8.572528e+001
1.107812e+003,8.233075e+001
1.108776e+003,8.206757e+001
1.109740e+003,8.688428e+001
1.110704e+003,9.130823e+001
1.111668e+003,9.064392e+001
1.112633e+003,8.678546e+001
1.113597e+003,8.699756e+001
1.114561e+003,9.389832e+001
1.115525e+003,9.912842e+001
1.116490e+003,9.874152e+001
1.117454e+003,9.723523e+001
1.118418e+003,9.760211e+001
1.119382e+003,1.000447e+002
1.120347e+003,1.032070e+002
1.121311e+003,1.058156e+002
1.122275e+003,1.074735e+002
1.123239e+003,1.086597e+002
1.124203e+003,1.101893e+002
1.125168e+003,1.132011e+002
1.126132e+003,1.188207e+002
1.127096e+003,1.236895e+002
1.128060e+003,1.233761e+002
1.129025e+003,1.193654e+002
1.129989e+003,1.202787e+002
1.130953e+003,1.293233e+002
1.131917e+003,1.366708e+002
1.132882e+003,1.396676e+002
1.133846e+003,1.409861e+002
1.134810e+003,1.406531e+002
1.135774e+003,1.403010e+002
1.136739e+003,1.426851e+002
1.137703e+003,1.492776e+002
1.138667e+003,1.583490e+002
1.139631e+003,1.672735e+002
1.140595e+003,1.760107e+002
1.141560e+003,1.851185e+002
1.142524e+003,1.943906e+002
1.143488e+003,2.065265e+002
1.144452e+003,2.239621e+002
1.145417e+003,2.455380e+002
1.146381e+003,2.671301e+002
1.147345e+003,2.884402e+002
1.148309e+003,3.096745e+002
1.149274e+003,3.307692e+002
1.150238e+003,3.525311e+002
1.151202e+003,3.765740e+002
1.152166e+003,4.018880e+002
1.153130e+003,4.271072e+002
1.154095e+003,4.507859e+002
1.155059e+003,4.701678e+002
1.156023e+003,4.827084e+002
1.156987e+003,4.878735e+002
1.157952e+003,4.845648e+002
1.158916e+003,4.730660e+002
1.159880e+003,4.583877e+002
1.160844e+003,4.411523e+002
1.161809e+003,4.211001e+002
1.162773e+003,3.994180e+002
1.163737e+003,3.761589e+002
1.164701e+003,3.513817e+002
1.165666e+003,3.212835e+002
1.166630e+003,2.945380e+002
1.167594e+003,2.743668e+002
1.168558e+003,2.593961e+002
1.169522e+003,2.475355e+002
1.170487e+003,2.381454e+002
1.171451e+003,2.327842e+002
1.172415e+003,2.336465e+002
1.173379e+003,2.391144e+002
1.174344e+003,2.418768e+002
1.175308e+003,2.424215e+002
1.176272e+003,2.402276e+002
1.177236e+003,2.333149e+002
1.178201e+003,2.253511e+002
1.179165e+003,2.215507e+002
1.180129e+003,2.215606e+002
1.181093e+003,2.178502e+002
1.182057e+003,2.057618e+002
1.183022e+003,1.950441e+002
1.183986e+003,1.887752e+002
1.184950e+003,1.858102e+002
1.185914e+003,1.862493e+002
1.186879e+003,1.891629e+002
1.187843e+003,1.921156e+002
1.188807e+003,1.929367e+002
1.189771e+003,1.923152e+002
1.190736e+003,1.931872e+002
1.191700e+003,1.957496e+002
1.192664e+003,1.970262e+002
1.193628e+003,1.972645e+002
1.194593e+003,1.962529e+002
1.195557e+003,1.930505e+002
1.196521e+003,1.882306e+002
1.197485e+003,1.845223e+002
1.198449e+003,1.833860e+002
1.199414e+003,1.803339e+002
1.200378e+003,1.695997e+002
1.201342e+003,1.597645e+002
1.202306e+003,1.577135e+002
1.203271e+003,1.603876e+002
1.204235e+003,1.607253e+002
1.205199e+003,1.554391e+002
1.206163e+003,1.476658e+002
1.207128e+003,1.425190e+002
1.208092e+003,1.402546e+002
1.209056e+003,1.364474e+002
1.210020e+003,1.306507e+002
1.210984e+003,1.246443e+002
1.211949e+003,1.189484e+002
1.212913e+003,1.130398e+002
1.213877e+003,1.061575e+002
1.214841e+003,9.846423e+001
1.215806e+003,9.165613e+001
1.216770e+003,8.630109e+001
1.217734e+003,8.191852e+001
1.218698e+003,7.730658e+001
1.219663e+003,7.325000e+001
1.220627e+003,7.121869e+001
1.221591e+003,7.116132e+001
1.222555e+003,7.154565e+001
1.223520e+003,7.106989e+001
1.224484e+003,7.002515e+001
1.225448e+003,6.876483e+001
1.226412e+003,6.718927e+001
1.227376e+003,6.526489e+001
1.228341e+003,6.095184e+001
1.229305e+003,5.818884e+001
1.230269e+003,6.047083e+001
1.231233e+003,6.538501e+001
1.232198e+003,6.784741e+001
1.233162e+003,6.666272e+001
1.234126e+003,6.605542e+001
1.235090e+003,7.014301e+001
1.236055e+003,7.440942e+001
1.237019e+003,7.344519e+001
1.237983e+003,6.865747e+001
1.238947e+003,6.419196e+001
1.239911e+003,6.206445e+001
1.240876e+003,6.207959e+001
1.241840e+003,6.407367e+001
1.242804e+003,6.831427e+001
1.243768e+003,7.020209e+001
1.244733e+003,6.658282e+001
1.245697e+003,6.480750e+001
1.246661e+003,6.612683e+001
1.247625e+003,6.783148e+001
1.248590e+003,6.795563e+001
1.249554e+003,6.729248e+001
1.250518e+003,6.806604e+001
1.251482e+003,7.108258e+001
1.252447e+003,7.446198e+001
1.253411e+003,7.625580e+001
1.254375e+003,7.748389e+001
1.255339e+003,8.024341e+001
1.256303e+003,8.473035e+001
1.257268e+003,8.827490e+001
1.258232e+003,8.822522e+001
1.259196e+003,8.662665e+001
1.260160e+003,8.909229e+001
1.261125e+003,9.708380e+001
1.262089e+003,1.029509e+002
1.263053e+003,1.025198e+002
1.264017e+003,1.030726e+002
1.264982e+003,1.093151e+002
1.265946e+003,1.155114e+002
1.266910e+003,1.151854e+002
1.267874e+003,1.091495e+002
1.268839e+003,1.034952e+002
1.269803e+003,1.022989e+002
1.270767e+003,1.033707e+002
1.271731e+003,1.027795e+002
1.272695e+003,1.007051e+002
1.273660e+003,9.790643e+001
1.274624e+003,9.323254e+001
1.275588e+003,8.869794e+001
1.276552e+003,8.624719e+001
1.277517e+003,8.520123e+001
1.278481e+003,8.322498e+001
1.279445e+003,7.982019e+001
1.280409e+003,7.859509e+001
1.281374e+003,8.411926e+001
1.282338e+003,8.750665e+001
1.283302e+003,8.207220e+001
1.284266e+003,7.337885e+001
1.285230e+003,6.712561e+001
1.286195e+003,6.455597e+001
1.287159e+003,6.471973e+001
1.288123e+003,6.709235e+001
1.289087e+003,7.056274e+001
1.290052e+003,7.063196e+001
1.291016e+003,6.556366e+001
1.291980e+003,6.167645e+001
1.292944e+003,5.870001e+001
1.293909e+003,5.619922e+001
1.294873e+003,5.423407e+001
1.295837e+003,5.332520e+001
1.296801e+003,5.439050e+001
1.297766e+003,5.737592e+001
1.298730e+003,6.047919e+001
1.299694e+003,6.301636e+001
1.300658e+003,6.398694e+001
1.301622e+003,6.113660e+001
1.302587e+003,5.703424e+001
1.303551e+003,5.584088e+001
1.304515e+003,5.829376e+001
1.305479e+003,6.192114e+001
1.306444e+003,6.472241e+001
1.307408e+003,6.643829e+001
1.308372e+003,6.659259e+001
1.309336e+003,6.413629e+001
1.310301e+003,6.326001e+001
1.311265e+003,6.663342e+001
1.312229e+003,6.910938e+001
1.313193e+003,6.851666e+001
1.314157e+003,6.650171e+001
1.315122e+003,6.468127e+001
1.316086e+003,6.323010e+001
1.317050e+003,6.152246e+001
1.318014e+003,5.934381e+001
1.318979e+003,5.723895e+001
1.319943e+003,5.563928e+001
1.320907e+003,5.487439e+001
1.321871e+003,5.555304e+001
1.322836e+003,5.745038e+001
1.323800e+003,5.925989e+001
1.324764e+003,6.008051e+001
1.325728e+003,6.069299e+001
1.326693e+003,6.268823e+001
1.327657e+003,6.587360e+001
1.328621e+003,6.692029e+001
1.329585e+003,6.442792e+001
1.330549e+003,6.347961e+001
1.331514e+003,6.651685e+001
1.332478e+003,7.006879e+001
1.333442e+003,7.176892e+001
1.334406e+003,7.141327e+001
1.335371e+003,6.890802e+001
1.336335e+003,6.433276e+001
1.337299e+003,5.968164e+001
1.338263e+003,5.874030e+001
1.339228e+003,6.211670e+001
1.340192e+003,6.367371e+001
1.341156e+003,6.253357e+001
1.342120e+003,6.097467e+001
1.343084e+003,5.757581e+001
1.344049e+003,5.451135e+001
1.345013e+003,5.403027e+001
1.345977e+003,5.614148e+001
1.346941e+003,6.023761e+001
1.347906e+003,6.626575e+001
1.348870e+003,7.110754e+001
1.349834e+003,7.119629e+001
1.350798e+003,6.822241e+001
1.351763e+003,6.642871e+001
1.352727e+003,6.563470e+001
1.353691e+003,6.349152e+001
1.354655e+003,5.868286e+001
1.355620e+003,5.410956e+001
1.356584e+003,5.404333e+001
1.357548e+003,5.796661e+001
1.358512e+003,5.944275e+001
1.359476e+003,5.646826e+001
1.360441e+003,5.398254e+001
1.361405e+003,5.322052e+001
1.362369e+003,5.375916e+001
1.363333e+003,5.719995e+001
1.364298e+003,6.101794e+001
1.365262e+003,6.109753e+001
1.366226e+003,5.715759e+001
1.367190e+003,5.329663e+001
1.368155e+003,5.317554e+001
1.369119e+003,5.573700e+001
1.370083e+003,5.787976e+001
1.371047e+003,6.003088e+001
1.372011e+003,6.076917e+001
1.372976e+003,5.749341e+001
1.373940e+003,5.517859e+001
1.374904e+003,5.753210e+001
1.375868e+003,6.107184e+001
1.376833e+003,6.042456e+001
1.377797e+003,5.572205e+001
1.378761e+003,5.232990e+001
1.379725e+003,5.274396e+001
1.380690e+003,5.481897e+001
1.381654e+003,5.761707e+001
1.382618e+003,6.029144e+001
1.383582e+003,6.083167e+001
1.384547e+003,5.958728e+001
1.385511e+003,5.979425e+001
1.386475e+003,6.324554e+001
1.387439e+003,6.743091e+001
1.388403e+003,6.869757e+001
1.389368e+003,6.699640e+001
1.390332e+003,6.434283e+001
1.391296e+003,6.029517e+001
1.392260e+003,5.699170e+001
1.393225e+003,5.346179e+001
1.394189e+003,5.192834e+001
1.395153e+003,5.597968e+001
1.396117e+003,6.191681e+001
1.397082e+003,6.325677e+001
1.398046e+003,5.925189e+001
1.399010e+003,5.608032e+001
1.399974e+003,5.918494e+001
1.400938e+003,6.562006e+001
1.401903e+003,6.760632e+001
1.402867e+003,6.495874e+001
1.403831e+003,6.477765e+001
1.404795e+003,6.847601e+001
1.405760e+003,7.131531e+001
1.406724e+003,7.021637e+001
1.407688e+003,6.670068e+001
1.408652e+003,6.310016e+001
1.409617e+003,6.031281e+001
1.410581e+003,5.856500e+001
1.411545e+003,5.796564e+001
1.412509e+003,5.821942e+001
1.413474e+003,5.919446e+001
1.414438e+003,5.989056e+001
1.415402e+003,5.982568e+001
1.416366e+003,5.938824e+001
1.417330e+003,5.816864e+001
1.418295e+003,5.561090e+001
1.419259e+003,5.377026e+001
1.420223e+003,5.520996e+001
1.421187e+003,5.909613e+001
1.422152e+003,6.222870e+001
1.423116e+003,6.501654e+001
1.424080e+003,6.743823e+001
1.425044e+003,6.948071e+001
1.426009e+003,7.000665e+001
1.426973e+003,6.651215e+001
1.427937e+003,6.237744e+001
1.428901e+003,6.257910e+001
1.429865e+003,6.692126e+001
1.430830e+003,7.079474e+001
1.431794e+003,7.091577e+001
1.432758e+003,6.858325e+001
1.433722e+003,6.684229e+001
1.434687e+003,6.628271e+001
1.435651e+003,6.861530e+001
1.436615e+003,7.489905e+001
1.437579e+003,7.895355e+001
1.438544e+003,7.988159e+001
1.439508e+003,7.925763e+001
1.440472e+003,7.757361e+001
1.441436e+003,7.597992e+001
1.442401e+003,7.617932e+001
1.443365e+003,7.823029e+001
1.444329e+003,8.006958e+001
1.445293e+003,8.033398e+001
1.446257e+003,7.975916e+001
1.447222e+003,7.939136e+001
1.448186e+003,7.905194e+001
1.449150e+003,7.810046e+001
1.450114e+003,7.619012e+001
1.451079e+003,7.413049e+001
1.452043e+003,7.226837e+001
1.453007e+003,7.123315e+001
1.453971e+003,7.211896e+001
1.454936e+003,7.433203e+001
1.455900e+003,7.469348e+001
1.456864e+003,7.200592e+001
1.457828e+003,7.035498e+001
1.458792e+003,7.307611e+001
1.459757e+003,7.625159e+001
1.460721e+003,7.659174e+001
1.461685e+003,7.496509e+001
1.462649e+003,7.366925e+001
1.463614e+003,7.345239e+001
1.464578e+003,7.306122e+001
1.465542e+003,7.118665e+001
1.466506e+003,6.800366e+001
1.467471e+003,6.407227e+001
1.468435e+003,5.908850e+001
1.469399e+003,5.789264e+001
1.470363e+003,6.244812e+001
1.471328e+003,6.728638e+001
1.472292e+003,7.207385e+001
1.473256e+003,7.489117e+001
1.474220e+003,7.460718e+001
1.475184e+003,7.246918e+001
1.476149e+003,6.936169e+001
1.477113e+003,6.590601e+001
1.478077e+003,6.444873e+001
1.479041e+003,6.784314e+001
1.480006e+003,7.438068e+001
1.480970e+003,7.713525e+001
1.481934e+003,7.428668e+001
1.482898e+003,7.288586e+001
1.483863e+003,7.259357e+001
1.484827e+003,7.379077e+001
1.485791e+003,7.804364e+001
1.486755e+003,8.344189e+001
1.487719e+003,8.892395e+001
1.488684e+003,9.336188e+001
1.489648e+003,9.397656e+001
1.490612e+003,9.037787e+001
1.491576e+003,8.901868e+001
1.492541e+003,9.573199e+001
1.493505e+003,1.063867e+002
1.494469e+003,1.115906e+002
1.495433e+003,1.118809e+002
1.496398e+003,1.141109e+002
1.497362e+003,1.203230e+002
1.498326e+003,1.273196e+002
1.499290e+003,1.331644e+002
1.500255e+003,1.388676e+002
1.501219e+003,1.448703e+002
1.502183e+003,1.514805e+002
1.503147e+003,1.613099e+002
1.504111e+003,1.753558e+002
1.505076e+003,1.903839e+002
1.506040e+003,2.044376e+002
1.507004e+003,2.190567e+002
1.507968e+003,2.355300e+002
1.508933e+003,2.537045e+002
1.509897e+003,2.726733e+002
1.510861e+003,2.932372e+002
1.511825e+003,3.189903e+002
1.512790e+003,3.525796e+002
1.513754e+003,3.907907e+002
1.514718e+003,4.284581e+002
1.515682e+003,4.650685e+002
1.516646e+003,5.033215e+002
1.517611e+003,5.472054e+002
1.518575e+003,5.850909e+002
1.519539e+003,6.135459e+002
1.520503e+003,6.359467e+002
1.521468e+003,6.535444e+002
1.522432e+003,6.657751e+002
1.523396e+003,6.718682e+002
1.524360e+003,6.716177e+002
1.525325e+003,6.655178e+002
1.526289e+003,6.540495e+002
1.527253e+003,6.369840e+002
1.528217e+003,6.131934e+002
1.529182e+003,5.830549e+002
1.530146e+003,5.519840e+002
1.531110e+003,5.228842e+002
1.532074e+003,4.859899e+002
1.533039e+003,4.347774e+002
1.534003e+003,3.811525e+002
1.534967e+003,3.276848e+002
1.535931e+003,2.785660e+002
1.536896e+003,2.370229e+002
1.537860e+003,2.037747e+002
1.538824e+003,1.790742e+002
1.539788e+003,1.623876e+002
1.540752e+003,1.497092e+002
1.541717e+003,1.361638e+002
1.542681e+003,1.225795e+002
1.543645e+003,1.123589e+002
1.544609e+003,1.079565e+002
1.545573e+003,1.022482e+002
1.546538e+003,9.191394e+001
1.547502e+003,8.312616e+001
1.548466e+003,7.941687e+001
1.549430e+003,7.858826e+001
1.550395e+003,7.911731e+001
1.551359e+003,7.960449e+001
1.552323e+003,7.741522e+001
1.553287e+003,7.193762e+001
1.554252e+003,6.663348e+001
1.555216e+003,6.440417e+001
1.556180e+003,6.451471e+001
1.557144e+003,6.596399e+001
1.558109e+003,6.898480e+001
1.559073e+003,6.989575e+001
1.560037e+003,6.743408e+001
1.561001e+003,6.362598e+001
1.561966e+003,5.855273e+001
1.562930e+003,5.439026e+001
1.563894e+003,5.294470e+001
1.564858e+003,5.336768e+001
1.565823e+003,5.412463e+001
1.566787e+003,5.476471e+001
1.567751e+003,5.466693e+001
1.568715e+003,5.348395e+001
1.569679e+003,5.210431e+001
1.570644e+003,5.134045e+001
1.571608e+003,5.074823e+001
1.572572e+003,4.979700e+001
1.573536e+003,4.878387e+001
1.574500e+003,4.912811e+001
1.575465e+003,5.194598e+001
1.576429e+003,5.479950e+001
1.577393e+003,5.463696e+001
1.578357e+003,5.324548e+001
1.579322e+003,5.512946e+001
1.580286e+003,6.041486e+001
1.581250e+003,6.448315e+001
1.582214e+003,6.570282e+001
1.583179e+003,6.629639e+001
1.584143e+003,6.772406e+001
1.585107e+003,6.897778e+001
1.586071e+003,7.012860e+001
1.587036e+003,7.108203e+001
1.588000e+003,6.901300e+001
1.588964e+003,6.266699e+001
1.589928e+003,5.725079e+001
1.590893e+003,5.640363e+001
1.591857e+003,5.842743e+001
1.592821e+003,6.155719e+001
1.593785e+003,6.555994e+001
1.594750e+003,6.843109e+001
1.595714e+003,6.954175e+001
1.596678e+003,7.052374e+001
1.597642e+003,7.280969e+001
1.598606e+003,7.409845e+001
1.599571e+003,7.069714e+001
1.600535e+003,6.669147e+001
1.601499e+003,6.856433e+001
1.602463e+003,7.519324e+001
1.603427e+003,7.922223e+001
1.604392e+003,7.757739e+001
1.605356e+003,7.378680e+001
1.606320e+003,7.111169e+001
1.607284e+003,6.921356e+001
1.608249e+003,6.686194e+001
1.609213e+003,6.403265e+001
1.610177e+003,6.201013e+001
1.611141e+003,6.152045e+001
1.612106e+003,6.060059e+001
1.613070e+003,5.705963e+001
1.614034e+003,5.379840e+001
1.614998e+003,5.377869e+001
1.615963e+003,5.520892e+001
1.616927e+003,5.444855e+001
1.617891e+003,5.115540e+001
1.618855e+003,4.818768e+001
1.619820e+003,4.697223e+001
1.620784e+003,4.664282e+001
1.621748e+003,4.742004e+001
1.622712e+003,4.958276e+001
1.623677e+003,5.017413e+001
1.624641e+003,4.879565e+001
1.625605e+003,4.855206e+001
1.626569e+003,4.989673e+001
1.627533e+003,5.022144e+001
1.628498e+003,4.734039e+001
1.629462e+003,4.490082e+001
1.630426e+003,4.724524e+001
1.631390e+003,5.193878e+001
1.632354e+003,5.285138e+001
1.633319e+003,4.888025e+001
1.634283e+003,4.565326e+001
1.635247e+003,4.772589e+001
1.636211e+003,5.136639e+001
1.637176e+003,4.904962e+001
1.638140e+003,4.161542e+001
1.639104e+003,3.905823e+001
1.640068e+003,4.286426e+001
1.641033e+003,4.601056e+001
1.641997e+003,4.776202e+001
1.642961e+003,4.758539e+001
1.643925e+003,4.207886e+001
1.644890e+003,3.710339e+001
1.645854e+003,3.992523e+001
1.646818e+003,4.789508e+001
1.647782e+003,5.363330e+001
1.648747e+003,5.471735e+001
1.649711e+003,5.287939e+001
1.650675e+003,4.914459e+001
1.651639e+003,4.536346e+001
1.652604e+003,4.510925e+001
1.653568e+003,4.797174e+001
1.654532e+003,5.036438e+001
1.655496e+003,5.255225e+001
1.656460e+003,5.266815e+001
1.657425e+003,4.932904e+001
1.658389e+003,4.528900e+001
1.659353e+003,4.111182e+001
1.660317e+003,3.764410e+001
1.661281e+003,3.575171e+001
1.662246e+003,3.520099e+001
1.663210e+003,3.581384e+001
1.664174e+003,3.760791e+001
1.665138e+003,3.890472e+001
1.666103e+003,3.765063e+001
1.667067e+003,3.537781e+001
1.668031e+003,3.617261e+001
1.668995e+003,3.980072e+001
1.669960e+003,4.078656e+001
1.670924e+003,3.816876e+001
1.671888e+003,3.590784e+001
1.672852e+003,3.464142e+001
1.673817e+003,3.431909e+001
1.674781e+003,3.597314e+001
1.675745e+003,3.762445e+001
1.676709e+003,3.684564e+001
1.677674e+003,3.407031e+001
1.678638e+003,3.086029e+001
1.679602e+003,2.775159e+001
1.680566e+003,2.573627e+001
1.681531e+003,2.627582e+001
1.682495e+003,2.808044e+001
1.683459e+003,2.814691e+001
1.684423e+003,2.663501e+001
1.685387e+003,2.689349e+001
1.686352e+003,2.983984e+001
1.687316e+003,3.055554e+001
1.688280e+003,2.622382e+001
1.689244e+003,2.162274e+001
1.690208e+003,1.987091e+001
1.691173e+003,1.977618e+001
1.692137e+003,2.110236e+001
1.693101e+003,2.352344e+001
1.694065e+003,2.511536e+001
1.695030e+003,2.496802e+001
1.695994e+003,2.394751e+001
1.696958e+003,2.190070e+001
1.697922e+003,2.062897e+001
1.698887e+003,2.342804e+001
1.699851e+003,2.879791e+001
1.700815e+003,3.164380e+001
1.701779e+003,3.132153e+001
1.702744e+003,3.011572e+001
1.703708e+003,2.904608e+001
1.704672e+003,2.829034e+001
1.705636e+003,2.749963e+001
1.706601e+003,2.620374e+001
1.707565e+003,2.423254e+001
1.708529e+003,2.221375e+001
1.709493e+003,2.115332e+001
1.710458e+003,2.117474e+001
1.711422e+003,2.129834e+001
1.712386e+003,2.137463e+001
1.713350e+003,2.187811e+001
1.714314e+003,2.285950e+001
1.715279e+003,2.382587e+001
1.716243e+003,2.443707e+001
1.717207e+003,2.474921e+001
1.718171e+003,2.508142e+001
1.719135e+003,2.562610e+001
1.720100e+003,2.572852e+001
1.721064e+003,2.483252e+001
1.722028e+003,2.279626e+001
1.722992e+003,1.923145e+001
1.723957e+003,1.522046e+001
1.724921e+003,1.439435e+001
1.725885e+003,1.655670e+001
1.726849e+003,1.749799e+001
1.727814e+003,1.730219e+001
1.728778e+003,1.657898e+001
1.729742e+003,1.412274e+001
1.730706e+003,1.221924e+001
1.731671e+003,1.366217e+001
1.732635e+003,1.629718e+001
1.733599e+003,1.642529e+001
1.734563e+003,1.403949e+001
1.735528e+003,1.123486e+001
1.736492e+003,8.905457e+000
1.737456e+003,7.514160e+000
1.738420e+003,7.730286e+000
1.739385e+003,8.779724e+000
1.740349e+003,9.304810e+000
1.741313e+003,9.840637e+000
1.742277e+003,8.914734e+000
1.743241e+003,5.183044e+000
1.744206e+003,2.972595e+000
1.745170e+003,2.827698e+000
1.746134e+003,3.813354e+000
1.747098e+003,6.549683e+000
1.748063e+003,9.210999e+000
1.749027e+003,9.613525e+000
1.749991e+003,8.265625e+000
1.750955e+003,6.753296e+000
1.751919e+003,5.719116e+000
1.752884e+003,5.385742e+000
1.753848e+003,5.959106e+000
1.754812e+003,6.752930e+000
1.755776e+003,6.729187e+000
1.756741e+003,6.315491e+000
1.757705e+003,5.657410e+000
1.758669e+003,3.886902e+000
1.759633e+003,3.316772e+000
1.760598e+003,5.289551e+000
1.761562e+003,6.137817e+000
1.762526e+003,4.261719e+000
1.763490e+003,2.338501e+000
1.764455e+003,2.294678e+000
1.765419e+003,3.583069e+000
1.766383e+003,4.557556e+000
1.767347e+003,5.134766e+000
1.768312e+003,7.678955e+000
1.769276e+003,1.326495e+001
1.770240e+003,1.719403e+001
1.771204e+003,1.411438e+001
1.772168e+003,7.836121e+000
1.773133e+003,6.597290e+000
1.774097e+003,9.755249e+000
1.775061e+003,1.074176e+001
1.776025e+003,8.077576e+000
1.776990e+003,6.067932e+000
1.777954e+003,7.230225e+000
1.778918e+003,8.494141e+000
1.779882e+003,6.109680e+000
1.780846e+003,2.939270e+000
1.781811e+003,4.391296e+000
1.782775e+003,8.837158e+000
1.783739e+003,1.000244e+001
1.784703e+003,6.833984e+000
1.785668e+003,4.516235e+000
1.786632e+003,5.406921e+000
1.787596e+003,6.305176e+000
1.788560e+003,5.095459e+000
1.789525e+003,3.581238e+000
1.790489e+003,3.815979e+000
1.791453e+003,5.153198e+000
1.792417e+003,6.031921e+000
1.793382e+003,6.094849e+000
1.794346e+003,5.172974e+000
1.795310e+003,2.995483e+000
1.796274e+003,1.040405e+000
1.797239e+003,1.229004e+000
1.798203e+003,3.870117e+000
1.799167e+003,8.678223e+000
1.800131e+003,1.578802e+001
1.801095e+003,1.726306e+001
1.802060e+003,1.000049e+001
1.803024e+003,4.523315e+000
1.803988e+003,2.463379e+000
1.804952e+003,9.094849e-001
1.805917e+003,-2.093628e+000
1.806881e+003,-4.790710e+000
1.807845e+003,-5.178894e+000
1.808809e+003,-3.537048e+000
1.809773e+003,-5.042725e-001
1.810738e+003,3.231323e+000
1.811702e+003,6.175476e+000
1.812666e+003,7.358215e+000
1.813630e+003,7.540161e+000
1.814595e+003,7.874512e+000
1.815559e+003,7.775940e+000
1.816523e+003,4.814697e+000
1.817487e+003,-1.343018e+000
1.818452e+003,-5.075989e+000
1.819416e+003,-5.295471e+000
1.820380e+003,-4.073181e+000
1.821344e+003,-9.094238e-001
1.822309e+003,1.089478e+000
1.823273e+003,-9.230957e-001
1.824237e+003,-3.437805e+000
1.825201e+003,-2.912720e+000
1.826166e+003,-3.495483e-001
1.827130e+003,1.686462e+000
1.828094e+003,2.551636e+000
1.829058e+003,2.409546e+000
1.830022e+003,1.220276e+000
1.830987e+003,9.240723e-002
1.831951e+003,1.309204e-001
1.832915e+003,6.674805e-001
1.833879e+003,3.575439e-001
1.834844e+003,-3.103638e-001
1.835808e+003,4.676514e-001
1.836772e+003,2.893799e+000
1.837736e+003,5.643311e+000
1.838700e+003,7.958923e+000
1.839665e+003,9.124268e+000
1.840629e+003,8.698059e+000
1.841593e+003,6.873657e+000
1.842557e+003,3.372864e+000
1.843522e+003,-1.779236e+000
1.844486e+003,-4.987244e+000
1.845450e+003,-4.942566e+000
1.846414e+003,-4.191711e+000
1.847379e+003,-2.428894e+000
1.848343e+003,-1.960266e+000
1.849307e+003,-4.306030e+000
1.850271e+003,-6.743896e+000
1.851236e+003,-7.547668e+000
1.852200e+003,-6.616516e+000
1.853164e+003,-3.448425e+000
1.854128e+003,3.315430e-001
1.855093e+003,1.125000e+000
1.856057e+003,-1.702515e+000
1.857021e+003,-4.312317e+000
1.857985e+003,-3.583679e+000
1.858949e+003,-2.022278e+000
1.859914e+003,-4.423157e+000
1.860878e+003,-9.686279e+000
1.861842e+003,-1.265881e+001
1.862806e+003,-1.347388e+001
1.863771e+003,-1.069147e+001
1.864735e+003,-2.867737e+000
1.865699e+003,1.919800e+000
1.866663e+003,-8.685913e-001
1.867627e+003,-4.896973e+000
1.868592e+003,-5.025879e+000
1.869556e+003,-3.305420e+000
1.870520e+003,-2.528564e+000
1.871484e+003,-2.710999e+000
1.872449e+003,-3.823242e+000
1.873413e+003,-5.053040e+000
1.874377e+003,-4.986938e+000
1.875341e+003,-3.978149e+000
1.876306e+003,-2.935730e+000
1.877270e+003,-2.251160e+000
1.878234e+003,-2.138855e+000
1.879198e+003,-2.742432e+000
1.880163e+003,-3.743286e+000
1.881127e+003,-4.865784e+000
1.882091e+003,-5.744507e+000
1.883055e+003,-5.771484e+000
1.884020e+003,-4.728210e+000
1.884984e+003,-2.493164e+000
1.885948e+003,1.204163e+000
1.886912e+003,4.432739e+000
1.887876e+003,2.923462e+000
1.888841e+003,-2.738098e+000
1.889805e+003,-5.828125e+000
1.890769e+003,-5.961487e+000
1.891733e+003,-5.518311e+000
1.892698e+003,-4.772095e+000
1.893662e+003,-4.252686e+000
1.894626e+003,-4.363098e+000
1.895590e+003,-4.112305e+000
1.896554e+003,-1.997986e+000
1.897519e+003,7.376709e-001
1.898483e+003,2.078064e+000
1.899447e+003,1.990051e+000
1.900411e+003,2.017761e+000
1.901376e+003,2.599243e+000
1.902340e+003,2.929626e+000
1.903304e+003,3.074036e+000
1.904268e+003,2.128967e+000
1.905233e+003,-2.082520e+000
1.906197e+003,-5.759460e+000
1.907161e+003,-3.304993e+000
1.908125e+003,1.913574e+000
1.909090e+003,2.387756e+000
1.910054e+003,-1.500183e+000
1.911018e+003,-3.153748e+000
1.911982e+003,-4.105835e-001
1.912947e+003,2.368835e+000
1.913911e+003,1.846252e+000
1.914875e+003,5.256348e-001
1.915839e+003,2.286560e+000
1.916803e+003,5.975586e+000
1.917768e+003,7.440063e+000
1.918732e+003,6.614929e+000
1.919696e+003,6.210693e+000
1.920660e+003,6.735168e+000
1.921625e+003,7.201904e+000
1.922589e+003,7.362061e+000
1.923553e+003,6.830261e+000
1.924517e+003,5.280457e+000
1.925481e+003,3.178406e+000
1.926446e+003,6.532593e-001
1.927410e+003,-1.980774e+000
1.928374e+003,-4.936279e+000
1.929338e+003,-8.190430e+000
1.930303e+003,-8.604919e+000
1.931267e+003,-3.504578e+000
1.932231e+003,6.980591e-001
1.933195e+003,-7.618408e-001
1.934160e+003,-2.884888e+000
1.935124e+003,-1.744995e+000
1.936088e+003,2.895508e-001
1.937052e+003,1.176025e+000
1.938017e+003,9.075928e-001
1.938981e+003,-1.153748e+000
1.939945e+003,-4.399475e+000
1.940909e+003,-5.968689e+000
1.941874e+003,-4.808350e+000
1.942838e+003,-3.067017e+000
1.943802e+003,-2.279541e+000
1.944766e+003,-2.306519e+000
1.945730e+003,-4.366455e+000
1.946695e+003,-8.180115e+000
1.947659e+003,-8.419678e+000
1.948623e+003,-4.862610e+000
1.949587e+003,-1.511292e+000
1.950552e+003,1.605591e+000
1.951516e+003,4.085693e+000
1.952480e+003,6.218140e+000
1.953444e+003,6.612549e+000
1.954408e+003,2.671875e+000
1.955373e+003,-2.510254e+000
1.956337e+003,-3.319092e+000
1.957301e+003,-8.166504e-001
1.958265e+003,-8.027954e-001
1.959230e+003,-3.754150e+000
1.960194e+003,-5.564514e+000
1.961158e+003,-6.988586e+000
1.962122e+003,-6.777039e+000
1.963087e+003,-2.565857e+000
1.964051e+003,1.133850e+000
1.965015e+003,2.402832e+000
1.965979e+003,2.199097e+000
1.966944e+003,1.008911e-001
1.967908e+003,-2.779724e+000
1.968872e+003,-4.355347e+000
1.969836e+003,-4.333069e+000
1.970801e+003,-3.795715e+000
1.971765e+003,-3.180847e+000
1.972729e+003,-2.191101e+000
1.973693e+003,-6.071167e-001
1.974657e+003,1.420166e+000
1.975622e+003,4.332520e+000
1.976586e+003,6.961121e+000
1.977550e+003,5.766724e+000
1.978514e+003,1.776550e+000
1.979479e+003,4.963379e-001
1.980443e+003,2.457886e+000
1.981407e+003,3.596252e+000
1.982371e+003,2.562866e+000
1.983335e+003,9.693604e-001
1.984300e+003,-3.633423e-001
1.985264e+003,-1.326050e+000
1.986228e+003,-1.258240e+000
1.987192e+003,-5.622559e-001
1.988157e+003,-1.375488e+000
1.989121e+003,-4.060730e+000
1.990085e+003,-5.445801e+000
1.991049e+003,-5.381653e+000
1.992014e+003,-3.745972e+000
1.992978e+003,1.973938e+000
1.993942e+003,5.306824e+000
1.994906e+003,1.688904e+000
1.995871e+003,-2.597778e+000
1.996835e+003,-2.900146e+000
1.997799e+003,-6.855469e-001
1.998763e+003,2.150879e+000
1.999728e+003,4.777710e+000
