5.003444e+002,4.254193e+001
5.013087e+002,4.524210e+001
5.022729e+002,4.392612e+001
5.032371e+002,4.005014e+001
5.042014e+002,3.846524e+001
5.051656e+002,3.884976e+001
5.061298e+002,3.947366e+001
5.070941e+002,3.873053e+001
5.080583e+002,3.623279e+001
5.090225e+002,3.386447e+001
5.099868e+002,3.103177e+001
5.109510e+002,2.882831e+001
5.119152e+002,2.787363e+001
5.128795e+002,2.824481e+001
5.138437e+002,2.928204e+001
5.148079e+002,3.205609e+001
5.157722e+002,3.436224e+001
5.167364e+002,3.498911e+001
5.177006e+002,3.389124e+001
5.186649e+002,3.210693e+001
5.196291e+002,3.076520e+001
5.205933e+002,2.988876e+001
5.215576e+002,2.919717e+001
5.225218e+002,2.855386e+001
5.234860e+002,2.807504e+001
5.244503e+002,2.820496e+001
5.254145e+002,2.950818e+001
5.263787e+002,2.968869e+001
5.273430e+002,2.798596e+001
5.283072e+002,2.568045e+001
5.292714e+002,2.458063e+001
5.302357e+002,2.534351e+001
5.311999e+002,2.532480e+001
5.321641e+002,2.392798e+001
5.331284e+002,2.238620e+001
5.340926e+002,2.133130e+001
5.350568e+002,2.085965e+001
5.360211e+002,2.132172e+001
5.369853e+002,2.493954e+001
5.379495e+002,2.883340e+001
5.389138e+002,2.999313e+001
5.398780e+002,2.748798e+001
5.408422e+002,2.310123e+001
5.418065e+002,2.206955e+001
5.427707e+002,2.385843e+001
5.437349e+002,2.472653e+001
5.446992e+002,2.334103e+001
5.456634e+002,2.056882e+001
5.466276e+002,1.957513e+001
5.475919e+002,2.335510e+001
5.485561e+002,2.536481e+001
5.495203e+002,2.433456e+001
5.504846e+002,2.160992e+001
5.514488e+002,1.909094e+001
5.524130e+002,1.736728e+001
5.533773e+002,1.636496e+001
5.543415e+002,1.616425e+001
5.553057e+002,1.636911e+001
5.562700e+002,1.665259e+001
5.572342e+002,1.678421e+001
5.581984e+002,1.663745e+001
5.591627e+002,1.590887e+001
5.601269e+002,1.490948e+001
5.610911e+002,1.402713e+001
5.620554e+002,1.341147e+001
5.630196e+002,1.296912e+001
5.639838e+002,1.246555e+001
5.649481e+002,1.179102e+001
5.659123e+002,1.123309e+001
5.668765e+002,1.126288e+001
5.678408e+002,1.169690e+001
5.688050e+002,1.166092e+001
5.697692e+002,9.913849e+000
5.707335e+002,8.606567e+000
5.716977e+002,8.880615e+000
5.726619e+002,9.924835e+000
5.736262e+002,1.062125e+001
5.745904e+002,1.019778e+001
5.755546e+002,9.376923e+000
5.765189e+002,9.205170e+000
5.774831e+002,9.291168e+000
5.784473e+002,9.194183e+000
5.794116e+002,8.688019e+000
5.803758e+002,7.899414e+000
5.813400e+002,6.926666e+000
5.823043e+002,5.281952e+000
5.832685e+002,4.029877e+000
5.842327e+002,3.826447e+000
5.851970e+002,4.640045e+000
5.861612e+002,5.562042e+000
5.871254e+002,6.823120e+000
5.880897e+002,7.516937e+000
5.890539e+002,7.093658e+000
5.900181e+002,5.960358e+000
5.909824e+002,4.707520e+000
5.919466e+002,3.491943e+000
5.929108e+002,3.023041e+000
5.938751e+002,4.428253e+000
5.948393e+002,6.696747e+000
5.958035e+002,8.195648e+000
5.967678e+002,7.778076e+000
5.977320e+002,5.875397e+000
5.986962e+002,5.491821e+000
5.996605e+002,6.460419e+000
6.006247e+002,7.087524e+000
6.015889e+002,6.434326e+000
6.025532e+002,4.627655e+000
6.035174e+002,3.268372e+000
6.044816e+002,2.535553e+000
6.054459e+002,2.206604e+000
6.064101e+002,2.213989e+000
6.073743e+002,2.603821e+000
6.083386e+002,3.704041e+000
6.093028e+002,6.368469e+000
6.102670e+002,8.402893e+000
6.112313e+002,7.934113e+000
6.121955e+002,6.019745e+000
6.131597e+002,3.948059e+000
6.141240e+002,2.605072e+000
6.150882e+002,1.800659e+000
6.160524e+002,5.820923e-001
6.170167e+002,-8.866882e-001
6.179809e+002,-1.497894e+000
6.189451e+002,-6.080627e-001
6.199094e+002,1.470886e+000
6.208736e+002,2.930817e+000
6.218378e+002,3.797424e+000
6.228021e+002,4.255402e+000
6.237663e+002,3.949554e+000
6.247305e+002,3.388977e+000
6.256948e+002,3.476959e+000
6.266590e+002,4.970367e+000
6.276232e+002,5.697418e+000
6.285875e+002,3.771423e+000
6.295517e+002,1.131226e+000
6.305159e+002,-1.246948e-001
6.314802e+002,1.052765e+000
6.324444e+002,3.507263e+000
6.334086e+002,4.648621e+000
6.343729e+002,4.844574e+000
6.353371e+002,3.920807e+000
6.363013e+002,1.451569e+000
6.372656e+002,-1.838867e+000
6.382298e+002,-3.166595e+000
6.391940e+002,2.848816e-001
6.401583e+002,1.921143e+000
6.411225e+002,7.191772e-001
6.420867e+002,-1.494263e+000
6.430510e+002,-2.547119e+000
6.440152e+002,-1.606628e+000
6.449794e+002,-1.107727e+000
6.459437e+002,-3.084869e+000
6.469079e+002,-5.396484e+000
6.478721e+002,-6.117981e+000
6.488364e+002,-4.675598e+000
6.498006e+002,-2.399658e+000
6.507648e+002,-1.870361e+000
6.517291e+002,-2.433594e+000
6.526933e+002,-2.237457e+000
6.536575e+002,-8.956604e-001
6.546218e+002,8.042297e-001
6.555860e+002,1.327881e+000
6.565502e+002,-1.741943e-001
6.575145e+002,-1.175812e+000
6.584787e+002,-1.265015e+000
6.594429e+002,-1.225861e+000
6.604072e+002,-1.809418e+000
6.613714e+002,-3.209106e+000
6.623356e+002,-4.209930e+000
6.632999e+002,-4.205841e+000
6.642641e+002,-3.908081e+000
6.652283e+002,-3.302887e+000
6.661926e+002,-2.514069e+000
6.671568e+002,-1.951385e+000
6.681210e+002,-2.538361e+000
6.690853e+002,-3.458008e+000
6.700495e+002,-1.999847e+000
6.710137e+002,1.682159e+000
6.719780e+002,4.924072e+000
6.729422e+002,4.709290e+000
6.739064e+002,5.361938e-002
6.748707e+002,-2.580566e+000
6.758349e+002,-2.475922e+000
6.767991e+002,-1.913208e+000
6.777634e+002,-1.584137e+000
6.787276e+002,-1.384155e+000
6.796918e+002,-1.008972e+000
6.806561e+002,-4.134827e-001
6.816203e+002,1.405640e-001
6.825845e+002,8.700867e-001
6.835488e+002,1.441437e+000
6.845130e+002,1.367432e+000
6.854772e+002,2.958069e-001
6.864415e+002,-1.436157e+000
6.874057e+002,-3.803497e+000
6.883699e+002,-6.553467e+000
6.893342e+002,-8.430908e+000
6.902984e+002,-8.633453e+000
6.912626e+002,-7.350067e+000
6.922269e+002,-6.231934e+000
6.931911e+002,-5.613861e+000
6.941553e+002,-4.194855e+000
6.951196e+002,-1.183838e+000
6.960838e+002,2.188995e+000
6.970480e+002,4.025696e+000
6.980123e+002,3.568085e+000
6.989765e+002,2.621002e+000
6.999407e+002,1.433929e+000
7.009050e+002,5.014954e-001
7.018692e+002,5.134277e-001
7.028334e+002,1.521698e+000
7.037977e+002,2.546814e+000
7.047619e+002,1.991455e+000
7.057261e+002,4.959412e-001
7.066904e+002,-1.124817e+000
7.076546e+002,-2.745453e+000
7.086188e+002,-3.949982e+000
7.095831e+002,-3.970551e+000
7.105473e+002,-2.159882e+000
7.115115e+002,-1.557312e+000
7.124758e+002,-3.008606e+000
7.134400e+002,-4.662811e+000
7.144042e+002,-5.458313e+000
7.153685e+002,-5.276764e+000
7.163327e+002,-4.594452e+000
7.172969e+002,-2.695190e+000
7.182612e+002,-1.157379e+000
7.192254e+002,-1.075439e+000
7.201896e+002,-1.953796e+000
7.211539e+002,-2.618225e+000
7.221181e+002,-2.024719e+000
7.230823e+002,-7.550354e-001
7.240466e+002,-5.304871e-001
7.250108e+002,-9.685974e-001
7.259750e+002,-1.026794e+000
7.269393e+002,-1.240540e-001
7.279035e+002,1.353210e+000
7.288677e+002,1.581665e+000
7.298320e+002,-6.977844e-001
7.307962e+002,-2.009430e+000
7.317604e+002,-1.601135e+000
7.327247e+002,-2.709351e-001
7.336889e+002,8.211975e-001
7.346531e+002,1.183380e+000
7.356174e+002,9.232178e-001
7.365816e+002,3.197327e-001
7.375458e+002,-3.311768e-001
7.385101e+002,-9.524231e-001
7.394743e+002,-1.458344e+000
7.404385e+002,-1.702606e+000
7.414028e+002,-1.470581e+000
7.423670e+002,-1.127167e+000
7.433312e+002,-8.510132e-001
7.442955e+002,-3.890686e-001
7.452597e+002,1.319275e-001
7.462239e+002,3.737183e-001
7.471882e+002,8.074951e-002
7.481524e+002,3.078308e-001
7.491166e+002,1.391296e+000
7.500809e+002,2.053070e+000
7.510451e+002,1.679749e+000
7.520093e+002,4.700623e-001
7.529736e+002,-8.209534e-001
7.539378e+002,-1.901611e+000
7.549020e+002,-2.408569e+000
7.558663e+002,-2.144226e+000
7.568306e+002,-1.330475e+000
7.577948e+002,-2.048340e-001
7.587590e+002,1.003967e+000
7.597233e+002,2.090698e+000
7.606875e+002,2.804993e+000
7.616517e+002,3.284485e+000
7.626160e+002,3.312012e+000
7.635802e+002,2.777008e+000
7.645444e+002,1.877533e+000
7.655087e+002,8.073730e-001
7.664729e+002,-1.249664e+000
7.674371e+002,-1.584869e+000
7.684014e+002,1.802338e+000
7.693656e+002,4.939514e+000
7.703298e+002,4.650269e+000
7.712941e+002,9.407043e-001
7.722583e+002,-2.214081e+000
7.732225e+002,-1.032043e+000
7.741868e+002,1.030090e+000
7.751510e+002,1.009399e+000
7.761152e+002,-5.140686e-001
7.770795e+002,-1.585480e+000
7.780437e+002,-4.869995e-001
7.790079e+002,2.343994e+000
7.799722e+002,3.468262e+000
7.809364e+002,2.957916e+000
7.819006e+002,1.868896e+000
7.828649e+002,1.742859e-001
7.838291e+002,-1.660309e+000
7.847933e+002,-2.229675e+000
7.857576e+002,-6.316223e-001
7.867218e+002,3.041077e-001
7.876860e+002,-2.999878e-001
7.886503e+002,-1.091003e+000
7.896145e+002,-9.395447e-001
7.905787e+002,4.344482e-001
7.915430e+002,2.339417e+000
7.925072e+002,4.689484e+000
7.934714e+002,6.392151e+000
7.944357e+002,5.952850e+000
7.953999e+002,3.705261e+000
7.963641e+002,1.237579e+000
7.973284e+002,2.525635e-001
7.982926e+002,8.393250e-001
7.992568e+002,1.600830e+000
8.002211e+002,2.386749e+000
8.011853e+002,2.823090e+000
8.021495e+002,3.397278e+000
8.031138e+002,4.027557e+000
8.040780e+002,3.413208e+000
8.050422e+002,-6.943665e-001
8.060065e+002,-3.082245e+000
8.069707e+002,-1.108521e+000
8.079349e+002,2.338409e+000
8.088992e+002,4.455383e+000
8.098634e+002,4.355316e+000
8.108276e+002,3.699951e+000
8.117919e+002,5.008911e+000
8.127561e+002,6.987549e+000
8.137203e+002,7.537689e+000
8.146846e+002,6.598389e+000
8.156488e+002,4.961517e+000
8.166130e+002,3.427734e+000
8.175773e+002,1.941925e+000
8.185415e+002,5.623779e-001
8.195057e+002,-1.681671e+000
8.204700e+002,-3.015533e+000
8.214342e+002,-2.554077e+000
8.223984e+002,-7.080994e-001
8.233627e+002,1.597107e+000
8.243269e+002,4.785156e+000
8.252911e+002,6.975281e+000
8.262554e+002,6.241425e+000
8.272196e+002,4.689575e+000
8.281838e+002,4.806793e+000
8.291481e+002,7.267487e+000
8.301123e+002,1.030573e+001
8.310765e+002,1.069189e+001
8.320408e+002,8.541595e+000
8.330050e+002,7.177460e+000
8.339692e+002,7.051483e+000
8.349335e+002,6.978180e+000
8.358977e+002,5.479858e+000
8.368619e+002,2.250000e+000
8.378262e+002,5.855713e-001
8.387904e+002,1.843597e+000
8.397546e+002,2.945496e+000
8.407189e+002,2.685211e+000
8.416831e+002,1.905701e+000
8.426473e+002,2.490234e+000
8.436116e+002,5.690643e+000
8.445758e+002,8.720245e+000
8.455400e+002,7.573944e+000
8.465043e+002,4.767181e+000
8.474685e+002,3.409607e+000
8.484327e+002,4.418396e+000
8.493970e+002,6.524933e+000
8.503612e+002,7.397797e+000
8.513254e+002,6.709198e+000
8.522897e+002,6.303314e+000
8.532539e+002,6.147247e+000
8.542181e+002,6.052856e+000
8.551824e+002,6.259644e+000
8.561466e+002,6.844971e+000
8.571108e+002,7.011993e+000
8.580751e+002,5.030945e+000
8.590393e+002,3.952026e+000
8.600035e+002,5.738190e+000
8.609678e+002,8.662323e+000
8.619320e+002,1.074564e+001
8.628962e+002,1.116580e+001
8.638605e+002,1.076373e+001
8.648247e+002,1.029221e+001
8.657889e+002,1.012793e+001
8.667532e+002,1.172281e+001
8.677174e+002,1.524677e+001
8.686816e+002,1.846030e+001
8.696459e+002,1.858167e+001
8.706101e+002,1.506622e+001
8.715743e+002,1.324353e+001
8.725386e+002,1.425372e+001
8.735028e+002,1.534689e+001
8.744670e+002,1.573395e+001
8.754313e+002,1.553342e+001
8.763955e+002,1.504929e+001
8.773597e+002,1.422241e+001
8.783240e+002,1.403577e+001
8.792882e+002,1.556467e+001
8.802524e+002,1.757846e+001
8.812167e+002,1.899490e+001
8.821809e+002,1.965927e+001
8.831451e+002,2.028253e+001
8.841094e+002,2.187900e+001
8.850736e+002,2.444678e+001
8.860378e+002,2.561749e+001
8.870021e+002,2.510236e+001
8.879663e+002,2.416187e+001
8.889305e+002,2.324838e+001
8.898948e+002,2.233328e+001
8.908590e+002,2.151950e+001
8.918232e+002,2.061234e+001
8.927875e+002,2.053860e+001
8.937517e+002,2.227313e+001
8.947159e+002,2.425507e+001
8.956802e+002,2.466943e+001
8.966444e+002,2.331589e+001
8.976086e+002,2.227661e+001
8.985729e+002,2.450287e+001
8.995371e+002,2.788730e+001
9.005013e+002,2.838086e+001
9.014656e+002,2.643967e+001
9.024298e+002,2.435483e+001
9.033940e+002,2.370267e+001
9.043583e+002,2.425662e+001
9.053225e+002,2.521887e+001
9.062867e+002,2.761929e+001
9.072510e+002,2.875351e+001
9.082152e+002,2.776041e+001
9.091794e+002,2.637006e+001
9.101437e+002,2.651309e+001
9.111079e+002,2.849615e+001
9.120721e+002,2.998233e+001
9.130364e+002,2.886456e+001
9.140006e+002,2.712747e+001
9.149648e+002,2.589920e+001
9.159291e+002,2.521393e+001
9.168933e+002,2.447592e+001
9.178575e+002,2.321936e+001
9.188218e+002,2.196527e+001
9.197860e+002,2.330170e+001
9.207502e+002,2.726608e+001
9.217145e+002,2.960522e+001
9.226787e+002,2.924429e+001
9.236429e+002,2.759402e+001
9.246072e+002,2.626709e+001
9.255714e+002,2.518774e+001
9.265356e+002,2.412952e+001
9.274999e+002,2.265106e+001
9.284641e+002,2.148459e+001
9.294283e+002,2.139883e+001
9.303926e+002,2.181906e+001
9.313568e+002,2.149310e+001
9.323210e+002,1.969504e+001
9.332853e+002,1.767810e+001
9.342495e+002,1.804227e+001
9.352137e+002,1.940964e+001
9.361780e+002,1.970862e+001
9.371422e+002,1.862354e+001
9.381064e+002,1.731186e+001
9.390707e+002,1.725229e+001
9.400349e+002,1.859372e+001
9.409991e+002,1.895715e+001
9.419634e+002,1.723669e+001
9.429276e+002,1.600424e+001
9.438918e+002,1.599042e+001
9.448561e+002,1.692944e+001
9.458203e+002,1.858951e+001
9.467845e+002,2.120435e+001
9.477488e+002,2.334250e+001
9.487130e+002,2.320569e+001
9.496772e+002,2.258804e+001
9.506415e+002,2.333701e+001
9.516057e+002,2.516516e+001
9.525699e+002,2.597079e+001
9.535342e+002,2.360678e+001
9.544984e+002,1.866302e+001
9.554626e+002,1.729086e+001
9.564269e+002,2.049884e+001
9.573911e+002,2.279318e+001
9.583553e+002,2.159671e+001
9.593196e+002,1.904425e+001
9.602838e+002,1.906668e+001
9.612480e+002,2.270291e+001
9.622123e+002,2.485037e+001
9.631765e+002,2.209109e+001
9.641407e+002,1.961182e+001
9.651050e+002,2.055316e+001
9.660692e+002,2.353015e+001
9.670334e+002,2.515131e+001
9.679977e+002,2.337042e+001
9.689619e+002,2.017648e+001
9.699261e+002,1.958420e+001
9.708904e+002,2.069443e+001
9.718546e+002,2.161188e+001
9.728188e+002,2.188522e+001
9.737831e+002,2.170984e+001
9.747473e+002,2.124249e+001
9.757115e+002,2.035089e+001
9.766758e+002,2.023065e+001
9.776400e+002,2.176904e+001
9.786042e+002,2.326797e+001
9.795685e+002,2.450037e+001
9.805327e+002,2.516742e+001
9.814969e+002,2.506955e+001
9.824612e+002,2.424274e+001
9.834254e+002,2.286966e+001
9.843896e+002,2.008447e+001
9.853539e+002,1.718585e+001
9.863181e+002,1.583096e+001
9.872823e+002,1.583301e+001
9.882466e+002,1.610474e+001
9.892108e+002,1.589236e+001
9.901750e+002,1.550043e+001
9.911393e+002,1.552338e+001
9.921035e+002,1.562613e+001
9.930677e+002,1.581729e+001
9.940320e+002,1.623569e+001
9.949962e+002,1.696176e+001
9.959604e+002,1.827713e+001
9.969247e+002,2.017133e+001
9.978889e+002,2.164142e+001
9.988531e+002,2.122226e+001
9.998174e+002,2.102362e+001
1.000782e+003,2.293228e+001
1.001746e+003,2.593155e+001
1.002710e+003,2.851672e+001
1.003674e+003,2.995627e+001
1.004639e+003,3.056116e+001
1.005603e+003,3.089316e+001
1.006567e+003,3.085214e+001
1.007531e+003,2.998553e+001
1.008495e+003,2.761261e+001
1.009460e+003,2.582874e+001
1.010424e+003,2.673822e+001
1.011388e+003,2.945874e+001
1.012352e+003,2.997485e+001
1.013317e+003,2.620410e+001
1.014281e+003,2.329758e+001
1.015245e+003,2.336264e+001
1.016209e+003,2.407397e+001
1.017174e+003,2.390598e+001
1.018138e+003,2.272177e+001
1.019102e+003,2.131622e+001
1.020066e+003,2.040051e+001
1.021031e+003,1.973685e+001
1.021995e+003,1.810556e+001
1.022959e+003,1.558160e+001
1.023923e+003,1.338742e+001
1.024887e+003,1.194382e+001
1.025852e+003,1.089359e+001
1.026816e+003,9.693695e+000
1.027780e+003,8.351990e+000
1.028744e+003,7.451111e+000
1.029709e+003,6.893555e+000
1.030673e+003,6.867767e+000
1.031637e+003,8.076202e+000
1.032601e+003,9.493958e+000
1.033566e+003,9.872223e+000
1.034530e+003,8.814117e+000
1.035494e+003,6.699310e+000
1.036458e+003,2.559937e+000
1.037422e+003,-1.570313e+000
1.038387e+003,-1.448151e+000
1.039351e+003,2.502472e+000
1.040315e+003,5.943024e+000
1.041279e+003,5.562592e+000
1.042244e+003,2.365662e+000
1.043208e+003,1.014526e+000
1.044172e+003,2.650940e+000
1.045136e+003,4.014832e+000
1.046101e+003,5.662354e+000
1.047065e+003,6.595093e+000
1.048029e+003,5.531067e+000
1.048993e+003,3.021545e+000
1.049958e+003,1.237396e+000
1.050922e+003,1.351257e+000
1.051886e+003,2.344849e+000
1.052850e+003,3.676147e+000
1.053814e+003,4.865570e+000
1.054779e+003,4.893097e+000
1.055743e+003,3.717773e+000
1.056707e+003,2.708466e+000
1.057671e+003,3.601013e+000
1.058636e+003,6.379913e+000
1.059600e+003,7.733795e+000
1.060564e+003,6.894440e+000
1.061528e+003,6.248352e+000
1.062493e+003,5.892609e+000
1.063457e+003,5.692780e+000
1.064421e+003,5.714203e+000
1.065385e+003,6.012878e+000
1.066349e+003,6.238190e+000
1.067314e+003,6.446381e+000
1.068278e+003,6.213470e+000
1.069242e+003,4.908661e+000
1.070206e+003,3.201782e+000
1.071171e+003,1.901947e+000
1.072135e+003,1.362701e+000
1.073099e+003,1.690643e+000
1.074063e+003,3.328613e+000
1.075028e+003,6.594086e+000
1.075992e+003,7.406281e+000
1.076956e+003,4.128540e+000
1.077920e+003,1.337067e+000
1.078885e+003,1.655701e+000
1.079849e+003,3.429596e+000
1.080813e+003,2.969971e+000
1.081777e+003,-8.611145e-001
1.082741e+003,-3.145416e+000
1.083706e+003,1.288452e-001
1.084670e+003,4.050385e+000
1.085634e+003,6.727417e+000
1.086598e+003,7.801727e+000
1.087563e+003,6.875824e+000
1.088527e+003,3.981720e+000
1.089491e+003,5.228271e-001
1.090455e+003,-9.815369e-001
1.091420e+003,-3.933105e-001
1.092384e+003,6.592407e-001
1.093348e+003,2.837128e+000
1.094312e+003,4.076447e+000
1.095276e+003,2.709595e+000
1.096241e+003,-3.100586e-001
1.097205e+003,-2.519135e+000
1.098169e+003,-4.012756e+000
1.099133e+003,-3.921051e+000
1.100098e+003,-2.062988e-002
1.101062e+003,3.819794e+000
1.102026e+003,4.840485e+000
1.102990e+003,3.772186e+000
1.103955e+003,2.882965e+000
1.104919e+003,3.526886e+000
1.105883e+003,4.908295e+000
1.106847e+003,5.395172e+000
1.107812e+003,4.939941e+000
1.108776e+003,4.833130e+000
1.109740e+003,5.373932e+000
1.110704e+003,5.761780e+000
1.111668e+003,5.475525e+000
1.112633e+003,4.741547e+000
1.113597e+003,3.999298e+000
1.114561e+003,2.818848e+000
1.115525e+003,2.467865e+000
1.116490e+003,3.830902e+000
1.117454e+003,5.495483e+000
1.118418e+003,6.826355e+000
1.119382e+003,7.817902e+000
1.120347e+003,8.682098e+000
1.121311e+003,9.423279e+000
1.122275e+003,9.645203e+000
1.123239e+003,8.765686e+000
1.124203e+003,7.098175e+000
1.125168e+003,5.985901e+000
1.126132e+003,5.465607e+000
1.127096e+003,5.797485e+000
1.128060e+003,7.532501e+000
1.129025e+003,1.025595e+001
1.129989e+003,1.222205e+001
1.130953e+003,1.306851e+001
1.131917e+003,1.351288e+001
1.132882e+003,1.315659e+001
1.133846e+003,1.321887e+001
1.134810e+003,1.476770e+001
1.135774e+003,1.735916e+001
1.136739e+003,2.006583e+001
1.137703e+003,2.231876e+001
1.138667e+003,2.360220e+001
1.139631e+003,2.232004e+001
1.140595e+003,1.905450e+001
1.141560e+003,1.883841e+001
1.142524e+003,2.239764e+001
1.143488e+003,2.768991e+001
1.144452e+003,3.387354e+001
1.145417e+003,4.065894e+001
1.146381e+003,4.680627e+001
1.147345e+003,5.163513e+001
1.148309e+003,5.748935e+001
1.149274e+003,6.692395e+001
1.150238e+003,7.561496e+001
1.151202e+003,8.007050e+001
1.152166e+003,8.257288e+001
1.153130e+003,8.798538e+001
1.154095e+003,9.818451e+001
1.155059e+003,1.090695e+002
1.156023e+003,1.150735e+002
1.156987e+003,1.164644e+002
1.157952e+003,1.173278e+002
1.158916e+003,1.183095e+002
1.159880e+003,1.171635e+002
1.160844e+003,1.112246e+002
1.161809e+003,1.022120e+002
1.162773e+003,9.479077e+001
1.163737e+003,8.968884e+001
1.164701e+003,8.304404e+001
1.165666e+003,7.141043e+001
1.166630e+003,6.088638e+001
1.167594e+003,5.411362e+001
1.168558e+003,4.961078e+001
1.169522e+003,4.501898e+001
1.170487e+003,3.973996e+001
1.171451e+003,3.557623e+001
1.172415e+003,3.471939e+001
1.173379e+003,3.639032e+001
1.174344e+003,3.656088e+001
1.175308e+003,3.525415e+001
1.176272e+003,3.397839e+001
1.177236e+003,3.335828e+001
1.178201e+003,3.300085e+001
1.179165e+003,3.240793e+001
1.180129e+003,3.146722e+001
1.181093e+003,2.981717e+001
1.182057e+003,2.618268e+001
1.183022e+003,2.387238e+001
1.183986e+003,2.544708e+001
1.184950e+003,2.783423e+001
1.185914e+003,2.784314e+001
1.186879e+003,2.549503e+001
1.187843e+003,2.316840e+001
1.188807e+003,2.274911e+001
1.189771e+003,2.364474e+001
1.190736e+003,2.436240e+001
1.191700e+003,2.487204e+001
1.192664e+003,2.533160e+001
1.193628e+003,2.640778e+001
1.194593e+003,2.678528e+001
1.195557e+003,2.482605e+001
1.196521e+003,2.131476e+001
1.197485e+003,1.920209e+001
1.198449e+003,1.928290e+001
1.199414e+003,1.973581e+001
1.200378e+003,1.945859e+001
1.201342e+003,1.954321e+001
1.202306e+003,2.165683e+001
1.203271e+003,2.442862e+001
1.204235e+003,2.483905e+001
1.205199e+003,2.161569e+001
1.206163e+003,1.684323e+001
1.207128e+003,1.389069e+001
1.208092e+003,1.286237e+001
1.209056e+003,1.287909e+001
1.210020e+003,1.489642e+001
1.210984e+003,1.592789e+001
1.211949e+003,1.502597e+001
1.212913e+003,1.267963e+001
1.213877e+003,8.995392e+000
1.214841e+003,4.143646e+000
1.215806e+003,4.314880e-001
1.216770e+003,-9.535522e-001
1.217734e+003,-1.466248e+000
1.218698e+003,-2.168121e+000
1.219663e+003,-2.875977e+000
1.220627e+003,-3.101166e+000
1.221591e+003,-2.936920e+000
1.222555e+003,-3.210632e+000
1.223520e+003,-4.686768e+000
1.224484e+003,-7.015839e+000
1.225448e+003,-8.831268e+000
1.226412e+003,-1.016263e+001
1.227376e+003,-1.083273e+001
1.228341e+003,-1.050238e+001
1.229305e+003,-1.002274e+001
1.230269e+003,-9.432739e+000
1.231233e+003,-9.151245e+000
1.232198e+003,-1.033871e+001
1.233162e+003,-1.335281e+001
1.234126e+003,-1.549493e+001
1.235090e+003,-1.424017e+001
1.236055e+003,-1.187036e+001
1.237019e+003,-1.089328e+001
1.237983e+003,-1.092502e+001
1.238947e+003,-1.033508e+001
1.239911e+003,-8.397827e+000
1.240876e+003,-6.789948e+000
1.241840e+003,-8.509796e+000
1.242804e+003,-1.391068e+001
1.243768e+003,-1.599850e+001
1.244733e+003,-1.098672e+001
1.245697e+003,-7.533325e+000
1.246661e+003,-7.167664e+000
1.247625e+003,-8.016693e+000
1.248590e+003,-8.787720e+000
1.249554e+003,-9.300812e+000
1.250518e+003,-1.008826e+001
1.251482e+003,-1.155411e+001
1.252447e+003,-1.256180e+001
1.253411e+003,-1.088019e+001
1.254375e+003,-7.958069e+000
1.255339e+003,-7.382843e+000
1.256303e+003,-9.121307e+000
1.257268e+003,-1.026990e+001
1.258232e+003,-9.206421e+000
1.259196e+003,-6.900726e+000
1.260160e+003,-4.894745e+000
1.261125e+003,-3.002106e+000
1.262089e+003,-1.845093e+000
1.263053e+003,-2.240143e+000
1.264017e+003,-2.778046e+000
1.264982e+003,-3.478210e+000
1.265946e+003,-3.812042e+000
1.266910e+003,-3.035156e+000
1.267874e+003,-1.396973e+000
1.268839e+003,1.774902e-001
1.269803e+003,1.090393e+000
1.270767e+003,1.326752e+000
1.271731e+003,6.888733e-001
1.272695e+003,-7.256470e-001
1.273660e+003,-1.634430e+000
1.274624e+003,-1.984070e+000
1.275588e+003,-2.504669e+000
1.276552e+003,-3.581818e+000
1.277517e+003,-4.838837e+000
1.278481e+003,-5.677460e+000
1.279445e+003,-6.071320e+000
1.280409e+003,-6.710205e+000
1.281374e+003,-8.633148e+000
1.282338e+003,-9.616394e+000
1.283302e+003,-7.698853e+000
1.284266e+003,-4.853699e+000
1.285230e+003,-3.061890e+000
1.286195e+003,-2.818970e+000
1.287159e+003,-3.911835e+000
1.288123e+003,-6.123627e+000
1.289087e+003,-8.683838e+000
1.290052e+003,-9.445740e+000
1.291016e+003,-7.798431e+000
1.291980e+003,-6.877655e+000
1.292944e+003,-7.563568e+000
1.293909e+003,-8.023682e+000
1.294873e+003,-6.918396e+000
1.295837e+003,-5.320557e+000
1.296801e+003,-5.052124e+000
1.297766e+003,-6.224579e+000
1.298730e+003,-6.791687e+000
1.299694e+003,-5.159760e+000
1.300658e+003,-3.753754e+000
1.301622e+003,-6.228729e+000
1.302587e+003,-1.019971e+001
1.303551e+003,-1.158807e+001
1.304515e+003,-9.822845e+000
1.305479e+003,-7.800720e+000
1.306444e+003,-8.021484e+000
1.307408e+003,-9.690430e+000
1.308372e+003,-9.760803e+000
1.309336e+003,-7.413300e+000
1.310301e+003,-6.040527e+000
1.311265e+003,-6.117279e+000
1.312229e+003,-6.623535e+000
1.313193e+003,-8.008789e+000
1.314157e+003,-9.260437e+000
1.315122e+003,-8.876190e+000
1.316086e+003,-7.195587e+000
1.317050e+003,-6.341064e+000
1.318014e+003,-7.699280e+000
1.318979e+003,-1.003293e+001
1.319943e+003,-1.134863e+001
1.320907e+003,-1.163397e+001
1.321871e+003,-1.166190e+001
1.322836e+003,-1.168640e+001
1.323800e+003,-1.130301e+001
1.324764e+003,-9.959534e+000
1.325728e+003,-8.192169e+000
1.326693e+003,-6.815155e+000
1.327657e+003,-5.923431e+000
1.328621e+003,-6.033569e+000
1.329585e+003,-7.829742e+000
1.330549e+003,-8.931030e+000
1.331514e+003,-7.821411e+000
1.332478e+003,-6.357391e+000
1.333442e+003,-6.586456e+000
1.334406e+003,-8.049835e+000
1.335371e+003,-8.479248e+000
1.336335e+003,-6.562714e+000
1.337299e+003,-3.836273e+000
1.338263e+003,-3.352448e+000
1.339228e+003,-5.474091e+000
1.340192e+003,-6.352264e+000
1.341156e+003,-5.420197e+000
1.342120e+003,-4.198730e+000
1.343084e+003,-2.024994e+000
1.344049e+003,-6.616211e-001
1.345013e+003,-2.271698e+000
1.345977e+003,-5.733185e+000
1.346941e+003,-7.692719e+000
1.347906e+003,-6.924500e+000
1.348870e+003,-5.160309e+000
1.349834e+003,-3.465607e+000
1.350798e+003,-2.374695e+000
1.351763e+003,-3.006927e+000
1.352727e+003,-4.968170e+000
1.353691e+003,-6.086731e+000
1.354655e+003,-5.408295e+000
1.355620e+003,-4.181580e+000
1.356584e+003,-3.657196e+000
1.357548e+003,-3.786499e+000
1.358512e+003,-4.718933e+000
1.359476e+003,-7.170380e+000
1.360441e+003,-9.056061e+000
1.361405e+003,-9.694458e+000
1.362369e+003,-9.686859e+000
1.363333e+003,-8.709808e+000
1.364298e+003,-7.544586e+000
1.365262e+003,-7.352814e+000
1.366226e+003,-8.259430e+000
1.367190e+003,-9.317566e+000
1.368155e+003,-9.696808e+000
1.369119e+003,-9.435028e+000
1.370083e+003,-8.581696e+000
1.371047e+003,-6.874969e+000
1.372011e+003,-5.306610e+000
1.372976e+003,-3.661469e+000
1.373940e+003,-2.724487e+000
1.374904e+003,-3.316803e+000
1.375868e+003,-4.307495e+000
1.376833e+003,-4.124756e+000
1.377797e+003,-2.861481e+000
1.378761e+003,-2.108765e+000
1.379725e+003,-2.628845e+000
1.380690e+003,-3.409149e+000
1.381654e+003,-3.266663e+000
1.382618e+003,-2.746857e+000
1.383582e+003,-2.641571e+000
1.384547e+003,-2.960358e+000
1.385511e+003,-3.339478e+000
1.386475e+003,-3.654907e+000
1.387439e+003,-3.980225e+000
1.388403e+003,-4.593292e+000
1.389368e+003,-5.503937e+000
1.390332e+003,-5.323792e+000
1.391296e+003,-3.328094e+000
1.392260e+003,-1.410645e+000
1.393225e+003,7.424927e-001
1.394189e+003,1.887848e+000
1.395153e+003,5.679932e-001
1.396117e+003,-1.905823e+000
1.397082e+003,-3.671204e+000
1.398046e+003,-4.101288e+000
1.399010e+003,-3.512085e+000
1.399974e+003,-2.211029e+000
1.400938e+003,-9.319153e-001
1.401903e+003,-1.677979e+000
1.402867e+003,-4.882904e+000
1.403831e+003,-6.427612e+000
1.404795e+003,-5.356445e+000
1.405760e+003,-4.364288e+000
1.406724e+003,-4.776093e+000
1.407688e+003,-5.932343e+000
1.408652e+003,-7.249451e+000
1.409617e+003,-8.230438e+000
1.410581e+003,-7.389160e+000
1.411545e+003,-3.742340e+000
1.412509e+003,-3.421326e-001
1.413474e+003,-9.436035e-001
1.414438e+003,-3.444489e+000
1.415402e+003,-3.929474e+000
1.416366e+003,-2.514740e+000
1.417330e+003,-1.212250e+000
1.418295e+003,-7.408447e-001
1.419259e+003,-8.417358e-001
1.420223e+003,-1.567657e+000
1.421187e+003,-2.834045e+000
1.422152e+003,-3.539398e+000
1.423116e+003,-3.441345e+000
1.424080e+003,-2.973206e+000
1.425044e+003,-2.445496e+000
1.426009e+003,-1.608795e+000
1.426973e+003,3.488464e-001
1.427937e+003,2.236542e+000
1.428901e+003,2.564453e+000
1.429865e+003,1.409851e+000
1.430830e+003,-2.794495e-001
1.431794e+003,-1.898804e+000
1.432758e+003,-2.905426e+000
1.433722e+003,-1.850922e+000
1.434687e+003,1.814148e+000
1.435651e+003,3.154022e+000
1.436615e+003,-1.380524e+000
1.437579e+003,-3.888855e+000
1.438544e+003,-2.116516e+000
1.439508e+003,3.998108e-001
1.440472e+003,1.717224e+000
1.441436e+003,2.067871e+000
1.442401e+003,1.854858e+000
1.443365e+003,1.288544e+000
1.444329e+003,1.432953e+000
1.445293e+003,3.465607e+000
1.446257e+003,5.727509e+000
1.447222e+003,4.129425e+000
1.448186e+003,-3.835449e-001
1.449150e+003,-2.198578e+000
1.450114e+003,-2.831421e-001
1.451079e+003,1.822327e+000
1.452043e+003,2.601868e+000
1.453007e+003,2.571686e+000
1.453971e+003,2.135834e+000
1.454936e+003,1.313751e+000
1.455900e+003,4.684143e-001
1.456864e+003,-4.486389e-001
1.457828e+003,-6.540527e-001
1.458792e+003,1.284241e+000
1.459757e+003,3.042023e+000
1.460721e+003,2.146423e+000
1.461685e+003,-2.338867e-001
1.462649e+003,-1.635895e+000
1.463614e+003,-1.346527e+000
1.464578e+003,-1.284790e-001
1.465542e+003,1.495056e+000
1.466506e+003,3.066010e+000
1.467471e+003,3.188293e+000
1.468435e+003,1.576691e+000
1.469399e+003,8.077393e-001
1.470363e+003,1.241791e+000
1.471328e+003,1.890564e+000
1.472292e+003,3.252930e+000
1.473256e+003,3.802704e+000
1.474220e+003,1.701233e+000
1.475184e+003,-1.487274e+000
1.476149e+003,-2.851868e+000
1.477113e+003,-1.638855e+000
1.478077e+003,3.641968e-001
1.479041e+003,1.531128e+000
1.480006e+003,2.438660e+000
1.480970e+003,4.784912e+000
1.481934e+003,9.241364e+000
1.482898e+003,1.148343e+001
1.483863e+003,1.040567e+001
1.484827e+003,8.866821e+000
1.485791e+003,6.933258e+000
1.486755e+003,5.672546e+000
1.487719e+003,6.444519e+000
1.488684e+003,8.489471e+000
1.489648e+003,9.719269e+000
1.490612e+003,9.564819e+000
1.491576e+003,9.545746e+000
1.492541e+003,1.088763e+001
1.493505e+003,1.300098e+001
1.494469e+003,1.468875e+001
1.495433e+003,1.587814e+001
1.496398e+003,1.717236e+001
1.497362e+003,1.912158e+001
1.498326e+003,2.043805e+001
1.499290e+003,1.954724e+001
1.500255e+003,1.823547e+001
1.501219e+003,1.868106e+001
1.502183e+003,2.082849e+001
1.503147e+003,2.445828e+001
1.504111e+003,2.987286e+001
1.505076e+003,3.494492e+001
1.506040e+003,3.828323e+001
1.507004e+003,4.093704e+001
1.507968e+003,4.295105e+001
1.508933e+003,4.541226e+001
1.509897e+003,5.116312e+001
1.510861e+003,6.071912e+001
1.511825e+003,7.052408e+001
1.512790e+003,7.781561e+001
1.513754e+003,8.388342e+001
1.514718e+003,9.118857e+001
1.515682e+003,9.960019e+001
1.516646e+003,1.094092e+002
1.517611e+003,1.220965e+002
1.518575e+003,1.331045e+002
1.519539e+003,1.401018e+002
1.520503e+003,1.462962e+002
1.521468e+003,1.541297e+002
1.522432e+003,1.616631e+002
1.523396e+003,1.661239e+002
1.524360e+003,1.671940e+002
1.525325e+003,1.665931e+002
1.526289e+003,1.654941e+002
1.527253e+003,1.631007e+002
1.528217e+003,1.576480e+002
1.529182e+003,1.492043e+002
1.530146e+003,1.421462e+002
1.531110e+003,1.386858e+002
1.532074e+003,1.321156e+002
1.533039e+003,1.200890e+002
1.534003e+003,1.067368e+002
1.534967e+003,9.355411e+001
1.535931e+003,8.085577e+001
1.536896e+003,6.819965e+001
1.537860e+003,5.612158e+001
1.538824e+003,4.603113e+001
1.539788e+003,3.853622e+001
1.540752e+003,3.267297e+001
1.541717e+003,2.723703e+001
1.542681e+003,2.251038e+001
1.543645e+003,1.971317e+001
1.544609e+003,2.011115e+001
1.545573e+003,1.967239e+001
1.546538e+003,1.727463e+001
1.547502e+003,1.510883e+001
1.548466e+003,1.461880e+001
1.549430e+003,1.459027e+001
1.550395e+003,1.341214e+001
1.551359e+003,1.138000e+001
1.552323e+003,9.923065e+000
1.553287e+003,9.557770e+000
1.554252e+003,9.708008e+000
1.555216e+003,9.937683e+000
1.556180e+003,1.009973e+001
1.557144e+003,9.906921e+000
1.558109e+003,9.395325e+000
1.559073e+003,8.413269e+000
1.560037e+003,6.359467e+000
1.561001e+003,4.628906e+000
1.561966e+003,3.672211e+000
1.562930e+003,3.625671e+000
1.563894e+003,5.025177e+000
1.564858e+003,7.145264e+000
1.565823e+003,8.519562e+000
1.566787e+003,8.815765e+000
1.567751e+003,7.933594e+000
1.568715e+003,5.355682e+000
1.569679e+003,3.171387e+000
1.570644e+003,4.620270e+000
1.571608e+003,8.208038e+000
1.572572e+003,9.883057e+000
1.573536e+003,9.603455e+000
1.574500e+003,8.677704e+000
1.575465e+003,6.704895e+000
1.576429e+003,5.381653e+000
1.577393e+003,6.785797e+000
1.578357e+003,9.408142e+000
1.579322e+003,1.025888e+001
1.580286e+003,9.299591e+000
1.581250e+003,8.469208e+000
1.582214e+003,8.342072e+000
1.583179e+003,8.448608e+000
1.584143e+003,8.158600e+000
1.585107e+003,8.049774e+000
1.586071e+003,9.614441e+000
1.587036e+003,1.224643e+001
1.588000e+003,1.339938e+001
1.588964e+003,1.236151e+001
1.589928e+003,1.082913e+001
1.590893e+003,9.531891e+000
1.591857e+003,8.798462e+000
1.592821e+003,9.540527e+000
1.593785e+003,1.144415e+001
1.594750e+003,1.241916e+001
1.595714e+003,1.200327e+001
1.596678e+003,1.152988e+001
1.597642e+003,1.123224e+001
1.598606e+003,1.153650e+001
1.599571e+003,1.353915e+001
1.600535e+003,1.594400e+001
1.601499e+003,1.676404e+001
1.602463e+003,1.615189e+001
1.603427e+003,1.605173e+001
1.604392e+003,1.741473e+001
1.605356e+003,1.827554e+001
1.606320e+003,1.593167e+001
1.607284e+003,1.179279e+001
1.608249e+003,9.822784e+000
1.609213e+003,1.007770e+001
1.610177e+003,1.146310e+001
1.611141e+003,1.480344e+001
1.612106e+003,1.676175e+001
1.613070e+003,1.365097e+001
1.614034e+003,1.043915e+001
1.614998e+003,1.143494e+001
1.615963e+003,1.455060e+001
1.616927e+003,1.620062e+001
1.617891e+003,1.574130e+001
1.618855e+003,1.404727e+001
1.619820e+003,1.133078e+001
1.620784e+003,8.725708e+000
1.621748e+003,8.380371e+000
1.622712e+003,1.008972e+001
1.623677e+003,1.150928e+001
1.624641e+003,1.276172e+001
1.625605e+003,1.288678e+001
1.626569e+003,1.029413e+001
1.627533e+003,8.130005e+000
1.628498e+003,8.020416e+000
1.629462e+003,9.168335e+000
1.630426e+003,1.179034e+001
1.631390e+003,1.483249e+001
1.632354e+003,1.616644e+001
1.633319e+003,1.537418e+001
1.634283e+003,1.391058e+001
1.635247e+003,1.268124e+001
1.636211e+003,1.183145e+001
1.637176e+003,1.169064e+001
1.638140e+003,1.230844e+001
1.639104e+003,1.384116e+001
1.640068e+003,1.699777e+001
1.641033e+003,1.799100e+001
1.641997e+003,1.409045e+001
1.642961e+003,1.054437e+001
1.643925e+003,1.030035e+001
1.644890e+003,1.130017e+001
1.645854e+003,1.151358e+001
1.646818e+003,1.114047e+001
1.647782e+003,1.135999e+001
1.648747e+003,1.249509e+001
1.649711e+003,1.374203e+001
1.650675e+003,1.451935e+001
1.651639e+003,1.510614e+001
1.652604e+003,1.623264e+001
1.653568e+003,1.774728e+001
1.654532e+003,1.708640e+001
1.655496e+003,1.320483e+001
1.656460e+003,1.046375e+001
1.657425e+003,1.083679e+001
1.658389e+003,1.177124e+001
1.659353e+003,1.186215e+001
1.660317e+003,1.174475e+001
1.661281e+003,1.226151e+001
1.662246e+003,1.313382e+001
1.663210e+003,1.356635e+001
1.664174e+003,1.332999e+001
1.665138e+003,1.239859e+001
1.666103e+003,1.044952e+001
1.667067e+003,8.086517e+000
1.668031e+003,6.348907e+000
1.668995e+003,5.326660e+000
1.669960e+003,6.148987e+000
1.670924e+003,9.610077e+000
1.671888e+003,1.205975e+001
1.672852e+003,1.214999e+001
1.673817e+003,1.110635e+001
1.674781e+003,8.701965e+000
1.675745e+003,6.368408e+000
1.676709e+003,5.756958e+000
1.677674e+003,6.627411e+000
1.678638e+003,8.240448e+000
1.679602e+003,1.033539e+001
1.680566e+003,1.126929e+001
1.681531e+003,9.282013e+000
1.682495e+003,6.225342e+000
1.683459e+003,5.263275e+000
1.684423e+003,5.958344e+000
1.685387e+003,5.872345e+000
1.686352e+003,4.670166e+000
1.687316e+003,4.181274e+000
1.688280e+003,5.352936e+000
1.689244e+003,6.667725e+000
1.690208e+003,6.705872e+000
1.691173e+003,6.425415e+000
1.692137e+003,7.554962e+000
1.693101e+003,9.421204e+000
1.694065e+003,8.948853e+000
1.695030e+003,5.154236e+000
1.695994e+003,2.134216e+000
1.696958e+003,3.369415e+000
1.697922e+003,5.647095e+000
1.698887e+003,4.418365e+000
1.699851e+003,1.057373e+000
1.700815e+003,-1.791382e-001
1.701779e+003,9.734802e-001
1.702744e+003,1.947937e+000
1.703708e+003,2.023407e+000
1.704672e+003,2.082367e+000
1.705636e+003,2.591034e+000
1.706601e+003,3.212280e+000
1.707565e+003,4.114380e+000
1.708529e+003,4.996155e+000
1.709493e+003,4.124207e+000
1.710458e+003,1.001556e+000
1.711422e+003,-1.217377e+000
1.712386e+003,-1.242676e-001
1.713350e+003,1.194702e+000
1.714314e+003,-4.783020e-001
1.715279e+003,-3.363953e+000
1.716243e+003,-4.287872e+000
1.717207e+003,-3.336426e+000
1.718171e+003,-2.414307e+000
1.719135e+003,-2.024353e+000
1.720100e+003,-9.855652e-001
1.721064e+003,1.821564e+000
1.722028e+003,4.416992e+000
1.722992e+003,3.708862e+000
1.723957e+003,5.165710e-001
1.724921e+003,-1.198303e+000
1.725885e+003,-1.511322e+000
1.726849e+003,-1.622864e+000
1.727814e+003,-1.352142e+000
1.728778e+003,-9.057007e-001
1.729742e+003,-6.726074e-002
1.730706e+003,5.369873e-001
1.731671e+003,-2.107849e-001
1.732635e+003,-1.740601e+000
1.733599e+003,-2.346130e+000
1.734563e+003,-1.785278e+000
1.735528e+003,-1.665619e+000
1.736492e+003,-2.889191e+000
1.737456e+003,-3.671295e+000
1.738420e+003,-1.679535e+000
1.739385e+003,1.861328e+000
1.740349e+003,2.734467e+000
1.741313e+003,3.504028e-001
1.742277e+003,-1.200134e+000
1.743241e+003,-1.239655e+000
1.744206e+003,-1.345367e+000
1.745170e+003,-1.900970e+000
1.746134e+003,-2.491882e+000
1.747098e+003,-2.850159e+000
1.748063e+003,-3.168701e+000
1.749027e+003,-3.943268e+000
1.749991e+003,-4.809357e+000
1.750955e+003,-4.737823e+000
1.751919e+003,-3.518890e+000
1.752884e+003,-2.027771e+000
1.753848e+003,-9.770813e-001
1.754812e+003,-4.837952e-001
1.755776e+003,-7.959290e-001
1.756741e+003,-1.758301e+000
1.757705e+003,-2.176910e+000
1.758669e+003,-2.217072e+000
1.759633e+003,-1.524658e+000
1.760598e+003,7.303162e-001
1.761562e+003,2.358795e+000
1.762526e+003,2.842590e+000
1.763490e+003,2.629517e+000
1.764455e+003,1.671478e+000
1.765419e+003,4.603271e-001
1.766383e+003,-6.584167e-001
1.767347e+003,-1.486359e+000
1.768312e+003,-1.299133e+000
1.769276e+003,2.331543e-001
1.770240e+003,1.756836e+000
1.771204e+003,2.054077e+000
1.772168e+003,1.576843e+000
1.773133e+003,9.271851e-001
1.774097e+003,1.355591e-001
1.775061e+003,-3.990479e-001
1.776025e+003,-7.468262e-001
1.776990e+003,-1.159149e+000
1.777954e+003,-1.898804e+000
1.778918e+003,-1.829712e+000
1.779882e+003,7.137146e-001
1.780846e+003,3.595795e+000
1.781811e+003,3.733063e+000
1.782775e+003,1.968536e+000
1.783739e+003,1.059753e+000
1.784703e+003,1.513062e+000
1.785668e+003,1.890198e+000
1.786632e+003,1.284882e+000
1.787596e+003,5.155029e-001
1.788560e+003,2.616577e-001
1.789525e+003,5.029907e-001
1.790489e+003,1.623138e+000
1.791453e+003,2.900848e+000
1.792417e+003,1.997009e+000
1.793382e+003,-1.280670e+000
1.794346e+003,-3.954559e+000
1.795310e+003,-4.473480e+000
1.796274e+003,-3.771698e+000
1.797239e+003,-2.625153e+000
1.798203e+003,-1.260742e+000
1.799167e+003,-9.801636e-001
1.800131e+003,-2.255829e+000
1.801095e+003,-3.362518e+000
1.802060e+003,-3.789093e+000
1.803024e+003,-4.349640e+000
1.803988e+003,-6.433655e+000
1.804952e+003,-7.243042e+000
1.805917e+003,-3.810974e+000
1.806881e+003,1.300049e-001
1.807845e+003,4.642639e-001
1.808809e+003,-1.525269e+000
1.809773e+003,-2.391235e+000
1.810738e+003,-1.484955e+000
1.811702e+003,-8.439026e-001
1.812666e+003,-1.740936e+000
1.813630e+003,-3.071136e+000
1.814595e+003,-3.408752e+000
1.815559e+003,-2.892151e+000
1.816523e+003,-1.751678e+000
1.817487e+003,1.403198e-001
1.818452e+003,1.492828e+000
1.819416e+003,2.223450e+000
1.820380e+003,2.901550e+000
1.821344e+003,3.957672e+000
1.822309e+003,4.320465e+000
1.823273e+003,2.793793e+000
1.824237e+003,9.452209e-001
1.825201e+003,6.837769e-001
1.826166e+003,1.250092e+000
1.827130e+003,1.933899e-001
1.828094e+003,-2.878998e+000
1.829058e+003,-4.980469e+000
1.830022e+003,-4.373291e+000
1.830987e+003,-2.850952e+000
1.831951e+003,-1.104919e+000
1.832915e+003,8.752441e-002
1.833879e+003,-1.093628e+000
1.834844e+003,-3.731232e+000
1.835808e+003,-4.838776e+000
1.836772e+003,-4.056000e+000
1.837736e+003,-3.261597e+000
1.838700e+003,-3.334625e+000
1.839665e+003,-3.571808e+000
1.840629e+003,-3.321899e+000
1.841593e+003,-2.577850e+000
1.842557e+003,-1.312408e+000
1.843522e+003,4.512939e-001
1.844486e+003,1.542603e+000
1.845450e+003,2.077118e+000
1.846414e+003,1.997375e+000
1.847379e+003,-1.878052e-001
1.848343e+003,-1.367676e+000
1.849307e+003,4.175415e-001
1.850271e+003,2.566284e+000
1.851236e+003,3.673035e+000
1.852200e+003,3.783630e+000
1.853164e+003,2.833435e+000
1.854128e+003,9.858093e-001
1.855093e+003,-1.416412e+000
1.856057e+003,-3.963593e+000
1.857021e+003,-5.587494e+000
1.857985e+003,-5.397125e+000
1.858949e+003,-4.260193e+000
1.859914e+003,-3.595032e+000
1.860878e+003,-3.240295e+000
1.861842e+003,-2.349579e+000
1.862806e+003,-9.440613e-001
1.863771e+003,-7.104492e-002
1.864735e+003,1.657104e-002
1.865699e+003,-4.002380e-001
1.866663e+003,-1.454041e+000
1.867627e+003,-2.243103e+000
1.868592e+003,-1.912231e+000
1.869556e+003,-1.076660e+000
1.870520e+003,-8.004761e-001
1.871484e+003,-9.538269e-001
1.872449e+003,-3.251038e-001
1.873413e+003,2.121643e+000
1.874377e+003,3.345306e+000
1.875341e+003,3.412781e-001
1.876306e+003,-1.993927e+000
1.877270e+003,1.393738e-001
1.878234e+003,3.013824e+000
1.879198e+003,2.425873e+000
1.880163e+003,1.437378e-002
1.881127e+003,-7.743530e-001
1.882091e+003,3.885193e-001
1.883055e+003,2.150696e+000
1.884020e+003,3.729950e+000
1.884984e+003,4.111206e+000
1.885948e+003,2.310730e+000
1.886912e+003,-2.850342e-001
1.887876e+003,-8.699341e-001
1.888841e+003,4.367371e-001
1.889805e+003,2.153778e+000
1.890769e+003,4.476288e+000
1.891733e+003,6.278748e+000
1.892698e+003,7.862183e+000
1.893662e+003,7.559235e+000
1.894626e+003,3.026215e+000
1.895590e+003,-1.122040e+000
1.896554e+003,-8.982544e-001
1.897519e+003,9.988098e-001
1.898483e+003,1.009796e+000
1.899447e+003,-3.276978e-001
1.900411e+003,-2.847290e-002
1.901376e+003,2.571686e+000
1.902340e+003,4.288849e+000
1.903304e+003,3.332489e+000
1.904268e+003,2.101685e+000
1.905233e+003,2.237976e+000
1.906197e+003,2.735077e+000
1.907161e+003,2.283173e+000
1.908125e+003,1.617493e+000
1.909090e+003,2.538635e+000
1.910054e+003,4.506622e+000
1.911018e+003,4.842773e+000
1.911982e+003,2.925903e+000
1.912947e+003,9.719849e-001
1.913911e+003,5.618591e-001
1.914875e+003,1.682434e+000
1.915839e+003,4.565216e+000
1.916803e+003,8.363617e+000
1.917768e+003,8.977142e+000
1.918732e+003,5.860260e+000
1.919696e+003,3.807739e+000
1.920660e+003,3.348969e+000
1.921625e+003,2.852234e+000
1.922589e+003,1.504333e+000
1.923553e+003,6.319275e-001
1.924517e+003,1.595551e+000
1.925481e+003,2.790924e+000
1.926446e+003,2.577606e+000
1.927410e+003,1.676422e+000
1.928374e+003,1.416046e+000
1.929338e+003,1.829987e+000
1.930303e+003,2.770660e+000
1.931267e+003,4.805359e+000
1.932231e+003,6.095642e+000
1.933195e+003,4.890411e+000
1.934160e+003,3.460724e+000
1.935124e+003,3.793640e+000
1.936088e+003,4.492584e+000
1.937052e+003,3.626587e+000
1.938017e+003,1.971222e+000
1.938981e+003,1.143524e+000
1.939945e+003,1.539734e+000
1.940909e+003,3.446869e+000
1.941874e+003,6.712341e+000
1.942838e+003,9.192688e+000
1.943802e+003,8.975098e+000
1.944766e+003,7.315887e+000
1.945730e+003,6.431458e+000
1.946695e+003,6.119873e+000
1.947659e+003,5.405060e+000
1.948623e+003,4.176819e+000
1.949587e+003,3.389160e+000
1.950552e+003,3.232788e+000
1.951516e+003,3.476074e+000
1.952480e+003,4.207794e+000
1.953444e+003,4.948792e+000
1.954408e+003,5.237549e+000
1.955373e+003,5.319183e+000
1.956337e+003,6.044312e+000
1.957301e+003,7.105591e+000
1.958265e+003,6.601135e+000
1.959230e+003,4.197937e+000
1.960194e+003,2.939728e+000
1.961158e+003,3.564850e+000
1.962122e+003,4.426483e+000
1.963087e+003,5.638214e+000
1.964051e+003,6.406219e+000
1.965015e+003,6.265686e+000
1.965979e+003,5.721039e+000
1.966944e+003,4.708771e+000
1.967908e+003,3.724304e+000
1.968872e+003,3.985626e+000
1.969836e+003,5.249329e+000
1.970801e+003,5.612549e+000
1.971765e+003,4.356171e+000
1.972729e+003,3.174500e+000
1.973693e+003,3.513428e+000
1.974657e+003,4.607422e+000
1.975622e+003,5.642914e+000
1.976586e+003,6.323883e+000
1.977550e+003,5.296356e+000
1.978514e+003,3.211975e+000
1.979479e+003,4.151367e+000
1.980443e+003,8.413391e+000
1.981407e+003,1.082489e+001
1.982371e+003,9.443237e+000
1.983335e+003,7.379120e+000
1.984300e+003,6.777039e+000
1.985264e+003,7.264984e+000
1.986228e+003,8.608582e+000
1.987192e+003,1.036777e+001
1.988157e+003,1.014572e+001
1.989121e+003,7.417480e+000
1.990085e+003,5.705383e+000
1.991049e+003,5.475708e+000
1.992014e+003,5.472900e+000
1.992978e+003,5.447968e+000
1.993942e+003,5.631805e+000
1.994906e+003,6.134064e+000
1.995871e+003,6.845795e+000
1.996835e+003,8.099854e+000
1.997799e+003,9.352722e+000
1.998763e+003,9.661102e+000
1.999728e+003,9.089203e+000
