5.003444e+002,4.613972e+001
5.013087e+002,4.836270e+001
5.022729e+002,4.777890e+001
5.032371e+002,4.517461e+001
5.042014e+002,4.313702e+001
5.051656e+002,4.161292e+001
5.061298e+002,4.003349e+001
5.070941e+002,3.771048e+001
5.080583e+002,3.408304e+001
5.090225e+002,3.271278e+001
5.099868e+002,3.531836e+001
5.109510e+002,3.763031e+001
5.119152e+002,3.708409e+001
5.128795e+002,3.338342e+001
5.138437e+002,3.037119e+001
5.148079e+002,2.957027e+001
5.157722e+002,2.958127e+001
5.167364e+002,3.015442e+001
5.177006e+002,3.100200e+001
5.186649e+002,3.175819e+001
5.196291e+002,3.237152e+001
5.205933e+002,3.263213e+001
5.215576e+002,3.163783e+001
5.225218e+002,2.940305e+001
5.234860e+002,2.687639e+001
5.244503e+002,2.593797e+001
5.254145e+002,2.741782e+001
5.263787e+002,2.845204e+001
5.273430e+002,2.899532e+001
5.283072e+002,2.913950e+001
5.292714e+002,2.885768e+001
5.302357e+002,2.758650e+001
5.311999e+002,2.661169e+001
5.321641e+002,2.638029e+001
5.331284e+002,2.656364e+001
5.340926e+002,2.695984e+001
5.350568e+002,2.744649e+001
5.360211e+002,2.757402e+001
5.369853e+002,2.685388e+001
5.379495e+002,2.598476e+001
5.389138e+002,2.563597e+001
5.398780e+002,2.595337e+001
5.408422e+002,2.639883e+001
5.418065e+002,2.524352e+001
5.427707e+002,2.276508e+001
5.437349e+002,2.090665e+001
5.446992e+002,2.016576e+001
5.456634e+002,2.034689e+001
5.466276e+002,2.081882e+001
5.475919e+002,2.183080e+001
5.485561e+002,2.302451e+001
5.495203e+002,2.484616e+001
5.504846e+002,2.656389e+001
5.514488e+002,2.715094e+001
5.524130e+002,2.603934e+001
5.533773e+002,2.436024e+001
5.543415e+002,2.244946e+001
5.553057e+002,2.058536e+001
5.562700e+002,1.894713e+001
5.572342e+002,1.762732e+001
5.581984e+002,1.670071e+001
5.591627e+002,1.658226e+001
5.601269e+002,1.709839e+001
5.610911e+002,1.800433e+001
5.620554e+002,1.922453e+001
5.630196e+002,2.048648e+001
5.639838e+002,1.972931e+001
5.649481e+002,1.470616e+001
5.659123e+002,1.095424e+001
5.668765e+002,1.009186e+001
5.678408e+002,1.137428e+001
5.688050e+002,1.244644e+001
5.697692e+002,1.223004e+001
5.707335e+002,1.204820e+001
5.716977e+002,1.291333e+001
5.726619e+002,1.398138e+001
5.736262e+002,1.388109e+001
5.745904e+002,1.146294e+001
5.755546e+002,8.627350e+000
5.765189e+002,8.217773e+000
5.774831e+002,9.324966e+000
5.784473e+002,1.080161e+001
5.794116e+002,1.192181e+001
5.803758e+002,1.276022e+001
5.813400e+002,1.281140e+001
5.823043e+002,1.174066e+001
5.832685e+002,1.047551e+001
5.842327e+002,9.240753e+000
5.851970e+002,8.194595e+000
5.861612e+002,7.766464e+000
5.871254e+002,8.844299e+000
5.880897e+002,9.417953e+000
5.890539e+002,8.456177e+000
5.900181e+002,6.774460e+000
5.909824e+002,5.872208e+000
5.919466e+002,6.995285e+000
5.929108e+002,8.669357e+000
5.938751e+002,9.426208e+000
5.948393e+002,9.490692e+000
5.958035e+002,9.152222e+000
5.967678e+002,8.652206e+000
5.977320e+002,8.069870e+000
5.986962e+002,7.444931e+000
5.996605e+002,6.556015e+000
6.006247e+002,5.923141e+000
6.015889e+002,6.144669e+000
6.025532e+002,7.119598e+000
6.035174e+002,7.101669e+000
6.044816e+002,4.075317e+000
6.054459e+002,2.306198e+000
6.064101e+002,2.947662e+000
6.073743e+002,5.169434e+000
6.083386e+002,7.558273e+000
6.093028e+002,9.766678e+000
6.102670e+002,1.124673e+001
6.112313e+002,1.157089e+001
6.121955e+002,1.111456e+001
6.131597e+002,1.032997e+001
6.141240e+002,9.523697e+000
6.150882e+002,8.626831e+000
6.160524e+002,6.958664e+000
6.170167e+002,4.741913e+000
6.179809e+002,3.733597e+000
6.189451e+002,5.087524e+000
6.199094e+002,8.303513e+000
6.208736e+002,1.003497e+001
6.218378e+002,8.684723e+000
6.228021e+002,7.887100e+000
6.237663e+002,8.568665e+000
6.247305e+002,9.879547e+000
6.256948e+002,1.028304e+001
6.266590e+002,8.748474e+000
6.276232e+002,6.849945e+000
6.285875e+002,5.712830e+000
6.295517e+002,4.982788e+000
6.305159e+002,4.157135e+000
6.314802e+002,2.947250e+000
6.324444e+002,1.641464e+000
6.334086e+002,1.487747e+000
6.343729e+002,2.206924e+000
6.353371e+002,2.788376e+000
6.363013e+002,2.787537e+000
6.372656e+002,2.405472e+000
6.382298e+002,2.510498e+000
6.391940e+002,4.253433e+000
6.401583e+002,4.764709e+000
6.411225e+002,3.465942e+000
6.420867e+002,1.510208e+000
6.430510e+002,9.233093e-002
6.440152e+002,-5.704803e-001
6.449794e+002,-8.916168e-001
6.459437e+002,-1.237900e+000
6.469079e+002,-1.329514e+000
6.478721e+002,-6.069794e-001
6.488364e+002,9.945679e-001
6.498006e+002,2.673401e+000
6.507648e+002,2.591858e+000
6.517291e+002,1.424133e+000
6.526933e+002,1.002029e+000
6.536575e+002,1.692703e+000
6.546218e+002,2.895935e+000
6.555860e+002,3.487335e+000
6.565502e+002,3.272049e+000
6.575145e+002,2.629395e+000
6.584787e+002,1.116287e+000
6.594429e+002,-3.938293e-001
6.604072e+002,-1.369843e+000
6.613714e+002,-1.773193e+000
6.623356e+002,-1.253983e+000
6.632999e+002,1.860794e+000
6.642641e+002,4.463760e+000
6.652283e+002,4.734940e+000
6.661926e+002,2.825165e+000
6.671568e+002,1.549835e-001
6.681210e+002,-2.051392e+000
6.690853e+002,-3.448547e+000
6.700495e+002,-3.136917e+000
6.710137e+002,-1.201538e+000
6.719780e+002,1.124222e+000
6.729422e+002,2.541824e+000
6.739064e+002,2.837463e+000
6.748707e+002,3.039429e+000
6.758349e+002,3.365189e+000
6.767991e+002,3.341370e+000
6.777634e+002,2.505569e+000
6.787276e+002,1.143799e+000
6.796918e+002,6.424713e-001
6.806561e+002,2.054001e+000
6.816203e+002,3.635452e+000
6.825845e+002,5.386597e+000
6.835488e+002,6.715744e+000
6.845130e+002,6.672134e+000
6.854772e+002,4.449478e+000
6.864415e+002,1.189926e+000
6.874057e+002,-1.230103e+000
6.883699e+002,-2.918152e+000
6.893342e+002,-3.302826e+000
6.902984e+002,-1.884750e+000
6.912626e+002,9.800720e-001
6.922269e+002,2.537201e+000
6.931911e+002,2.273758e+000
6.941553e+002,1.729721e+000
6.951196e+002,-5.735779e-002
6.960838e+002,-1.966507e+000
6.970480e+002,-1.814209e+000
6.980123e+002,1.925110e+000
6.989765e+002,5.197067e+000
6.999407e+002,6.701508e+000
7.009050e+002,6.921555e+000
7.018692e+002,5.751373e+000
7.028334e+002,3.381912e+000
7.037977e+002,7.346802e-001
7.047619e+002,-6.549988e-001
7.057261e+002,-1.036118e+000
7.066904e+002,-1.042786e+000
7.076546e+002,-7.755737e-001
7.086188e+002,-2.872314e-001
7.095831e+002,3.862305e-001
7.105473e+002,1.443665e+000
7.115115e+002,1.693939e+000
7.124758e+002,5.657806e-001
7.134400e+002,-7.097321e-001
7.144042e+002,-1.299866e+000
7.153685e+002,-1.133545e+000
7.163327e+002,-9.896240e-001
7.172969e+002,-1.533508e+000
7.182612e+002,-1.821655e+000
7.192254e+002,-1.397278e+000
7.201896e+002,-4.717712e-001
7.211539e+002,5.800781e-001
7.221181e+002,1.517975e+000
7.230823e+002,2.186340e+000
7.240466e+002,2.099670e+000
7.250108e+002,1.550873e+000
7.259750e+002,1.345093e+000
7.269393e+002,1.968796e+000
7.279035e+002,3.046982e+000
7.288677e+002,2.630844e+000
7.298320e+002,-1.614166e+000
7.307962e+002,-3.841415e+000
7.317604e+002,-2.560577e+000
7.327247e+002,5.446014e-001
7.336889e+002,3.235016e+000
7.346531e+002,4.897675e+000
7.356174e+002,5.377686e+000
7.365816e+002,4.352615e+000
7.375458e+002,3.015305e+000
7.385101e+002,2.224655e+000
7.394743e+002,2.195618e+000
7.404385e+002,2.490784e+000
7.414028e+002,2.372772e+000
7.423670e+002,1.728333e+000
7.433312e+002,1.517059e+000
7.442955e+002,2.084183e+000
7.452597e+002,2.631287e+000
7.462239e+002,1.898468e+000
7.471882e+002,-8.421326e-001
7.481524e+002,-1.873062e+000
7.491166e+002,-3.530884e-001
7.500809e+002,1.184540e+000
7.510451e+002,1.929367e+000
7.520093e+002,1.923996e+000
7.529736e+002,1.581650e+000
7.539378e+002,9.184418e-001
7.549020e+002,6.056213e-001
7.558663e+002,1.243347e+000
7.568306e+002,2.329346e+000
7.577948e+002,3.032272e+000
7.587590e+002,2.846558e+000
7.597233e+002,2.193542e+000
7.606875e+002,2.914581e+000
7.616517e+002,4.891907e+000
7.626160e+002,6.109711e+000
7.635802e+002,5.933884e+000
7.645444e+002,4.915848e+000
7.655087e+002,4.093155e+000
7.664729e+002,3.320251e+000
7.674371e+002,3.053452e+000
7.684014e+002,3.657730e+000
7.693656e+002,4.329315e+000
7.703298e+002,4.386597e+000
7.712941e+002,3.864868e+000
7.722583e+002,3.819382e+000
7.732225e+002,6.147873e+000
7.741868e+002,8.085281e+000
7.751510e+002,6.693237e+000
7.761152e+002,3.025101e+000
7.770795e+002,-1.240082e-001
7.780437e+002,-2.924042e-001
7.790079e+002,2.019119e+000
7.799722e+002,2.606735e+000
7.809364e+002,1.298187e+000
7.819006e+002,4.229431e-001
7.828649e+002,1.342300e+000
7.838291e+002,3.517090e+000
7.847933e+002,4.854752e+000
7.857576e+002,4.409912e+000
7.867218e+002,4.183960e+000
7.876860e+002,5.083176e+000
7.886503e+002,6.183868e+000
7.896145e+002,6.634384e+000
7.905787e+002,6.236328e+000
7.915430e+002,5.646576e+000
7.925072e+002,5.112732e+000
7.934714e+002,4.859482e+000
7.944357e+002,5.757462e+000
7.953999e+002,7.652527e+000
7.963641e+002,9.284760e+000
7.973284e+002,9.132263e+000
7.982926e+002,7.031631e+000
7.992568e+002,6.391891e+000
8.002211e+002,8.069550e+000
8.011853e+002,8.789703e+000
8.021495e+002,6.731262e+000
8.031138e+002,3.036758e+000
8.040780e+002,1.206635e+000
8.050422e+002,2.343338e+000
8.060065e+002,4.429153e+000
8.069707e+002,8.031235e+000
8.079349e+002,1.122719e+001
8.088992e+002,1.164365e+001
8.098634e+002,8.793167e+000
8.108276e+002,5.418335e+000
8.117919e+002,5.740341e+000
8.127561e+002,7.966049e+000
8.137203e+002,8.851135e+000
8.146846e+002,8.180374e+000
8.156488e+002,7.185608e+000
8.166130e+002,7.410812e+000
8.175773e+002,9.329147e+000
8.185415e+002,9.256912e+000
8.195057e+002,4.143616e+000
8.204700e+002,8.439941e-001
8.214342e+002,3.206604e+000
8.223984e+002,9.139191e+000
8.233627e+002,1.278322e+001
8.243269e+002,1.112134e+001
8.252911e+002,9.087524e+000
8.262554e+002,1.005458e+001
8.272196e+002,1.195334e+001
8.281838e+002,1.228166e+001
8.291481e+002,1.035733e+001
8.301123e+002,8.057343e+000
8.310765e+002,9.077026e+000
8.320408e+002,1.293935e+001
8.330050e+002,1.403091e+001
8.339692e+002,1.153777e+001
8.349335e+002,8.019104e+000
8.358977e+002,5.956207e+000
8.368619e+002,5.533951e+000
8.378262e+002,5.764999e+000
8.387904e+002,7.958969e+000
8.397546e+002,9.008133e+000
8.407189e+002,6.802567e+000
8.416831e+002,3.273666e+000
8.426473e+002,2.102875e+000
8.436116e+002,5.426117e+000
8.445758e+002,9.356537e+000
8.455400e+002,9.052643e+000
8.465043e+002,7.017029e+000
8.474685e+002,6.208542e+000
8.484327e+002,7.527542e+000
8.493970e+002,9.934219e+000
8.503612e+002,1.153421e+001
8.513254e+002,1.213235e+001
8.522897e+002,1.253900e+001
8.532539e+002,1.263837e+001
8.542181e+002,1.254880e+001
8.551824e+002,1.255786e+001
8.561466e+002,1.275159e+001
8.571108e+002,1.263268e+001
8.580751e+002,1.074855e+001
8.590393e+002,9.725403e+000
8.600035e+002,1.125134e+001
8.609678e+002,1.382803e+001
8.619320e+002,1.577913e+001
8.628962e+002,1.639453e+001
8.638605e+002,1.630861e+001
8.648247e+002,1.624005e+001
8.657889e+002,1.623923e+001
8.667532e+002,1.658932e+001
8.677174e+002,1.732356e+001
8.686816e+002,1.802908e+001
8.696459e+002,1.824612e+001
8.706101e+002,1.797353e+001
8.715743e+002,1.776457e+001
8.725386e+002,1.701698e+001
8.735028e+002,1.708757e+001
8.744670e+002,1.911819e+001
8.754313e+002,2.182208e+001
8.763955e+002,2.263646e+001
8.773597e+002,2.017657e+001
8.783240e+002,1.800348e+001
8.792882e+002,1.909190e+001
8.802524e+002,2.121346e+001
8.812167e+002,2.238101e+001
8.821809e+002,2.231483e+001
8.831451e+002,2.235007e+001
8.841094e+002,2.439029e+001
8.850736e+002,2.828265e+001
8.860378e+002,2.894659e+001
8.870021e+002,2.546577e+001
8.879663e+002,2.218727e+001
8.889305e+002,2.150897e+001
8.898948e+002,2.297403e+001
8.908590e+002,2.457671e+001
8.918232e+002,2.696179e+001
8.927875e+002,2.835008e+001
8.937517e+002,2.775273e+001
8.947159e+002,2.660854e+001
8.956802e+002,2.598643e+001
8.966444e+002,2.606297e+001
8.976086e+002,2.622612e+001
8.985729e+002,2.577629e+001
8.995371e+002,2.549527e+001
9.005013e+002,2.663724e+001
9.014656e+002,2.905296e+001
9.024298e+002,3.176006e+001
9.033940e+002,3.401068e+001
9.043583e+002,3.562781e+001
9.053225e+002,3.610988e+001
9.062867e+002,3.399658e+001
9.072510e+002,3.238574e+001
9.082152e+002,3.148183e+001
9.091794e+002,3.133691e+001
9.101437e+002,3.246793e+001
9.111079e+002,3.497017e+001
9.120721e+002,3.649091e+001
9.130364e+002,3.402661e+001
9.140006e+002,3.127916e+001
9.149648e+002,3.069110e+001
9.159291e+002,3.174042e+001
9.168933e+002,3.279024e+001
9.178575e+002,3.262973e+001
9.188218e+002,3.161530e+001
9.197860e+002,3.123051e+001
9.207502e+002,3.143365e+001
9.217145e+002,3.128644e+001
9.226787e+002,3.044453e+001
9.236429e+002,2.966632e+001
9.246072e+002,3.015851e+001
9.255714e+002,3.228648e+001
9.265356e+002,3.316617e+001
9.274999e+002,3.130875e+001
9.284641e+002,2.913106e+001
9.294283e+002,2.721005e+001
9.303926e+002,2.571889e+001
9.313568e+002,2.466866e+001
9.323210e+002,2.405396e+001
9.332853e+002,2.382942e+001
9.342495e+002,2.415956e+001
9.352137e+002,2.476050e+001
9.361780e+002,2.566057e+001
9.371422e+002,2.692580e+001
9.381064e+002,2.757791e+001
9.390707e+002,2.589098e+001
9.400349e+002,2.100871e+001
9.409991e+002,1.867647e+001
9.419634e+002,2.101083e+001
9.429276e+002,2.274254e+001
9.438918e+002,2.165019e+001
9.448561e+002,1.942421e+001
9.458203e+002,1.922810e+001
9.467845e+002,2.233507e+001
9.477488e+002,2.566321e+001
9.487130e+002,2.716270e+001
9.496772e+002,2.767012e+001
9.506415e+002,2.732945e+001
9.516057e+002,2.648889e+001
9.525699e+002,2.588411e+001
9.535342e+002,2.623050e+001
9.544984e+002,2.730594e+001
9.554626e+002,2.760780e+001
9.564269e+002,2.725368e+001
9.573911e+002,2.685883e+001
9.583553e+002,2.652290e+001
9.593196e+002,2.617517e+001
9.602838e+002,2.572058e+001
9.612480e+002,2.509848e+001
9.622123e+002,2.439336e+001
9.631765e+002,2.330392e+001
9.641407e+002,2.254782e+001
9.651050e+002,2.230159e+001
9.660692e+002,2.260086e+001
9.670334e+002,2.381721e+001
9.679977e+002,2.630495e+001
9.689619e+002,2.902888e+001
9.699261e+002,2.886247e+001
9.708904e+002,2.669202e+001
9.718546e+002,2.525101e+001
9.728188e+002,2.512204e+001
9.737831e+002,2.564420e+001
9.747473e+002,2.595692e+001
9.757115e+002,2.596680e+001
9.766758e+002,2.655794e+001
9.776400e+002,2.847429e+001
9.786042e+002,3.029138e+001
9.795685e+002,3.180161e+001
9.805327e+002,3.277261e+001
9.814969e+002,3.314131e+001
9.824612e+002,3.297424e+001
9.834254e+002,3.209726e+001
9.843896e+002,2.962236e+001
9.853539e+002,2.645883e+001
9.863181e+002,2.325880e+001
9.872823e+002,2.021317e+001
9.882466e+002,1.790233e+001
9.892108e+002,1.697935e+001
9.901750e+002,1.743510e+001
9.911393e+002,1.791707e+001
9.921035e+002,1.774063e+001
9.930677e+002,1.800317e+001
9.940320e+002,1.955092e+001
9.949962e+002,2.120155e+001
9.959604e+002,2.155373e+001
9.969247e+002,2.062233e+001
9.978889e+002,2.034204e+001
9.988531e+002,2.162076e+001
9.998174e+002,2.345309e+001
1.000782e+003,2.602731e+001
1.001746e+003,2.862883e+001
1.002710e+003,3.001862e+001
1.003674e+003,2.976405e+001
1.004639e+003,2.884540e+001
1.005603e+003,2.901552e+001
1.006567e+003,3.035762e+001
1.007531e+003,3.144554e+001
1.008495e+003,3.246356e+001
1.009460e+003,3.296967e+001
1.010424e+003,3.250197e+001
1.011388e+003,3.132872e+001
1.012352e+003,3.046182e+001
1.013317e+003,3.026277e+001
1.014281e+003,2.966832e+001
1.015245e+003,2.770146e+001
1.016209e+003,2.572572e+001
1.017174e+003,2.533089e+001
1.018138e+003,2.611308e+001
1.019102e+003,2.579872e+001
1.020066e+003,2.230391e+001
1.021031e+003,1.742427e+001
1.021995e+003,1.678995e+001
1.022959e+003,1.932597e+001
1.023923e+003,2.062103e+001
1.024887e+003,1.902777e+001
1.025852e+003,1.586058e+001
1.026816e+003,1.308763e+001
1.027780e+003,1.078119e+001
1.028744e+003,9.052200e+000
1.029709e+003,7.726593e+000
1.030673e+003,7.119370e+000
1.031637e+003,7.990448e+000
1.032601e+003,9.296097e+000
1.033566e+003,9.414551e+000
1.034530e+003,7.866806e+000
1.035494e+003,6.462677e+000
1.036458e+003,7.811218e+000
1.037422e+003,1.008313e+001
1.038387e+003,9.978638e+000
1.039351e+003,7.575867e+000
1.040315e+003,4.995956e+000
1.041279e+003,3.798172e+000
1.042244e+003,3.861450e+000
1.043208e+003,4.381760e+000
1.044172e+003,5.432632e+000
1.045136e+003,6.615997e+000
1.046101e+003,8.499832e+000
1.047065e+003,1.006342e+001
1.048029e+003,1.027122e+001
1.048993e+003,9.461044e+000
1.049958e+003,9.271194e+000
1.050922e+003,1.096408e+001
1.051886e+003,1.239140e+001
1.052850e+003,1.056241e+001
1.053814e+003,7.505981e+000
1.054779e+003,5.885544e+000
1.055743e+003,6.207932e+000
1.056707e+003,7.173676e+000
1.057671e+003,7.212097e+000
1.058636e+003,6.289444e+000
1.059600e+003,6.045044e+000
1.060564e+003,7.889786e+000
1.061528e+003,8.664413e+000
1.062493e+003,6.401825e+000
1.063457e+003,3.637543e+000
1.064421e+003,3.827499e+000
1.065385e+003,7.314728e+000
1.066349e+003,9.837677e+000
1.067314e+003,8.504410e+000
1.068278e+003,6.393524e+000
1.069242e+003,5.598846e+000
1.070206e+003,5.678955e+000
1.071171e+003,5.705368e+000
1.072135e+003,5.262833e+000
1.073099e+003,4.783356e+000
1.074063e+003,5.137451e+000
1.075028e+003,6.499908e+000
1.075992e+003,7.044724e+000
1.076956e+003,6.320328e+000
1.077920e+003,5.500977e+000
1.078885e+003,4.945572e+000
1.079849e+003,4.765701e+000
1.080813e+003,5.211548e+000
1.081777e+003,6.468506e+000
1.082741e+003,7.614914e+000
1.083706e+003,7.629181e+000
1.084670e+003,7.627258e+000
1.085634e+003,8.449966e+000
1.086598e+003,9.706528e+000
1.087563e+003,1.070854e+001
1.088527e+003,1.109100e+001
1.089491e+003,1.084631e+001
1.090455e+003,9.586090e+000
1.091420e+003,7.061493e+000
1.092384e+003,6.175842e+000
1.093348e+003,7.855072e+000
1.094312e+003,9.259674e+000
1.095276e+003,8.627930e+000
1.096241e+003,6.615311e+000
1.097205e+003,4.894043e+000
1.098169e+003,3.422256e+000
1.099133e+003,2.631531e+000
1.100098e+003,3.078598e+000
1.101062e+003,3.927017e+000
1.102026e+003,4.854279e+000
1.102990e+003,5.739426e+000
1.103955e+003,6.611923e+000
1.104919e+003,7.452255e+000
1.105883e+003,7.843964e+000
1.106847e+003,6.653824e+000
1.107812e+003,3.880615e+000
1.108776e+003,2.810867e+000
1.109740e+003,4.145874e+000
1.110704e+003,6.017227e+000
1.111668e+003,7.460327e+000
1.112633e+003,8.524475e+000
1.113597e+003,8.943985e+000
1.114561e+003,8.193100e+000
1.115525e+003,7.715683e+000
1.116490e+003,7.958572e+000
1.117454e+003,8.530594e+000
1.118418e+003,9.317841e+000
1.119382e+003,1.034825e+001
1.120347e+003,1.174443e+001
1.121311e+003,1.348178e+001
1.122275e+003,1.506303e+001
1.123239e+003,1.596970e+001
1.124203e+003,1.625591e+001
1.125168e+003,1.504131e+001
1.126132e+003,1.170537e+001
1.127096e+003,8.397171e+000
1.128060e+003,6.171951e+000
1.129025e+003,5.142273e+000
1.129989e+003,6.499634e+000
1.130953e+003,1.197446e+001
1.131917e+003,1.591212e+001
1.132882e+003,1.547398e+001
1.133846e+003,1.466400e+001
1.134810e+003,1.623080e+001
1.135774e+003,1.949199e+001
1.136739e+003,2.218121e+001
1.137703e+003,2.301277e+001
1.138667e+003,2.282915e+001
1.139631e+003,2.278770e+001
1.140595e+003,2.307556e+001
1.141560e+003,2.508681e+001
1.142524e+003,2.946394e+001
1.143488e+003,3.387975e+001
1.144452e+003,3.658351e+001
1.145417e+003,3.801338e+001
1.146381e+003,3.953769e+001
1.147345e+003,4.047327e+001
1.148309e+003,4.344206e+001
1.149274e+003,5.031741e+001
1.150238e+003,5.803812e+001
1.151202e+003,6.562633e+001
1.152166e+003,7.287302e+001
1.153130e+003,7.966867e+001
1.154095e+003,8.587706e+001
1.155059e+003,9.158221e+001
1.156023e+003,9.747641e+001
1.156987e+003,1.030781e+002
1.157952e+003,1.054374e+002
1.158916e+003,1.045498e+002
1.159880e+003,1.021128e+002
1.160844e+003,9.881277e+001
1.161809e+003,9.416284e+001
1.162773e+003,8.702489e+001
1.163737e+003,7.666971e+001
1.164701e+003,6.719089e+001
1.165666e+003,5.970879e+001
1.166630e+003,5.345108e+001
1.167594e+003,4.831976e+001
1.168558e+003,4.414717e+001
1.169522e+003,4.114555e+001
1.170487e+003,3.914464e+001
1.171451e+003,3.711372e+001
1.172415e+003,3.373006e+001
1.173379e+003,2.944359e+001
1.174344e+003,2.669748e+001
1.175308e+003,2.540849e+001
1.176272e+003,2.542560e+001
1.177236e+003,2.801221e+001
1.178201e+003,3.096501e+001
1.179165e+003,3.096198e+001
1.180129e+003,2.787483e+001
1.181093e+003,2.563687e+001
1.182057e+003,2.574411e+001
1.183022e+003,2.590402e+001
1.183986e+003,2.498631e+001
1.184950e+003,2.391179e+001
1.185914e+003,2.379221e+001
1.186879e+003,2.457066e+001
1.187843e+003,2.520618e+001
1.188807e+003,2.480678e+001
1.189771e+003,2.368654e+001
1.190736e+003,2.284286e+001
1.191700e+003,2.224818e+001
1.192664e+003,2.227046e+001
1.193628e+003,2.340364e+001
1.194593e+003,2.471191e+001
1.195557e+003,2.582495e+001
1.196521e+003,2.655235e+001
1.197485e+003,2.611560e+001
1.198449e+003,2.404155e+001
1.199414e+003,2.200262e+001
1.200378e+003,2.081058e+001
1.201342e+003,1.987135e+001
1.202306e+003,1.884120e+001
1.203271e+003,1.769437e+001
1.204235e+003,1.641618e+001
1.205199e+003,1.507884e+001
1.206163e+003,1.405070e+001
1.207128e+003,1.397777e+001
1.208092e+003,1.494087e+001
1.209056e+003,1.536621e+001
1.210020e+003,1.522879e+001
1.210984e+003,1.475711e+001
1.211949e+003,1.437827e+001
1.212913e+003,1.342104e+001
1.213877e+003,1.043716e+001
1.214841e+003,5.501083e+000
1.215806e+003,2.031860e+000
1.216770e+003,1.991837e+000
1.217734e+003,2.713608e+000
1.218698e+003,2.375519e+000
1.219663e+003,1.466232e+000
1.220627e+003,5.583191e-001
1.221591e+003,-2.051239e-001
1.222555e+003,-9.500732e-001
1.223520e+003,-1.770493e+000
1.224484e+003,-2.633453e+000
1.225448e+003,-3.624985e+000
1.226412e+003,-5.149490e+000
1.227376e+003,-5.851501e+000
1.228341e+003,-4.889755e+000
1.229305e+003,-4.156082e+000
1.230269e+003,-4.859314e+000
1.231233e+003,-6.478516e+000
1.232198e+003,-8.094727e+000
1.233162e+003,-9.479858e+000
1.234126e+003,-9.834137e+000
1.235090e+003,-7.773895e+000
1.236055e+003,-5.295868e+000
1.237019e+003,-4.467056e+000
1.237983e+003,-5.025467e+000
1.238947e+003,-6.164536e+000
1.239911e+003,-7.477478e+000
1.240876e+003,-8.675354e+000
1.241840e+003,-9.419617e+000
1.242804e+003,-9.710968e+000
1.243768e+003,-9.452850e+000
1.244733e+003,-7.634171e+000
1.245697e+003,-6.627014e+000
1.246661e+003,-7.620453e+000
1.247625e+003,-8.774521e+000
1.248590e+003,-8.474579e+000
1.249554e+003,-6.965073e+000
1.250518e+003,-5.479034e+000
1.251482e+003,-4.586014e+000
1.252447e+003,-4.364349e+000
1.253411e+003,-5.183914e+000
1.254375e+003,-6.460815e+000
1.255339e+003,-7.153824e+000
1.256303e+003,-7.156021e+000
1.257268e+003,-6.471024e+000
1.258232e+003,-4.990952e+000
1.259196e+003,-3.235245e+000
1.260160e+003,-2.090637e+000
1.261125e+003,-1.551193e+000
1.262089e+003,-1.085968e+000
1.263053e+003,-7.218170e-001
1.264017e+003,-5.686951e-001
1.264982e+003,-7.784424e-001
1.265946e+003,-1.034012e+000
1.266910e+003,-1.101913e+000
1.267874e+003,-9.248505e-001
1.268839e+003,-4.317169e-001
1.269803e+003,4.401245e-001
1.270767e+003,1.343399e+000
1.271731e+003,1.535675e+000
1.272695e+003,1.091217e+000
1.273660e+003,1.063141e+000
1.274624e+003,1.582474e+000
1.275588e+003,1.762970e+000
1.276552e+003,1.306778e+000
1.277517e+003,3.171997e-001
1.278481e+003,-1.524750e+000
1.279445e+003,-4.413391e+000
1.280409e+003,-6.084213e+000
1.281374e+003,-4.875351e+000
1.282338e+003,-3.462006e+000
1.283302e+003,-3.131256e+000
1.284266e+003,-3.459686e+000
1.285230e+003,-4.149185e+000
1.286195e+003,-4.981949e+000
1.287159e+003,-5.590363e+000
1.288123e+003,-5.624435e+000
1.289087e+003,-5.213989e+000
1.290052e+003,-4.960709e+000
1.291016e+003,-5.024094e+000
1.291980e+003,-4.964264e+000
1.292944e+003,-4.612335e+000
1.293909e+003,-4.548767e+000
1.294873e+003,-5.269836e+000
1.295837e+003,-6.090927e+000
1.296801e+003,-5.857407e+000
1.297766e+003,-4.533783e+000
1.298730e+003,-3.654739e+000
1.299694e+003,-4.139404e+000
1.300658e+003,-5.337128e+000
1.301622e+003,-7.102478e+000
1.302587e+003,-8.737030e+000
1.303551e+003,-8.881622e+000
1.304515e+003,-7.380234e+000
1.305479e+003,-5.521591e+000
1.306444e+003,-4.312195e+000
1.307408e+003,-3.723206e+000
1.308372e+003,-3.616608e+000
1.309336e+003,-4.278519e+000
1.310301e+003,-4.560471e+000
1.311265e+003,-3.786224e+000
1.312229e+003,-3.281860e+000
1.313193e+003,-3.743210e+000
1.314157e+003,-4.505569e+000
1.315122e+003,-4.830765e+000
1.316086e+003,-4.703049e+000
1.317050e+003,-4.541290e+000
1.318014e+003,-4.545944e+000
1.318979e+003,-4.860962e+000
1.319943e+003,-6.072006e+000
1.320907e+003,-7.949783e+000
1.321871e+003,-8.936005e+000
1.322836e+003,-9.069290e+000
1.323800e+003,-8.454468e+000
1.324764e+003,-6.607681e+000
1.325728e+003,-4.279694e+000
1.326693e+003,-2.700867e+000
1.327657e+003,-1.966217e+000
1.328621e+003,-1.981003e+000
1.329585e+003,-2.671875e+000
1.330549e+003,-3.650375e+000
1.331514e+003,-5.653046e+000
1.332478e+003,-7.537704e+000
1.333442e+003,-7.884888e+000
1.334406e+003,-6.870209e+000
1.335371e+003,-5.654999e+000
1.336335e+003,-4.967163e+000
1.337299e+003,-4.647354e+000
1.338263e+003,-4.452103e+000
1.339228e+003,-4.420364e+000
1.340192e+003,-4.090546e+000
1.341156e+003,-3.070099e+000
1.342120e+003,-2.355286e+000
1.343084e+003,-2.321991e+000
1.344049e+003,-2.619888e+000
1.345013e+003,-3.072845e+000
1.345977e+003,-3.453278e+000
1.346941e+003,-3.348862e+000
1.347906e+003,-2.603729e+000
1.348870e+003,-1.607071e+000
1.349834e+003,-4.676514e-001
1.350798e+003,3.851471e-001
1.351763e+003,2.817383e-001
1.352727e+003,-6.431427e-001
1.353691e+003,-1.852966e+000
1.354655e+003,-3.301422e+000
1.355620e+003,-4.418716e+000
1.356584e+003,-4.271896e+000
1.357548e+003,-3.011566e+000
1.358512e+003,-2.318802e+000
1.359476e+003,-2.492432e+000
1.360441e+003,-2.960480e+000
1.361405e+003,-4.046402e+000
1.362369e+003,-4.771667e+000
1.363333e+003,-4.054825e+000
1.364298e+003,-2.949860e+000
1.365262e+003,-3.312500e+000
1.366226e+003,-5.251404e+000
1.367190e+003,-6.766266e+000
1.368155e+003,-6.050461e+000
1.369119e+003,-3.926025e+000
1.370083e+003,-2.999527e+000
1.371047e+003,-3.669174e+000
1.372011e+003,-3.612686e+000
1.372976e+003,-2.314636e+000
1.373940e+003,-1.234009e+000
1.374904e+003,-6.514282e-001
1.375868e+003,-6.460571e-001
1.376833e+003,-1.899658e+000
1.377797e+003,-4.123077e+000
1.378761e+003,-5.003876e+000
1.379725e+003,-3.099167e+000
1.380690e+003,-1.002609e+000
1.381654e+003,-2.225143e+000
1.382618e+003,-4.452789e+000
1.383582e+003,-4.010742e+000
1.384547e+003,-1.125092e+000
1.385511e+003,8.218994e-001
1.386475e+003,-1.394043e-001
1.387439e+003,-2.049606e+000
1.388403e+003,-1.485489e+000
1.389368e+003,1.528809e+000
1.390332e+003,2.518005e+000
1.391296e+003,1.350250e-001
1.392260e+003,-1.659409e+000
1.393225e+003,-2.055603e+000
1.394189e+003,-1.680847e+000
1.395153e+003,5.497742e-002
1.396117e+003,1.931213e+000
1.397082e+003,1.806030e+000
1.398046e+003,-4.738770e-001
1.399010e+003,-2.472580e+000
1.399974e+003,-1.966812e+000
1.400938e+003,-2.010040e-001
1.401903e+003,-9.390869e-001
1.402867e+003,-5.031357e+000
1.403831e+003,-6.430588e+000
1.404795e+003,-3.576706e+000
1.405760e+003,-5.445709e-001
1.406724e+003,1.655457e+000
1.407688e+003,2.698669e+000
1.408652e+003,1.784866e+000
1.409617e+003,-4.844208e-001
1.410581e+003,-1.462173e+000
1.411545e+003,1.536407e-001
1.412509e+003,1.823837e+000
1.413474e+003,2.621002e-001
1.414438e+003,-2.424637e+000
1.415402e+003,-2.037292e+000
1.416366e+003,1.014603e+000
1.417330e+003,3.123093e+000
1.418295e+003,2.730392e+000
1.419259e+003,1.555908e+000
1.420223e+003,1.753479e+000
1.421187e+003,2.900696e+000
1.422152e+003,2.535797e+000
1.423116e+003,8.551025e-002
1.424080e+003,-1.759384e+000
1.425044e+003,-2.253677e+000
1.426009e+003,-2.182526e+000
1.426973e+003,-1.453674e+000
1.427937e+003,-5.766144e-001
1.428901e+003,-1.419983e-001
1.429865e+003,-9.828186e-002
1.430830e+003,1.655579e-002
1.431794e+003,4.669342e-001
1.432758e+003,1.181870e+000
1.433722e+003,2.205261e+000
1.434687e+003,3.774353e+000
1.435651e+003,4.652878e+000
1.436615e+003,4.440887e+000
1.437579e+003,3.412491e+000
1.438544e+003,-2.264862e-001
1.439508e+003,-2.729996e+000
1.440472e+003,-3.501892e-001
1.441436e+003,4.681610e+000
1.442401e+003,7.757034e+000
1.443365e+003,7.827347e+000
1.444329e+003,7.591934e+000
1.445293e+003,9.264603e+000
1.446257e+003,1.124922e+001
1.447222e+003,9.819672e+000
1.448186e+003,5.742004e+000
1.449150e+003,3.471786e+000
1.450114e+003,3.722031e+000
1.451079e+003,4.234711e+000
1.452043e+003,3.706131e+000
1.453007e+003,3.057907e+000
1.453971e+003,3.931351e+000
1.454936e+003,5.959015e+000
1.455900e+003,6.326691e+000
1.456864e+003,3.876373e+000
1.457828e+003,1.982956e+000
1.458792e+003,3.578674e+000
1.459757e+003,5.494858e+000
1.460721e+003,4.668839e+000
1.461685e+003,2.300293e+000
1.462649e+003,9.946899e-001
1.463614e+003,1.478912e+000
1.464578e+003,2.858704e+000
1.465542e+003,4.504333e+000
1.466506e+003,6.014420e+000
1.467471e+003,6.053604e+000
1.468435e+003,4.204041e+000
1.469399e+003,3.633545e+000
1.470363e+003,5.471252e+000
1.471328e+003,6.988464e+000
1.472292e+003,7.856232e+000
1.473256e+003,7.761658e+000
1.474220e+003,5.947525e+000
1.475184e+003,3.440094e+000
1.476149e+003,1.903885e+000
1.477113e+003,1.813919e+000
1.478077e+003,2.327454e+000
1.479041e+003,2.701553e+000
1.480006e+003,3.349518e+000
1.480970e+003,5.569962e+000
1.481934e+003,1.021844e+001
1.482898e+003,1.213637e+001
1.483863e+003,9.182266e+000
1.484827e+003,6.778320e+000
1.485791e+003,6.315247e+000
1.486755e+003,7.185684e+000
1.487719e+003,9.734085e+000
1.488684e+003,1.285963e+001
1.489648e+003,1.379579e+001
1.490612e+003,1.179245e+001
1.491576e+003,9.695023e+000
1.492541e+003,9.750473e+000
1.493505e+003,1.117575e+001
1.494469e+003,1.243701e+001
1.495433e+003,1.347377e+001
1.496398e+003,1.471812e+001
1.497362e+003,1.655063e+001
1.498326e+003,1.810985e+001
1.499290e+003,1.828055e+001
1.500255e+003,1.835934e+001
1.501219e+003,2.019377e+001
1.502183e+003,2.354933e+001
1.503147e+003,2.707904e+001
1.504111e+003,3.057402e+001
1.505076e+003,3.374980e+001
1.506040e+003,3.597148e+001
1.507004e+003,3.837244e+001
1.507968e+003,4.217616e+001
1.508933e+003,4.693562e+001
1.509897e+003,5.166386e+001
1.510861e+003,5.635840e+001
1.511825e+003,6.187117e+001
1.512790e+003,6.883426e+001
1.513754e+003,7.653561e+001
1.514718e+003,8.353242e+001
1.515682e+003,8.973047e+001
1.516646e+003,9.754083e+001
1.517611e+003,1.084942e+002
1.518575e+003,1.181174e+002
1.519539e+003,1.245362e+002
1.520503e+003,1.299914e+002
1.521468e+003,1.360062e+002
1.522432e+003,1.414909e+002
1.523396e+003,1.452917e+002
1.524360e+003,1.468945e+002
1.525325e+003,1.455359e+002
1.526289e+003,1.407436e+002
1.527253e+003,1.345573e+002
1.528217e+003,1.306937e+002
1.529182e+003,1.292900e+002
1.530146e+003,1.265549e+002
1.531110e+003,1.228298e+002
1.532074e+003,1.168011e+002
1.533039e+003,1.073885e+002
1.534003e+003,9.660352e+001
1.534967e+003,8.415244e+001
1.535931e+003,7.208707e+001
1.536896e+003,6.288266e+001
1.537860e+003,5.622913e+001
1.538824e+003,4.958600e+001
1.539788e+003,4.167838e+001
1.540752e+003,3.438397e+001
1.541717e+003,3.029665e+001
1.542681e+003,2.895847e+001
1.543645e+003,2.690170e+001
1.544609e+003,2.380412e+001
1.545573e+003,2.111987e+001
1.546538e+003,1.865868e+001
1.547502e+003,1.652063e+001
1.548466e+003,1.484981e+001
1.549430e+003,1.370593e+001
1.550395e+003,1.315881e+001
1.551359e+003,1.303638e+001
1.552323e+003,1.314227e+001
1.553287e+003,1.338417e+001
1.554252e+003,1.339484e+001
1.555216e+003,1.279117e+001
1.556180e+003,1.184531e+001
1.557144e+003,1.114859e+001
1.558109e+003,1.075934e+001
1.559073e+003,1.077884e+001
1.560037e+003,1.132225e+001
1.561001e+003,1.167587e+001
1.561966e+003,1.190074e+001
1.562930e+003,1.186632e+001
1.563894e+003,1.104593e+001
1.564858e+003,9.828339e+000
1.565823e+003,9.297028e+000
1.566787e+003,9.615509e+000
1.567751e+003,9.932358e+000
1.568715e+003,9.769760e+000
1.569679e+003,9.580795e+000
1.570644e+003,1.012772e+001
1.571608e+003,1.090457e+001
1.572572e+003,1.028931e+001
1.573536e+003,8.249695e+000
1.574500e+003,7.635666e+000
1.575465e+003,1.005829e+001
1.576429e+003,1.300699e+001
1.577393e+003,1.487291e+001
1.578357e+003,1.559644e+001
1.579322e+003,1.473639e+001
1.580286e+003,1.246729e+001
1.581250e+003,1.057324e+001
1.582214e+003,9.465805e+000
1.583179e+003,9.299759e+000
1.584143e+003,1.055783e+001
1.585107e+003,1.241753e+001
1.586071e+003,1.419299e+001
1.587036e+003,1.582079e+001
1.588000e+003,1.660645e+001
1.588964e+003,1.628337e+001
1.589928e+003,1.576657e+001
1.590893e+003,1.554503e+001
1.591857e+003,1.561774e+001
1.592821e+003,1.615387e+001
1.593785e+003,1.705222e+001
1.594750e+003,1.767696e+001
1.595714e+003,1.795235e+001
1.596678e+003,1.751721e+001
1.597642e+003,1.548709e+001
1.598606e+003,1.383548e+001
1.599571e+003,1.467487e+001
1.600535e+003,1.653462e+001
1.601499e+003,1.743707e+001
1.602463e+003,1.738971e+001
1.603427e+003,1.752454e+001
1.604392e+003,1.831123e+001
1.605356e+003,1.940001e+001
1.606320e+003,2.089175e+001
1.607284e+003,2.228120e+001
1.608249e+003,2.160059e+001
1.609213e+003,1.873883e+001
1.610177e+003,1.766447e+001
1.611141e+003,1.998415e+001
1.612106e+003,2.174591e+001
1.613070e+003,2.050856e+001
1.614034e+003,1.845079e+001
1.614998e+003,1.659276e+001
1.615963e+003,1.523128e+001
1.616927e+003,1.496097e+001
1.617891e+003,1.566956e+001
1.618855e+003,1.620468e+001
1.619820e+003,1.581192e+001
1.620784e+003,1.498277e+001
1.621748e+003,1.453065e+001
1.622712e+003,1.455719e+001
1.623677e+003,1.479396e+001
1.624641e+003,1.523349e+001
1.625605e+003,1.599796e+001
1.626569e+003,1.695714e+001
1.627533e+003,1.797681e+001
1.628498e+003,1.995099e+001
1.629462e+003,2.138277e+001
1.630426e+003,2.034543e+001
1.631390e+003,1.785030e+001
1.632354e+003,1.618217e+001
1.633319e+003,1.589395e+001
1.634283e+003,1.620607e+001
1.635247e+003,1.670949e+001
1.636211e+003,1.689172e+001
1.637176e+003,1.515005e+001
1.638140e+003,1.182597e+001
1.639104e+003,1.193425e+001
1.640068e+003,1.674986e+001
1.641033e+003,2.044901e+001
1.641997e+003,2.151808e+001
1.642961e+003,2.138809e+001
1.643925e+003,1.985570e+001
1.644890e+003,1.831529e+001
1.645854e+003,1.840250e+001
1.646818e+003,1.959415e+001
1.647782e+003,2.024702e+001
1.648747e+003,1.987244e+001
1.649711e+003,1.947754e+001
1.650675e+003,2.006769e+001
1.651639e+003,2.100124e+001
1.652604e+003,2.067857e+001
1.653568e+003,1.909825e+001
1.654532e+003,1.770644e+001
1.655496e+003,1.632060e+001
1.656460e+003,1.614639e+001
1.657425e+003,1.931735e+001
1.658389e+003,2.142171e+001
1.659353e+003,1.884744e+001
1.660317e+003,1.500485e+001
1.661281e+003,1.328101e+001
1.662246e+003,1.359651e+001
1.663210e+003,1.504346e+001
1.664174e+003,1.724532e+001
1.665138e+003,1.852911e+001
1.666103e+003,1.708261e+001
1.667067e+003,1.434038e+001
1.668031e+003,1.334140e+001
1.668995e+003,1.398759e+001
1.669960e+003,1.439944e+001
1.670924e+003,1.442128e+001
1.671888e+003,1.444202e+001
1.672852e+003,1.448207e+001
1.673817e+003,1.457982e+001
1.674781e+003,1.491063e+001
1.675745e+003,1.518207e+001
1.676709e+003,1.505476e+001
1.677674e+003,1.456996e+001
1.678638e+003,1.383572e+001
1.679602e+003,1.290016e+001
1.680566e+003,1.226144e+001
1.681531e+003,1.261522e+001
1.682495e+003,1.321001e+001
1.683459e+003,1.226724e+001
1.684423e+003,1.012065e+001
1.685387e+003,9.594513e+000
1.686352e+003,1.126692e+001
1.687316e+003,1.202153e+001
1.688280e+003,1.029210e+001
1.689244e+003,8.495422e+000
1.690208e+003,8.436584e+000
1.691173e+003,9.203384e+000
1.692137e+003,1.018791e+001
1.693101e+003,1.125313e+001
1.694065e+003,1.185555e+001
1.695030e+003,1.175810e+001
1.695994e+003,1.151283e+001
1.696958e+003,1.164740e+001
1.697922e+003,1.168460e+001
1.698887e+003,1.081680e+001
1.699851e+003,9.418747e+000
1.700815e+003,8.838379e+000
1.701779e+003,9.098114e+000
1.702744e+003,7.883453e+000
1.703708e+003,3.954956e+000
1.704672e+003,9.702606e-001
1.705636e+003,1.916351e+000
1.706601e+003,4.693405e+000
1.707565e+003,6.822144e+000
1.708529e+003,8.311142e+000
1.709493e+003,8.746399e+000
1.710458e+003,7.967834e+000
1.711422e+003,7.071396e+000
1.712386e+003,6.782822e+000
1.713350e+003,6.354630e+000
1.714314e+003,4.415802e+000
1.715279e+003,2.197189e+000
1.716243e+003,2.232681e+000
1.717207e+003,4.175537e+000
1.718171e+003,5.480469e+000
1.719135e+003,5.464111e+000
1.720100e+003,4.900696e+000
1.721064e+003,4.032883e+000
1.722028e+003,3.519638e+000
1.722992e+003,4.793472e+000
1.723957e+003,7.417252e+000
1.724921e+003,8.131104e+000
1.725885e+003,6.429504e+000
1.726849e+003,5.183670e+000
1.727814e+003,5.247070e+000
1.728778e+003,5.634842e+000
1.729742e+003,5.655853e+000
1.730706e+003,5.986099e+000
1.731671e+003,8.194580e+000
1.732635e+003,1.072565e+001
1.733599e+003,1.019766e+001
1.734563e+003,6.548523e+000
1.735528e+003,2.522873e+000
1.736492e+003,-4.705658e-001
1.737456e+003,-1.645096e+000
1.738420e+003,2.083130e-001
1.739385e+003,3.967300e+000
1.740349e+003,5.781693e+000
1.741313e+003,5.471497e+000
1.742277e+003,4.447235e+000
1.743241e+003,2.046844e+000
1.744206e+003,1.774750e-001
1.745170e+003,-1.296188e+000
1.746134e+003,-1.851379e+000
1.747098e+003,-3.542175e-001
1.748063e+003,1.566956e+000
1.749027e+003,1.834213e+000
1.749991e+003,8.821106e-001
1.750955e+003,6.073761e-001
1.751919e+003,1.532700e+000
1.752884e+003,2.356277e+000
1.753848e+003,1.996048e+000
1.754812e+003,9.440765e-001
1.755776e+003,2.220764e-001
1.756741e+003,-9.559631e-002
1.757705e+003,-2.356720e-001
1.758669e+003,-3.375702e-001
1.759633e+003,-7.077026e-002
1.760598e+003,6.983948e-001
1.761562e+003,1.562927e+000
1.762526e+003,2.500595e+000
1.763490e+003,3.547958e+000
1.764455e+003,5.357727e+000
1.765419e+003,7.012329e+000
1.766383e+003,6.603165e+000
1.767347e+003,4.378143e+000
1.768312e+003,2.835678e+000
1.769276e+003,3.134613e+000
1.770240e+003,3.922073e+000
1.771204e+003,4.055191e+000
1.772168e+003,3.708328e+000
1.773133e+003,2.588379e+000
1.774097e+003,9.248352e-001
1.775061e+003,1.683289e+000
1.776025e+003,5.622635e+000
1.776990e+003,7.555298e+000
1.777954e+003,5.112961e+000
1.778918e+003,2.038361e+000
1.779882e+003,4.816284e-001
1.780846e+003,7.157898e-002
1.781811e+003,7.205200e-001
1.782775e+003,2.109436e+000
1.783739e+003,3.228500e+000
1.784703e+003,4.004166e+000
1.785668e+003,4.105469e+000
1.786632e+003,2.664963e+000
1.787596e+003,1.259125e+000
1.788560e+003,1.242249e+000
1.789525e+003,2.053833e+000
1.790489e+003,3.234940e+000
1.791453e+003,4.320999e+000
1.792417e+003,3.851151e+000
1.793382e+003,1.797897e+000
1.794346e+003,1.025543e+000
1.795310e+003,3.171753e+000
1.796274e+003,5.414261e+000
1.797239e+003,4.455414e+000
1.798203e+003,1.453995e+000
1.799167e+003,-2.720032e-001
1.800131e+003,-7.467346e-001
1.801095e+003,-1.110229e+000
1.802060e+003,-1.186264e+000
1.803024e+003,-1.089691e+000
1.803988e+003,-7.442322e-001
1.804952e+003,-4.651947e-001
1.805917e+003,-7.867432e-001
1.806881e+003,-9.269867e-001
1.807845e+003,3.215027e-001
1.808809e+003,2.287964e+000
1.809773e+003,3.508896e+000
1.810738e+003,3.659317e+000
1.811702e+003,3.342422e+000
1.812666e+003,2.941818e+000
1.813630e+003,2.555740e+000
1.814595e+003,2.320648e+000
1.815559e+003,2.182846e+000
1.816523e+003,2.075089e+000
1.817487e+003,2.042770e+000
1.818452e+003,1.794861e+000
1.819416e+003,1.382507e+000
1.820380e+003,7.570648e-001
1.821344e+003,-9.400177e-001
1.822309e+003,-1.825500e+000
1.823273e+003,3.406372e-001
1.824237e+003,3.054947e+000
1.825201e+003,3.495285e+000
1.826166e+003,2.308838e+000
1.827130e+003,1.375061e+000
1.828094e+003,1.025940e+000
1.829058e+003,1.515671e+000
1.830022e+003,3.554840e+000
1.830987e+003,5.362167e+000
1.831951e+003,5.129990e+000
1.832915e+003,4.016556e+000
1.833879e+003,3.718445e+000
1.834844e+003,4.002701e+000
1.835808e+003,3.719406e+000
1.836772e+003,2.828613e+000
1.837736e+003,2.714645e+000
1.838700e+003,3.961624e+000
1.839665e+003,5.493820e+000
1.840629e+003,6.485413e+000
1.841593e+003,6.822174e+000
1.842557e+003,6.033539e+000
1.843522e+003,4.142563e+000
1.844486e+003,3.167923e+000
1.845450e+003,4.205139e+000
1.846414e+003,4.259903e+000
1.847379e+003,1.294983e+000
1.848343e+003,-1.304016e-001
1.849307e+003,3.103485e+000
1.850271e+003,6.557739e+000
1.851236e+003,7.043671e+000
1.852200e+003,5.807800e+000
1.853164e+003,4.606155e+000
1.854128e+003,3.633636e+000
1.855093e+003,2.148636e+000
1.856057e+003,1.244202e-001
1.857021e+003,-8.064270e-001
1.857985e+003,7.989044e-001
1.858949e+003,3.546692e+000
1.859914e+003,5.133713e+000
1.860878e+003,5.774155e+000
1.861842e+003,6.757004e+000
1.862806e+003,8.088013e+000
1.863771e+003,7.982788e+000
1.864735e+003,5.760483e+000
1.865699e+003,3.609543e+000
1.866663e+003,2.336121e+000
1.867627e+003,1.842255e+000
1.868592e+003,2.008881e+000
1.869556e+003,2.761520e+000
1.870520e+003,4.662811e+000
1.871484e+003,7.323807e+000
1.872449e+003,7.932556e+000
1.873413e+003,5.777359e+000
1.874377e+003,4.344727e+000
1.875341e+003,4.550797e+000
1.876306e+003,5.348297e+000
1.877270e+003,6.601028e+000
1.878234e+003,7.747238e+000
1.879198e+003,8.472870e+000
1.880163e+003,8.626007e+000
1.881127e+003,7.385529e+000
1.882091e+003,5.366287e+000
1.883055e+003,5.301971e+000
1.884020e+003,8.031799e+000
1.884984e+003,1.034506e+001
1.885948e+003,9.294449e+000
1.886912e+003,6.407822e+000
1.887876e+003,4.565277e+000
1.888841e+003,3.793671e+000
1.889805e+003,4.696136e+000
1.890769e+003,7.811569e+000
1.891733e+003,9.691864e+000
1.892698e+003,9.794479e+000
1.893662e+003,8.945206e+000
1.894626e+003,6.341080e+000
1.895590e+003,4.347229e+000
1.896554e+003,5.406326e+000
1.897519e+003,7.467178e+000
1.898483e+003,7.842773e+000
1.899447e+003,6.930969e+000
1.900411e+003,6.853241e+000
1.901376e+003,8.055145e+000
1.902340e+003,8.747040e+000
1.903304e+003,7.972412e+000
1.904268e+003,6.942444e+000
1.905233e+003,6.454315e+000
1.906197e+003,6.079330e+000
1.907161e+003,4.978134e+000
1.908125e+003,3.900650e+000
1.909090e+003,4.557007e+000
1.910054e+003,6.507782e+000
1.911018e+003,7.465103e+000
1.911982e+003,6.835098e+000
1.912947e+003,6.445084e+000
1.913911e+003,7.615311e+000
1.914875e+003,9.072922e+000
1.915839e+003,8.720581e+000
1.916803e+003,6.956192e+000
1.917768e+003,6.243729e+000
1.918732e+003,6.872787e+000
1.919696e+003,6.962738e+000
1.920660e+003,6.068680e+000
1.921625e+003,6.036774e+000
1.922589e+003,7.834793e+000
1.923553e+003,9.502274e+000
1.924517e+003,1.010847e+001
1.925481e+003,1.006265e+001
1.926446e+003,9.332489e+000
1.927410e+003,8.368011e+000
1.928374e+003,7.987762e+000
1.929338e+003,8.186081e+000
1.930303e+003,8.644562e+000
1.931267e+003,9.646042e+000
1.932231e+003,1.019644e+001
1.933195e+003,9.285309e+000
1.934160e+003,8.236664e+000
1.935124e+003,8.073837e+000
1.936088e+003,8.219070e+000
1.937052e+003,7.946274e+000
1.938017e+003,7.520325e+000
1.938981e+003,7.775955e+000
1.939945e+003,8.585617e+000
1.940909e+003,8.614166e+000
1.941874e+003,7.357407e+000
1.942838e+003,6.394577e+000
1.943802e+003,7.319321e+000
1.944766e+003,9.123184e+000
1.945730e+003,9.526672e+000
1.946695e+003,8.691498e+000
1.947659e+003,8.439163e+000
1.948623e+003,8.773071e+000
1.949587e+003,9.541336e+000
1.950552e+003,1.109546e+001
1.951516e+003,1.171260e+001
1.952480e+003,1.041142e+001
1.953444e+003,8.898209e+000
1.954408e+003,8.188385e+000
1.955373e+003,7.974274e+000
1.956337e+003,7.904526e+000
1.957301e+003,8.143356e+000
1.958265e+003,9.202942e+000
1.959230e+003,1.131386e+001
1.960194e+003,1.241975e+001
1.961158e+003,1.116740e+001
1.962122e+003,1.022772e+001
1.963087e+003,1.080615e+001
1.964051e+003,1.128075e+001
1.965015e+003,1.061652e+001
1.965979e+003,9.660019e+000
1.966944e+003,8.940903e+000
1.967908e+003,8.627075e+000
1.968872e+003,8.964127e+000
1.969836e+003,9.899719e+000
1.970801e+003,1.141299e+001
1.971765e+003,1.336295e+001
1.972729e+003,1.392871e+001
1.973693e+003,1.103456e+001
1.974657e+003,7.508743e+000
1.975622e+003,8.169388e+000
1.976586e+003,1.126540e+001
1.977550e+003,1.180061e+001
1.978514e+003,1.029311e+001
1.979479e+003,1.047379e+001
1.980443e+003,1.273752e+001
1.981407e+003,1.403067e+001
1.982371e+003,1.320284e+001
1.983335e+003,1.233359e+001
1.984300e+003,1.295929e+001
1.985264e+003,1.422690e+001
1.986228e+003,1.501486e+001
1.987192e+003,1.519482e+001
1.988157e+003,1.393250e+001
1.989121e+003,1.056502e+001
1.990085e+003,9.498611e+000
1.991049e+003,1.251521e+001
1.992014e+003,1.432835e+001
1.992978e+003,1.339696e+001
1.993942e+003,1.232965e+001
1.994906e+003,1.190703e+001
1.995871e+003,1.178014e+001
1.996835e+003,1.154085e+001
1.997799e+003,1.158363e+001
1.998763e+003,1.291100e+001
1.999728e+003,1.502370e+001
