5.003444e+002,3.270352e+001
5.013087e+002,3.249606e+001
5.022729e+002,3.383932e+001
5.032371e+002,3.601379e+001
5.042014e+002,3.616507e+001
5.051656e+002,3.457336e+001
5.061298e+002,3.190781e+001
5.070941e+002,2.851602e+001
5.080583e+002,2.382870e+001
5.090225e+002,2.145151e+001
5.099868e+002,2.135495e+001
5.109510e+002,2.265482e+001
5.119152e+002,2.577887e+001
5.128795e+002,3.093585e+001
5.138437e+002,3.437515e+001
5.148079e+002,3.411734e+001
5.157722e+002,3.267996e+001
5.167364e+002,3.032977e+001
5.177006e+002,2.747064e+001
5.186649e+002,2.487674e+001
5.196291e+002,2.410034e+001
5.205933e+002,2.409814e+001
5.215576e+002,2.336771e+001
5.225218e+002,2.167166e+001
5.234860e+002,1.946536e+001
5.244503e+002,1.769183e+001
5.254145e+002,1.663657e+001
5.263787e+002,1.665506e+001
5.273430e+002,1.831595e+001
5.283072e+002,2.066107e+001
5.292714e+002,2.237851e+001
5.302357e+002,2.317340e+001
5.311999e+002,2.324893e+001
5.321641e+002,2.295721e+001
5.331284e+002,2.231781e+001
5.340926e+002,2.097156e+001
5.350568e+002,1.861887e+001
5.360211e+002,1.648071e+001
5.369853e+002,1.640399e+001
5.379495e+002,1.697058e+001
5.389138e+002,1.680002e+001
5.398780e+002,1.541913e+001
5.408422e+002,1.357245e+001
5.418065e+002,1.376208e+001
5.427707e+002,1.561365e+001
5.437349e+002,1.620618e+001
5.446992e+002,1.422882e+001
5.456634e+002,1.077292e+001
5.466276e+002,9.796661e+000
5.475919e+002,1.499982e+001
5.485561e+002,1.836179e+001
5.495203e+002,1.881339e+001
5.504846e+002,1.739243e+001
5.514488e+002,1.552737e+001
5.524130e+002,1.344604e+001
5.533773e+002,1.177094e+001
5.543415e+002,1.059433e+001
5.553057e+002,9.952515e+000
5.562700e+002,1.001855e+001
5.572342e+002,1.086536e+001
5.581984e+002,1.200565e+001
5.591627e+002,1.207205e+001
5.601269e+002,1.167776e+001
5.610911e+002,1.230502e+001
5.620554e+002,1.481622e+001
5.630196e+002,1.867477e+001
5.639838e+002,1.946515e+001
5.649481e+002,1.464764e+001
5.659123e+002,1.051828e+001
5.668765e+002,8.423370e+000
5.678408e+002,7.963501e+000
5.688050e+002,7.771942e+000
5.697692e+002,7.421082e+000
5.707335e+002,7.004761e+000
5.716977e+002,6.810242e+000
5.726619e+002,6.621643e+000
5.736262e+002,6.066772e+000
5.745904e+002,4.832275e+000
5.755546e+002,3.563507e+000
5.765189e+002,2.921234e+000
5.774831e+002,2.731903e+000
5.784473e+002,3.116669e+000
5.794116e+002,4.217163e+000
5.803758e+002,6.002075e+000
5.813400e+002,6.516266e+000
5.823043e+002,5.084137e+000
5.832685e+002,3.921967e+000
5.842327e+002,4.363953e+000
5.851970e+002,6.155884e+000
5.861612e+002,6.921631e+000
5.871254e+002,4.409912e+000
5.880897e+002,2.759094e+000
5.890539e+002,2.789551e+000
5.900181e+002,4.108612e+000
5.909824e+002,6.326111e+000
5.919466e+002,1.001221e+001
5.929108e+002,1.271402e+001
5.938751e+002,1.160257e+001
5.948393e+002,8.246185e+000
5.958035e+002,4.896301e+000
5.967678e+002,3.227936e+000
5.977320e+002,3.128662e+000
5.986962e+002,3.520538e+000
5.996605e+002,4.279358e+000
6.006247e+002,4.646942e+000
6.015889e+002,4.086517e+000
6.025532e+002,2.702240e+000
6.035174e+002,1.758270e+000
6.044816e+002,1.778107e+000
6.054459e+002,1.773010e+000
6.064101e+002,1.911682e+000
6.073743e+002,1.864441e+000
6.083386e+002,8.625488e-001
6.093028e+002,-2.263550e+000
6.102670e+002,-4.645935e+000
6.112313e+002,-4.050873e+000
6.121955e+002,-1.669525e+000
6.131597e+002,1.230072e+000
6.141240e+002,3.732788e+000
6.150882e+002,5.654053e+000
6.160524e+002,5.875183e+000
6.170167e+002,4.784485e+000
6.179809e+002,4.119324e+000
6.189451e+002,4.869415e+000
6.199094e+002,6.636047e+000
6.208736e+002,6.924438e+000
6.218378e+002,3.536713e+000
6.228021e+002,1.506805e+000
6.237663e+002,2.411957e+000
6.247305e+002,4.698761e+000
6.256948e+002,5.571564e+000
6.266590e+002,3.076477e+000
6.276232e+002,7.276611e-001
6.285875e+002,1.163879e+000
6.295517e+002,2.816010e+000
6.305159e+002,3.999939e+000
6.314802e+002,3.758942e+000
6.324444e+002,2.664032e+000
6.334086e+002,2.516907e+000
6.343729e+002,3.125732e+000
6.353371e+002,3.817993e+000
6.363013e+002,4.421600e+000
6.372656e+002,4.724426e+000
6.382298e+002,4.067657e+000
6.391940e+002,9.858093e-001
6.401583e+002,-1.262360e+000
6.411225e+002,-2.276337e+000
6.420867e+002,-2.324371e+000
6.430510e+002,-1.566345e+000
6.440152e+002,2.676086e-001
6.449794e+002,1.284119e+000
6.459437e+002,-1.738281e-001
6.469079e+002,-2.175140e+000
6.478721e+002,-3.203278e+000
6.488364e+002,-2.700562e+000
6.498006e+002,-1.322388e+000
6.507648e+002,9.906006e-002
6.517291e+002,1.301880e+000
6.526933e+002,1.610291e+000
6.536575e+002,8.498230e-001
6.546218e+002,-5.457458e-001
6.555860e+002,-1.760681e+000
6.565502e+002,-2.814575e+000
6.575145e+002,-3.613708e+000
6.584787e+002,-4.250183e+000
6.594429e+002,-4.583679e+000
6.604072e+002,-4.415222e+000
6.613714e+002,-3.666229e+000
6.623356e+002,-2.852173e+000
6.632999e+002,-2.216705e+000
6.642641e+002,-1.779785e+000
6.652283e+002,-1.635162e+000
6.661926e+002,-1.590302e+000
6.671568e+002,-1.188568e+000
6.681210e+002,2.255249e-001
6.690853e+002,2.075287e+000
6.700495e+002,2.994690e+000
6.710137e+002,3.006958e+000
6.719780e+002,2.779724e+000
6.729422e+002,3.078003e+000
6.739064e+002,4.151123e+000
6.748707e+002,3.739441e+000
6.758349e+002,1.203613e+000
6.767991e+002,-1.639984e+000
6.777634e+002,-4.348175e+000
6.787276e+002,-6.674866e+000
6.796918e+002,-7.904938e+000
6.806561e+002,-7.874786e+000
6.816203e+002,-6.609772e+000
6.825845e+002,-2.802979e+000
6.835488e+002,1.953918e+000
6.845130e+002,5.369354e+000
6.854772e+002,5.792206e+000
6.864415e+002,3.885590e+000
6.874057e+002,4.830933e-002
6.883699e+002,-4.946808e+000
6.893342e+002,-8.485016e+000
6.902984e+002,-8.977997e+000
6.912626e+002,-6.805054e+000
6.922269e+002,-4.931091e+000
6.931911e+002,-3.492645e+000
6.941553e+002,-1.710175e+000
6.951196e+002,1.022034e+000
6.960838e+002,3.697144e+000
6.970480e+002,4.646027e+000
6.980123e+002,2.879761e+000
6.989765e+002,1.186737e+000
6.999407e+002,4.660645e-001
7.009050e+002,3.878174e-001
7.018692e+002,1.098053e+000
7.028334e+002,2.414459e+000
7.037977e+002,3.386536e+000
7.047619e+002,2.013916e+000
7.057261e+002,-4.635315e-001
7.066904e+002,-1.708984e+000
7.076546e+002,-1.354919e+000
7.086188e+002,-7.696533e-002
7.095831e+002,1.141296e+000
7.105473e+002,2.457336e+000
7.115115e+002,2.747803e+000
7.124758e+002,1.447540e+000
7.134400e+002,-1.760254e-001
7.144042e+002,-1.442566e+000
7.153685e+002,-2.243866e+000
7.163327e+002,-2.667267e+000
7.172969e+002,-2.190887e+000
7.182612e+002,-1.810455e+000
7.192254e+002,-2.539368e+000
7.201896e+002,-3.737244e+000
7.211539e+002,-3.869904e+000
7.221181e+002,-1.454102e+000
7.230823e+002,2.166962e+000
7.240466e+002,3.364960e+000
7.250108e+002,2.729126e+000
7.259750e+002,1.668732e+000
7.269393e+002,7.760010e-001
7.279035e+002,-7.583618e-002
7.288677e+002,-6.388245e-001
7.298320e+002,7.934570e-002
7.307962e+002,4.629211e-001
7.317604e+002,-2.549438e-001
7.327247e+002,-1.063599e+000
7.336889e+002,-3.153076e-001
7.346531e+002,2.880554e+000
7.356174e+002,4.958130e+000
7.365816e+002,3.323578e+000
7.375458e+002,9.749756e-001
7.385101e+002,4.064636e-001
7.394743e+002,2.061096e+000
7.404385e+002,4.134827e+000
7.414028e+002,3.529694e+000
7.423670e+002,7.323608e-001
7.433312e+002,2.514648e-002
7.442955e+002,2.148224e+000
7.452597e+002,4.559235e+000
7.462239e+002,3.935028e+000
7.471882e+002,-9.606018e-001
7.481524e+002,-3.820892e+000
7.491166e+002,-3.963287e+000
7.500809e+002,-3.704163e+000
7.510451e+002,-4.002380e+000
7.520093e+002,-4.626068e+000
7.529736e+002,-4.468414e+000
7.539378e+002,-2.380310e+000
7.549020e+002,8.093262e-002
7.558663e+002,2.322510e+000
7.568306e+002,4.081879e+000
7.577948e+002,4.769562e+000
7.587590e+002,4.056244e+000
7.597233e+002,2.503998e+000
7.606875e+002,2.273499e+000
7.616517e+002,3.289612e+000
7.626160e+002,3.928772e+000
7.635802e+002,3.553223e+000
7.645444e+002,2.894043e+000
7.655087e+002,3.697876e+000
7.664729e+002,7.531158e+000
7.674371e+002,9.115875e+000
7.684014e+002,6.398590e+000
7.693656e+002,3.323669e+000
7.703298e+002,2.978790e+000
7.712941e+002,5.447998e+000
7.722583e+002,7.112976e+000
7.732225e+002,3.890259e+000
7.741868e+002,1.753845e-001
7.751510e+002,-1.665649e-001
7.761152e+002,2.048859e+000
7.770795e+002,4.204102e+000
7.780437e+002,3.962646e+000
7.790079e+002,1.665741e+000
7.799722e+002,6.582336e-001
7.809364e+002,9.372253e-001
7.819006e+002,1.376862e+000
7.828649e+002,1.739594e+000
7.838291e+002,2.106049e+000
7.847933e+002,2.565002e+000
7.857576e+002,3.438904e+000
7.867218e+002,3.256042e+000
7.876860e+002,9.538574e-001
7.886503e+002,-1.477692e+000
7.896145e+002,-2.242188e+000
7.905787e+002,-9.446106e-001
7.915430e+002,8.720703e-001
7.925072e+002,1.461060e+000
7.934714e+002,1.456116e+000
7.944357e+002,1.539581e+000
7.953999e+002,1.957855e+000
7.963641e+002,2.970856e+000
7.973284e+002,4.876831e+000
7.982926e+002,7.779022e+000
7.992568e+002,9.418365e+000
8.002211e+002,9.807404e+000
8.011853e+002,8.793884e+000
8.021495e+002,5.340210e+000
8.031138e+002,7.026367e-001
8.040780e+002,-1.121094e+000
8.050422e+002,2.321533e+000
8.060065e+002,5.411865e+000
8.069707e+002,6.257538e+000
8.079349e+002,5.789825e+000
8.088992e+002,4.634918e+000
8.098634e+002,3.255890e+000
8.108276e+002,2.378662e+000
8.117919e+002,3.408752e+000
8.127561e+002,5.191406e+000
8.137203e+002,5.762512e+000
8.146846e+002,5.078918e+000
8.156488e+002,4.196808e+000
8.166130e+002,4.306213e+000
8.175773e+002,5.548065e+000
8.185415e+002,6.698914e+000
8.195057e+002,8.618256e+000
8.204700e+002,9.196350e+000
8.214342e+002,6.407043e+000
8.223984e+002,1.748077e+000
8.233627e+002,-6.958923e-001
8.243269e+002,1.399536e+000
8.252911e+002,4.235107e+000
8.262554e+002,6.037445e+000
8.272196e+002,6.952087e+000
8.281838e+002,6.551086e+000
8.291481e+002,5.011230e+000
8.301123e+002,3.732025e+000
8.310765e+002,5.640717e+000
8.320408e+002,1.025470e+001
8.330050e+002,1.207776e+001
8.339692e+002,1.033173e+001
8.349335e+002,7.443970e+000
8.358977e+002,5.682343e+000
8.368619e+002,5.165955e+000
8.378262e+002,5.549988e+000
8.387904e+002,8.119415e+000
8.397546e+002,9.818481e+000
8.407189e+002,9.343384e+000
8.416831e+002,7.644348e+000
8.426473e+002,6.411743e+000
8.436116e+002,6.438934e+000
8.445758e+002,7.003052e+000
8.455400e+002,7.423706e+000
8.465043e+002,7.528198e+000
8.474685e+002,7.146515e+000
8.484327e+002,6.433960e+000
8.493970e+002,5.892914e+000
8.503612e+002,6.200256e+000
8.513254e+002,7.483154e+000
8.522897e+002,8.184723e+000
8.532539e+002,7.740448e+000
8.542181e+002,7.315460e+000
8.551824e+002,7.881836e+000
8.561466e+002,9.458832e+000
8.571108e+002,1.092722e+001
8.580751e+002,1.140372e+001
8.590393e+002,1.184686e+001
8.600035e+002,1.308475e+001
8.609678e+002,1.446402e+001
8.619320e+002,1.512152e+001
8.628962e+002,1.472159e+001
8.638605e+002,1.384955e+001
8.648247e+002,1.316281e+001
8.657889e+002,1.275546e+001
8.667532e+002,1.301419e+001
8.677174e+002,1.398846e+001
8.686816e+002,1.529449e+001
8.696459e+002,1.667200e+001
8.706101e+002,1.835785e+001
8.715743e+002,1.881622e+001
8.725386e+002,1.672256e+001
8.735028e+002,1.523538e+001
8.744670e+002,1.512418e+001
8.754313e+002,1.593301e+001
8.763955e+002,1.693817e+001
8.773597e+002,1.805478e+001
8.783240e+002,1.917587e+001
8.792882e+002,2.043085e+001
8.802524e+002,2.140381e+001
8.812167e+002,2.155374e+001
8.821809e+002,2.091751e+001
8.831451e+002,2.003763e+001
8.841094e+002,1.960052e+001
8.850736e+002,1.977942e+001
8.860378e+002,2.109833e+001
8.870021e+002,2.401517e+001
8.879663e+002,2.609436e+001
8.889305e+002,2.507147e+001
8.898948e+002,2.173532e+001
8.908590e+002,2.059122e+001
8.918232e+002,2.399799e+001
8.927875e+002,2.647308e+001
8.937517e+002,2.637320e+001
8.947159e+002,2.536481e+001
8.956802e+002,2.456848e+001
8.966444e+002,2.425662e+001
8.976086e+002,2.424152e+001
8.985729e+002,2.479355e+001
8.995371e+002,2.543045e+001
9.005013e+002,2.474490e+001
9.014656e+002,2.315186e+001
9.024298e+002,2.249783e+001
9.033940e+002,2.422562e+001
9.043583e+002,2.778989e+001
9.053225e+002,2.977151e+001
9.062867e+002,2.850211e+001
9.072510e+002,2.744766e+001
9.082152e+002,2.686542e+001
9.091794e+002,2.674850e+001
9.101437e+002,2.714105e+001
9.111079e+002,2.804034e+001
9.120721e+002,2.898685e+001
9.130364e+002,2.988110e+001
9.140006e+002,3.028766e+001
9.149648e+002,2.971021e+001
9.159291e+002,2.866641e+001
9.168933e+002,2.805673e+001
9.178575e+002,2.843408e+001
9.188218e+002,2.939481e+001
9.197860e+002,2.987305e+001
9.207502e+002,2.981989e+001
9.217145e+002,2.926895e+001
9.226787e+002,2.812558e+001
9.236429e+002,2.693542e+001
9.246072e+002,2.614282e+001
9.255714e+002,2.551822e+001
9.265356e+002,2.592026e+001
9.274999e+002,2.901834e+001
9.284641e+002,3.135403e+001
9.294283e+002,3.183984e+001
9.303926e+002,3.078958e+001
9.313568e+002,2.858109e+001
9.323210e+002,2.527887e+001
9.332853e+002,2.211890e+001
9.342495e+002,2.152283e+001
9.352137e+002,2.231836e+001
9.361780e+002,2.324387e+001
9.371422e+002,2.410495e+001
9.381064e+002,2.479974e+001
9.390707e+002,2.499448e+001
9.400349e+002,2.441635e+001
9.409991e+002,2.408997e+001
9.419634e+002,2.456516e+001
9.429276e+002,2.448813e+001
9.438918e+002,2.288232e+001
9.448561e+002,2.076114e+001
9.458203e+002,1.998636e+001
9.467845e+002,2.134470e+001
9.477488e+002,2.290579e+001
9.487130e+002,2.377408e+001
9.496772e+002,2.378693e+001
9.506415e+002,2.204593e+001
9.516057e+002,1.905099e+001
9.525699e+002,1.659341e+001
9.535342e+002,1.642068e+001
9.544984e+002,1.812320e+001
9.554626e+002,1.848044e+001
9.564269e+002,1.717261e+001
9.573911e+002,1.711594e+001
9.583553e+002,2.020197e+001
9.593196e+002,2.440543e+001
9.602838e+002,2.637875e+001
9.612480e+002,2.558472e+001
9.622123e+002,2.400867e+001
9.631765e+002,2.071881e+001
9.641407e+002,1.837921e+001
9.651050e+002,1.900903e+001
9.660692e+002,2.142239e+001
9.670334e+002,2.301895e+001
9.679977e+002,2.224463e+001
9.689619e+002,2.057678e+001
9.699261e+002,2.113245e+001
9.708904e+002,2.305655e+001
9.718546e+002,2.432852e+001
9.728188e+002,2.439401e+001
9.737831e+002,2.388794e+001
9.747473e+002,2.369754e+001
9.757115e+002,2.395316e+001
9.766758e+002,2.410458e+001
9.776400e+002,2.325562e+001
9.786042e+002,2.364783e+001
9.795685e+002,2.735486e+001
9.805327e+002,3.174548e+001
9.814969e+002,3.336487e+001
9.824612e+002,3.115131e+001
9.834254e+002,2.735989e+001
9.843896e+002,2.219345e+001
9.853539e+002,1.761542e+001
9.863181e+002,1.662894e+001
9.872823e+002,1.867625e+001
9.882466e+002,2.070038e+001
9.892108e+002,2.022263e+001
9.901750e+002,1.794867e+001
9.911393e+002,1.757341e+001
9.921035e+002,2.012430e+001
9.930677e+002,2.217996e+001
9.940320e+002,2.362531e+001
9.949962e+002,2.482771e+001
9.959604e+002,2.597568e+001
9.969247e+002,2.713950e+001
9.978889e+002,2.863992e+001
9.988531e+002,3.085191e+001
9.998174e+002,3.266679e+001
1.000782e+003,3.351187e+001
1.001746e+003,3.378448e+001
1.002710e+003,3.400182e+001
1.003674e+003,3.437041e+001
1.004639e+003,3.467365e+001
1.005603e+003,3.450433e+001
1.006567e+003,3.375032e+001
1.007531e+003,3.338930e+001
1.008495e+003,3.343555e+001
1.009460e+003,3.384842e+001
1.010424e+003,3.488837e+001
1.011388e+003,3.638072e+001
1.012352e+003,3.752448e+001
1.013317e+003,3.838181e+001
1.014281e+003,3.826410e+001
1.015245e+003,3.677925e+001
1.016209e+003,3.454648e+001
1.017174e+003,3.192410e+001
1.018138e+003,2.906711e+001
1.019102e+003,2.588441e+001
1.020066e+003,2.222701e+001
1.021031e+003,1.866718e+001
1.021995e+003,1.678900e+001
1.022959e+003,1.611757e+001
1.023923e+003,1.553490e+001
1.024887e+003,1.482751e+001
1.025852e+003,1.371991e+001
1.026816e+003,1.153088e+001
1.027780e+003,7.869125e+000
1.028744e+003,5.569489e+000
1.029709e+003,5.451935e+000
1.030673e+003,5.918091e+000
1.031637e+003,7.090591e+000
1.032601e+003,8.245041e+000
1.033566e+003,8.164368e+000
1.034530e+003,6.536316e+000
1.035494e+003,5.344406e+000
1.036458e+003,7.586288e+000
1.037422e+003,1.104855e+001
1.038387e+003,1.189029e+001
1.039351e+003,1.013052e+001
1.040315e+003,7.739639e+000
1.041279e+003,6.088593e+000
1.042244e+003,5.268372e+000
1.043208e+003,5.558716e+000
1.044172e+003,8.062637e+000
1.045136e+003,9.466797e+000
1.046101e+003,9.188293e+000
1.047065e+003,8.531525e+000
1.048029e+003,8.199295e+000
1.048993e+003,8.162369e+000
1.049958e+003,8.173157e+000
1.050922e+003,8.314117e+000
1.051886e+003,8.199387e+000
1.052850e+003,7.222519e+000
1.053814e+003,5.834839e+000
1.054779e+003,4.391205e+000
1.055743e+003,3.056015e+000
1.056707e+003,2.165695e+000
1.057671e+003,2.126175e+000
1.058636e+003,2.914246e+000
1.059600e+003,4.351440e+000
1.060564e+003,8.204758e+000
1.061528e+003,1.050803e+001
1.062493e+003,9.898987e+000
1.063457e+003,7.746582e+000
1.064421e+003,4.942673e+000
1.065385e+003,1.753967e+000
1.066349e+003,4.245911e-001
1.067314e+003,3.704803e+000
1.068278e+003,7.340988e+000
1.069242e+003,8.136215e+000
1.070206e+003,7.357178e+000
1.071171e+003,7.229248e+000
1.072135e+003,8.532394e+000
1.073099e+003,9.894882e+000
1.074063e+003,9.040375e+000
1.075028e+003,5.726288e+000
1.075992e+003,3.915634e+000
1.076956e+003,3.706253e+000
1.077920e+003,4.213715e+000
1.078885e+003,5.917206e+000
1.079849e+003,8.044556e+000
1.080813e+003,8.925797e+000
1.081777e+003,8.123047e+000
1.082741e+003,7.416626e+000
1.083706e+003,7.997192e+000
1.084670e+003,8.349991e+000
1.085634e+003,7.200226e+000
1.086598e+003,5.243378e+000
1.087563e+003,4.013367e+000
1.088527e+003,4.392227e+000
1.089491e+003,5.721573e+000
1.090455e+003,6.512054e+000
1.091420e+003,6.572693e+000
1.092384e+003,6.847031e+000
1.093348e+003,7.283432e+000
1.094312e+003,7.801849e+000
1.095276e+003,8.963654e+000
1.096241e+003,1.033087e+001
1.097205e+003,9.941147e+000
1.098169e+003,6.493683e+000
1.099133e+003,4.092957e+000
1.100098e+003,5.802856e+000
1.101062e+003,7.687698e+000
1.102026e+003,6.581482e+000
1.102990e+003,3.623627e+000
1.103955e+003,2.199234e+000
1.104919e+003,4.299927e+000
1.105883e+003,7.938034e+000
1.106847e+003,8.781128e+000
1.107812e+003,6.749237e+000
1.108776e+003,6.037033e+000
1.109740e+003,7.351120e+000
1.110704e+003,8.889221e+000
1.111668e+003,9.211090e+000
1.112633e+003,8.806503e+000
1.113597e+003,9.621323e+000
1.114561e+003,1.257288e+001
1.115525e+003,1.468738e+001
1.116490e+003,1.499332e+001
1.117454e+003,1.434380e+001
1.118418e+003,1.284351e+001
1.119382e+003,1.105911e+001
1.120347e+003,9.737122e+000
1.121311e+003,9.219437e+000
1.122275e+003,9.245758e+000
1.123239e+003,9.885864e+000
1.124203e+003,1.121844e+001
1.125168e+003,1.181279e+001
1.126132e+003,1.113042e+001
1.127096e+003,1.096402e+001
1.128060e+003,1.303442e+001
1.129025e+003,1.674712e+001
1.129989e+003,1.948586e+001
1.130953e+003,2.082849e+001
1.131917e+003,2.155365e+001
1.132882e+003,2.174901e+001
1.133846e+003,2.176054e+001
1.134810e+003,2.146484e+001
1.135774e+003,2.122412e+001
1.136739e+003,2.181418e+001
1.137703e+003,2.363747e+001
1.138667e+003,2.588098e+001
1.139631e+003,2.699429e+001
1.140595e+003,2.717270e+001
1.141560e+003,2.840892e+001
1.142524e+003,3.098230e+001
1.143488e+003,3.435394e+001
1.144452e+003,3.805087e+001
1.145417e+003,4.219948e+001
1.146381e+003,4.734737e+001
1.147345e+003,5.375488e+001
1.148309e+003,6.039587e+001
1.149274e+003,6.675206e+001
1.150238e+003,7.365953e+001
1.151202e+003,8.199109e+001
1.152166e+003,9.126172e+001
1.153130e+003,1.006287e+002
1.154095e+003,1.095046e+002
1.155059e+003,1.175227e+002
1.156023e+003,1.247682e+002
1.156987e+003,1.307412e+002
1.157952e+003,1.328717e+002
1.158916e+003,1.311043e+002
1.159880e+003,1.277568e+002
1.160844e+003,1.236807e+002
1.161809e+003,1.184101e+002
1.162773e+003,1.111097e+002
1.163737e+003,1.013249e+002
1.164701e+003,9.163861e+001
1.165666e+003,8.196870e+001
1.166630e+003,7.354842e+001
1.167594e+003,6.712744e+001
1.168558e+003,6.207944e+001
1.169522e+003,5.753694e+001
1.170487e+003,5.325877e+001
1.171451e+003,4.989563e+001
1.172415e+003,4.824615e+001
1.173379e+003,4.795102e+001
1.174344e+003,4.708571e+001
1.175308e+003,4.557114e+001
1.176272e+003,4.504840e+001
1.177236e+003,4.750861e+001
1.178201e+003,5.020183e+001
1.179165e+003,4.899341e+001
1.180129e+003,4.371994e+001
1.181093e+003,3.920609e+001
1.182057e+003,3.687935e+001
1.183022e+003,3.494380e+001
1.183986e+003,3.178439e+001
1.184950e+003,2.928198e+001
1.185914e+003,3.007552e+001
1.186879e+003,3.368855e+001
1.187843e+003,3.685748e+001
1.188807e+003,3.685291e+001
1.189771e+003,3.490767e+001
1.190736e+003,3.512239e+001
1.191700e+003,3.784235e+001
1.192664e+003,3.882373e+001
1.193628e+003,3.699765e+001
1.194593e+003,3.448146e+001
1.195557e+003,3.230750e+001
1.196521e+003,3.058093e+001
1.197485e+003,2.997733e+001
1.198449e+003,3.111076e+001
1.199414e+003,3.182928e+001
1.200378e+003,3.120023e+001
1.201342e+003,2.983441e+001
1.202306e+003,2.770262e+001
1.203271e+003,2.508690e+001
1.204235e+003,2.216934e+001
1.205199e+003,1.921207e+001
1.206163e+003,1.709978e+001
1.207128e+003,1.749852e+001
1.208092e+003,2.063135e+001
1.209056e+003,2.111609e+001
1.210020e+003,1.771407e+001
1.210984e+003,1.468379e+001
1.211949e+003,1.357394e+001
1.212913e+003,1.320389e+001
1.213877e+003,1.229410e+001
1.214841e+003,1.076125e+001
1.215806e+003,8.504242e+000
1.216770e+003,4.716248e+000
1.217734e+003,1.349747e+000
1.218698e+003,-6.502075e-001
1.219663e+003,-1.477951e+000
1.220627e+003,-6.688538e-001
1.221591e+003,1.324615e+000
1.222555e+003,2.561432e+000
1.223520e+003,1.219086e+000
1.224484e+003,-1.997971e+000
1.225448e+003,-3.967697e+000
1.226412e+003,-4.027298e+000
1.227376e+003,-4.267853e+000
1.228341e+003,-5.662888e+000
1.229305e+003,-6.245911e+000
1.230269e+003,-3.759323e+000
1.231233e+003,-4.530334e-002
1.232198e+003,7.845612e-001
1.233162e+003,-2.415512e+000
1.234126e+003,-5.542892e+000
1.235090e+003,-5.379440e+000
1.236055e+003,-4.141022e+000
1.237019e+003,-4.070450e+000
1.237983e+003,-4.994263e+000
1.238947e+003,-6.368881e+000
1.239911e+003,-7.883118e+000
1.240876e+003,-8.779785e+000
1.241840e+003,-7.718506e+000
1.242804e+003,-4.475647e+000
1.243768e+003,-3.237457e+000
1.244733e+003,-6.487869e+000
1.245697e+003,-8.494492e+000
1.246661e+003,-8.118011e+000
1.247625e+003,-7.248413e+000
1.248590e+003,-7.552109e+000
1.249554e+003,-8.485596e+000
1.250518e+003,-7.952072e+000
1.251482e+003,-4.937302e+000
1.252447e+003,-1.739349e+000
1.253411e+003,-1.268478e+000
1.254375e+003,-2.338547e+000
1.255339e+003,-2.490097e+000
1.256303e+003,-1.586929e+000
1.257268e+003,-7.156372e-001
1.258232e+003,-8.891144e-001
1.259196e+003,-1.217850e+000
1.260160e+003,9.003601e-001
1.261125e+003,6.348587e+000
1.262089e+003,9.362244e+000
1.263053e+003,6.659973e+000
1.264017e+003,4.503876e+000
1.264982e+003,4.833542e+000
1.265946e+003,6.100998e+000
1.266910e+003,6.944901e+000
1.267874e+003,7.165634e+000
1.268839e+003,7.223434e+000
1.269803e+003,7.425461e+000
1.270767e+003,7.681274e+000
1.271731e+003,7.881348e+000
1.272695e+003,8.053772e+000
1.273660e+003,7.948349e+000
1.274624e+003,7.546082e+000
1.275588e+003,6.344589e+000
1.276552e+003,3.594208e+000
1.277517e+003,2.913361e-001
1.278481e+003,-1.822098e+000
1.279445e+003,-2.635406e+000
1.280409e+003,-3.131714e+000
1.281374e+003,-3.341263e+000
1.282338e+003,-3.610199e+000
1.283302e+003,-4.457718e+000
1.284266e+003,-5.285217e+000
1.285230e+003,-5.324936e+000
1.286195e+003,-4.575195e+000
1.287159e+003,-3.469040e+000
1.288123e+003,-2.305145e+000
1.289087e+003,-1.422165e+000
1.290052e+003,-2.210114e+000
1.291016e+003,-5.781219e+000
1.291980e+003,-7.240112e+000
1.292944e+003,-4.457031e+000
1.293909e+003,-2.717514e+000
1.294873e+003,-5.201370e+000
1.295837e+003,-9.054810e+000
1.296801e+003,-1.002782e+001
1.297766e+003,-7.739395e+000
1.298730e+003,-5.642242e+000
1.299694e+003,-5.678955e+000
1.300658e+003,-6.504791e+000
1.301622e+003,-7.111084e+000
1.302587e+003,-7.164505e+000
1.303551e+003,-5.554169e+000
1.304515e+003,-2.298157e+000
1.305479e+003,1.888885e-001
1.306444e+003,-3.545685e-001
1.307408e+003,-2.843094e+000
1.308372e+003,-3.201523e+000
1.309336e+003,-2.963104e-001
1.310301e+003,1.193436e+000
1.311265e+003,5.088043e-001
1.312229e+003,-7.883453e-001
1.313193e+003,-3.226532e+000
1.314157e+003,-5.473953e+000
1.315122e+003,-6.150558e+000
1.316086e+003,-5.219162e+000
1.317050e+003,-3.245224e+000
1.318014e+003,-3.916168e-001
1.318979e+003,2.028015e+000
1.319943e+003,1.085037e+000
1.320907e+003,-2.725403e+000
1.321871e+003,-4.999039e+000
1.322836e+003,-5.380112e+000
1.323800e+003,-5.505875e+000
1.324764e+003,-7.053421e+000
1.325728e+003,-8.426193e+000
1.326693e+003,-5.840759e+000
1.327657e+003,8.345490e-001
1.328621e+003,4.032303e+000
1.329585e+003,-3.642578e-001
1.330549e+003,-4.244629e+000
1.331514e+003,-2.780472e+000
1.332478e+003,8.625793e-002
1.333442e+003,6.717987e-001
1.334406e+003,-9.060364e-001
1.335371e+003,-2.326462e+000
1.336335e+003,-2.211014e+000
1.337299e+003,-1.780914e+000
1.338263e+003,-3.585724e+000
1.339228e+003,-8.150772e+000
1.340192e+003,-9.906982e+000
1.341156e+003,-7.096527e+000
1.342120e+003,-4.304001e+000
1.343084e+003,-1.373901e+000
1.344049e+003,3.942566e-001
1.345013e+003,-8.368683e-001
1.345977e+003,-3.961166e+000
1.346941e+003,-5.765106e+000
1.347906e+003,-5.071213e+000
1.348870e+003,-3.583572e+000
1.349834e+003,-2.581375e+000
1.350798e+003,-2.151047e+000
1.351763e+003,-2.682938e+000
1.352727e+003,-3.831970e+000
1.353691e+003,-3.515747e+000
1.354655e+003,-5.112152e-001
1.355620e+003,2.603806e+000
1.356584e+003,2.465912e+000
1.357548e+003,-4.767303e-001
1.358512e+003,-2.531387e+000
1.359476e+003,-3.467377e+000
1.360441e+003,-4.240265e+000
1.361405e+003,-5.451416e+000
1.362369e+003,-6.049698e+000
1.363333e+003,-4.601227e+000
1.364298e+003,-2.634995e+000
1.365262e+003,-2.672546e+000
1.366226e+003,-4.948349e+000
1.367190e+003,-7.065857e+000
1.368155e+003,-6.866867e+000
1.369119e+003,-5.236542e+000
1.370083e+003,-5.003937e+000
1.371047e+003,-6.732315e+000
1.372011e+003,-7.107162e+000
1.372976e+003,-4.749069e+000
1.373940e+003,-3.178101e+000
1.374904e+003,-4.426514e+000
1.375868e+003,-6.579834e+000
1.376833e+003,-7.426971e+000
1.377797e+003,-6.796402e+000
1.378761e+003,-5.111313e+000
1.379725e+003,-2.019653e+000
1.380690e+003,4.807281e-001
1.381654e+003,-7.304535e-001
1.382618e+003,-3.256943e+000
1.383582e+003,-3.631714e+000
1.384547e+003,-1.913162e+000
1.385511e+003,-2.602692e-001
1.386475e+003,2.618561e-001
1.387439e+003,-3.372192e-002
1.388403e+003,-9.229584e-001
1.389368e+003,-2.413651e+000
1.390332e+003,-3.066101e+000
1.391296e+003,-2.256546e+000
1.392260e+003,-1.618988e+000
1.393225e+003,-1.759598e+000
1.394189e+003,-1.958374e+000
1.395153e+003,-1.711761e+000
1.396117e+003,-1.285553e+000
1.397082e+003,-1.185806e+000
1.398046e+003,-1.465378e+000
1.399010e+003,-1.644119e+000
1.399974e+003,-1.338333e+000
1.400938e+003,-9.494934e-001
1.401903e+003,-1.413208e+000
1.402867e+003,-2.771042e+000
1.403831e+003,-3.270233e+000
1.404795e+003,-2.632431e+000
1.405760e+003,-1.868027e+000
1.406724e+003,-1.489685e+000
1.407688e+003,-1.448456e+000
1.408652e+003,-1.651062e+000
1.409617e+003,-1.821106e+000
1.410581e+003,-1.165146e+000
1.411545e+003,8.343506e-001
1.412509e+003,2.583038e+000
1.413474e+003,2.061325e+000
1.414438e+003,3.688202e-001
1.415402e+003,-4.162750e-001
1.416366e+003,-2.664185e-001
1.417330e+003,-3.051758e-003
1.418295e+003,6.068420e-002
1.419259e+003,1.338959e-001
1.420223e+003,4.456329e-001
1.421187e+003,8.695679e-001
1.422152e+003,9.983978e-001
1.423116e+003,7.200623e-001
1.424080e+003,9.634247e-001
1.425044e+003,2.937637e+000
1.426009e+003,4.175369e+000
1.426973e+003,2.806808e+000
1.427937e+003,6.207886e-001
1.428901e+003,-1.297760e-001
1.429865e+003,7.241058e-001
1.430830e+003,1.919968e+000
1.431794e+003,2.545990e+000
1.432758e+003,2.590958e+000
1.433722e+003,2.096268e+000
1.434687e+003,1.102249e+000
1.435651e+003,1.400452e+000
1.436615e+003,4.180573e+000
1.437579e+003,5.635666e+000
1.438544e+003,4.210709e+000
1.439508e+003,2.725418e+000
1.440472e+003,3.302979e+000
1.441436e+003,5.274780e+000
1.442401e+003,7.279449e+000
1.443365e+003,8.823364e+000
1.444329e+003,9.477219e+000
1.445293e+003,8.787903e+000
1.446257e+003,7.560181e+000
1.447222e+003,7.301193e+000
1.448186e+003,7.800903e+000
1.449150e+003,8.125366e+000
1.450114e+003,8.262558e+000
1.451079e+003,7.793350e+000
1.452043e+003,5.878311e+000
1.453007e+003,3.839859e+000
1.453971e+003,3.880280e+000
1.454936e+003,5.587219e+000
1.455900e+003,5.809479e+000
1.456864e+003,3.342133e+000
1.457828e+003,1.557877e+000
1.458792e+003,3.441223e+000
1.459757e+003,5.708084e+000
1.460721e+003,5.132172e+000
1.461685e+003,3.021194e+000
1.462649e+003,2.512482e+000
1.463614e+003,4.333649e+000
1.464578e+003,6.211945e+000
1.465542e+003,6.066589e+000
1.466506e+003,4.488953e+000
1.467471e+003,3.193832e+000
1.468435e+003,2.176132e+000
1.469399e+003,2.179214e+000
1.470363e+003,4.030228e+000
1.471328e+003,5.505630e+000
1.472292e+003,5.436417e+000
1.473256e+003,5.236206e+000
1.474220e+003,6.733444e+000
1.475184e+003,8.933472e+000
1.476149e+003,9.353485e+000
1.477113e+003,7.360031e+000
1.478077e+003,4.966431e+000
1.479041e+003,4.222733e+000
1.480006e+003,4.762329e+000
1.480970e+003,5.134583e+000
1.481934e+003,5.043762e+000
1.482898e+003,5.533630e+000
1.483863e+003,7.909409e+000
1.484827e+003,8.917862e+000
1.485791e+003,6.576752e+000
1.486755e+003,3.694016e+000
1.487719e+003,2.136230e+000
1.488684e+003,2.218140e+000
1.489648e+003,4.660416e+000
1.490612e+003,9.638199e+000
1.491576e+003,1.454790e+001
1.492541e+003,1.727098e+001
1.493505e+003,1.844525e+001
1.494469e+003,1.920753e+001
1.495433e+003,1.949632e+001
1.496398e+003,1.964122e+001
1.497362e+003,1.964333e+001
1.498326e+003,2.030211e+001
1.499290e+003,2.238869e+001
1.500255e+003,2.506674e+001
1.501219e+003,2.692914e+001
1.502183e+003,2.818799e+001
1.503147e+003,3.051787e+001
1.504111e+003,3.442245e+001
1.505076e+003,3.868536e+001
1.506040e+003,4.267380e+001
1.507004e+003,4.671080e+001
1.507968e+003,5.069997e+001
1.508933e+003,5.508640e+001
1.509897e+003,6.082422e+001
1.510861e+003,6.826506e+001
1.511825e+003,7.702611e+001
1.512790e+003,8.698535e+001
1.513754e+003,9.743170e+001
1.514718e+003,1.067861e+002
1.515682e+003,1.149325e+002
1.516646e+003,1.254619e+002
1.517611e+003,1.407403e+002
1.518575e+003,1.537007e+002
1.519539e+003,1.606917e+002
1.520503e+003,1.665855e+002
1.521468e+003,1.749125e+002
1.522432e+003,1.830851e+002
1.523396e+003,1.872901e+002
1.524360e+003,1.871660e+002
1.525325e+003,1.851242e+002
1.526289e+003,1.827968e+002
1.527253e+003,1.794654e+002
1.528217e+003,1.736280e+002
1.529182e+003,1.653687e+002
1.530146e+003,1.571240e+002
1.531110e+003,1.492872e+002
1.532074e+003,1.404171e+002
1.533039e+003,1.303036e+002
1.534003e+003,1.187722e+002
1.534967e+003,1.053203e+002
1.535931e+003,9.128374e+001
1.536896e+003,7.743097e+001
1.537860e+003,6.443655e+001
1.538824e+003,5.316803e+001
1.539788e+003,4.399312e+001
1.540752e+003,3.650861e+001
1.541717e+003,3.026779e+001
1.542681e+003,2.531021e+001
1.543645e+003,2.124765e+001
1.544609e+003,1.834566e+001
1.545573e+003,1.616478e+001
1.546538e+003,1.407979e+001
1.547502e+003,1.313605e+001
1.548466e+003,1.493211e+001
1.549430e+003,1.738017e+001
1.550395e+003,1.842708e+001
1.551359e+003,1.802753e+001
1.552323e+003,1.685551e+001
1.553287e+003,1.522005e+001
1.554252e+003,1.331961e+001
1.555216e+003,1.120682e+001
1.556180e+003,9.242279e+000
1.557144e+003,8.522980e+000
1.558109e+003,9.146484e+000
1.559073e+003,8.718430e+000
1.560037e+003,6.338715e+000
1.561001e+003,4.317978e+000
1.561966e+003,3.861649e+000
1.562930e+003,3.985626e+000
1.563894e+003,3.391022e+000
1.564858e+003,2.579453e+000
1.565823e+003,3.250031e+000
1.566787e+003,5.602249e+000
1.567751e+003,7.598953e+000
1.568715e+003,8.121460e+000
1.569679e+003,7.919632e+000
1.570644e+003,7.816696e+000
1.571608e+003,7.596878e+000
1.572572e+003,6.472763e+000
1.573536e+003,4.450134e+000
1.574500e+003,4.210999e+000
1.575465e+003,7.675415e+000
1.576429e+003,1.142403e+001
1.577393e+003,1.251791e+001
1.578357e+003,1.195392e+001
1.579322e+003,1.172757e+001
1.580286e+003,1.199121e+001
1.581250e+003,1.212527e+001
1.582214e+003,1.201942e+001
1.583179e+003,1.136424e+001
1.584143e+003,9.032974e+000
1.585107e+003,6.732025e+000
1.586071e+003,7.347519e+000
1.587036e+003,1.005542e+001
1.588000e+003,1.188763e+001
1.588964e+003,1.211243e+001
1.589928e+003,1.165215e+001
1.590893e+003,1.049881e+001
1.591857e+003,9.636551e+000
1.592821e+003,1.145038e+001
1.593785e+003,1.517662e+001
1.594750e+003,1.561589e+001
1.595714e+003,1.136647e+001
1.596678e+003,8.553665e+000
1.597642e+003,1.032634e+001
1.598606e+003,1.329039e+001
1.599571e+003,1.503763e+001
1.600535e+003,1.617209e+001
1.601499e+003,1.766008e+001
1.602463e+003,1.929582e+001
1.603427e+003,1.971565e+001
1.604392e+003,1.827058e+001
1.605356e+003,1.635860e+001
1.606320e+003,1.526256e+001
1.607284e+003,1.484558e+001
1.608249e+003,1.483188e+001
1.609213e+003,1.524641e+001
1.610177e+003,1.522789e+001
1.611141e+003,1.437927e+001
1.612106e+003,1.374153e+001
1.613070e+003,1.415031e+001
1.614034e+003,1.462160e+001
1.614998e+003,1.427980e+001
1.615963e+003,1.358621e+001
1.616927e+003,1.331775e+001
1.617891e+003,1.356477e+001
1.618855e+003,1.402135e+001
1.619820e+003,1.451608e+001
1.620784e+003,1.471388e+001
1.621748e+003,1.408907e+001
1.622712e+003,1.302275e+001
1.623677e+003,1.309471e+001
1.624641e+003,1.466014e+001
1.625605e+003,1.532675e+001
1.626569e+003,1.343135e+001
1.627533e+003,1.189764e+001
1.628498e+003,1.315401e+001
1.629462e+003,1.474748e+001
1.630426e+003,1.409982e+001
1.631390e+003,1.217934e+001
1.632354e+003,1.153665e+001
1.633319e+003,1.268761e+001
1.634283e+003,1.387338e+001
1.635247e+003,1.366412e+001
1.636211e+003,1.307304e+001
1.637176e+003,1.447308e+001
1.638140e+003,1.767508e+001
1.639104e+003,1.873579e+001
1.640068e+003,1.687556e+001
1.641033e+003,1.523666e+001
1.641997e+003,1.482512e+001
1.642961e+003,1.456554e+001
1.643925e+003,1.357564e+001
1.644890e+003,1.270290e+001
1.645854e+003,1.291997e+001
1.646818e+003,1.392091e+001
1.647782e+003,1.494041e+001
1.648747e+003,1.567397e+001
1.649711e+003,1.582799e+001
1.650675e+003,1.512933e+001
1.651639e+003,1.402066e+001
1.652604e+003,1.301038e+001
1.653568e+003,1.206818e+001
1.654532e+003,1.259322e+001
1.655496e+003,1.536357e+001
1.656460e+003,1.705936e+001
1.657425e+003,1.620085e+001
1.658389e+003,1.485782e+001
1.659353e+003,1.413589e+001
1.660317e+003,1.354239e+001
1.661281e+003,1.218745e+001
1.662246e+003,1.046404e+001
1.663210e+003,9.874802e+000
1.664174e+003,1.090157e+001
1.665138e+003,1.207347e+001
1.666103e+003,1.215323e+001
1.667067e+003,1.141565e+001
1.668031e+003,1.028572e+001
1.668995e+003,8.852585e+000
1.669960e+003,8.013565e+000
1.670924e+003,8.029785e+000
1.671888e+003,7.927307e+000
1.672852e+003,7.019852e+000
1.673817e+003,6.364883e+000
1.674781e+003,6.717819e+000
1.675745e+003,7.560730e+000
1.676709e+003,8.606415e+000
1.677674e+003,9.608963e+000
1.678638e+003,1.002338e+001
1.679602e+003,9.681656e+000
1.680566e+003,8.888382e+000
1.681531e+003,7.598923e+000
1.682495e+003,6.523682e+000
1.683459e+003,7.280548e+000
1.684423e+003,9.340302e+000
1.685387e+003,9.392273e+000
1.686352e+003,6.852051e+000
1.687316e+003,5.103149e+000
1.688280e+003,5.509827e+000
1.689244e+003,6.389526e+000
1.690208e+003,6.464264e+000
1.691173e+003,6.329605e+000
1.692137e+003,6.891586e+000
1.693101e+003,7.932846e+000
1.694065e+003,8.388184e+000
1.695030e+003,7.887024e+000
1.695994e+003,7.031830e+000
1.696958e+003,6.067368e+000
1.697922e+003,5.220078e+000
1.698887e+003,4.890518e+000
1.699851e+003,4.912643e+000
1.700815e+003,4.733261e+000
1.701779e+003,4.246216e+000
1.702744e+003,3.225861e+000
1.703708e+003,1.428299e+000
1.704672e+003,3.379059e-001
1.705636e+003,1.328552e+000
1.706601e+003,3.015778e+000
1.707565e+003,3.744247e+000
1.708529e+003,3.673233e+000
1.709493e+003,2.596603e+000
1.710458e+003,2.293396e-001
1.711422e+003,-8.172150e-001
1.712386e+003,2.084137e+000
1.713350e+003,4.983261e+000
1.714314e+003,3.997223e+000
1.715279e+003,1.164398e+000
1.716243e+003,-1.717529e-001
1.717207e+003,1.023865e-001
1.718171e+003,9.856567e-001
1.719135e+003,2.218750e+000
1.720100e+003,3.594025e+000
1.721064e+003,5.089310e+000
1.722028e+003,6.119598e+000
1.722992e+003,5.871658e+000
1.723957e+003,4.601883e+000
1.724921e+003,3.004059e+000
1.725885e+003,6.796417e-001
1.726849e+003,-7.547455e-001
1.727814e+003,-1.380768e-001
1.728778e+003,5.826416e-001
1.729742e+003,4.767151e-001
1.730706e+003,1.099548e-001
1.731671e+003,-2.509460e-001
1.732635e+003,-5.304260e-001
1.733599e+003,-2.764282e-001
1.734563e+003,5.411987e-001
1.735528e+003,1.216568e+000
1.736492e+003,1.327148e+000
1.737456e+003,8.373413e-001
1.738420e+003,-4.382477e-001
1.739385e+003,-2.089966e+000
1.740349e+003,-2.206039e+000
1.741313e+003,-2.880402e-001
1.742277e+003,1.049927e+000
1.743241e+003,2.276154e+000
1.744206e+003,2.440536e+000
1.745170e+003,4.050598e-001
1.746134e+003,-1.670029e+000
1.747098e+003,-2.524109e+000
1.748063e+003,-2.849991e+000
1.749027e+003,-4.024902e+000
1.749991e+003,-5.367355e+000
1.750955e+003,-4.277786e+000
1.751919e+003,-4.264526e-001
1.752884e+003,2.515381e+000
1.753848e+003,1.467529e+000
1.754812e+003,-1.436874e+000
1.755776e+003,-1.672272e+000
1.756741e+003,7.254944e-001
1.757705e+003,1.193298e+000
1.758669e+003,-1.339859e+000
1.759633e+003,-2.911392e+000
1.760598e+003,-2.531952e+000
1.761562e+003,-2.164612e+000
1.762526e+003,-2.583496e+000
1.763490e+003,-2.825760e+000
1.764455e+003,-1.796036e+000
1.765419e+003,-3.098145e-001
1.766383e+003,1.920624e-001
1.767347e+003,-3.879547e-001
1.768312e+003,-1.187790e+000
1.769276e+003,-1.846405e+000
1.770240e+003,-2.044571e+000
1.771204e+003,-9.348755e-001
1.772168e+003,6.915741e-001
1.773133e+003,4.982758e-001
1.774097e+003,-1.287140e+000
1.775061e+003,-2.297806e+000
1.776025e+003,-2.359543e+000
1.776990e+003,-2.039948e+000
1.777954e+003,-1.173370e+000
1.778918e+003,-3.817596e-001
1.779882e+003,-2.657776e-001
1.780846e+003,-5.624390e-001
1.781811e+003,-8.317871e-001
1.782775e+003,-1.062271e+000
1.783739e+003,-1.407013e+000
1.784703e+003,-1.903046e+000
1.785668e+003,-1.892807e+000
1.786632e+003,-1.040314e+000
1.787596e+003,4.560852e-002
1.788560e+003,1.637772e+000
1.789525e+003,2.974182e+000
1.790489e+003,2.267227e+000
1.791453e+003,2.210693e-001
1.792417e+003,-3.747711e-001
1.793382e+003,8.843689e-001
1.794346e+003,1.228851e+000
1.795310e+003,-9.605103e-001
1.796274e+003,-2.746017e+000
1.797239e+003,-2.819061e-001
1.798203e+003,4.613770e+000
1.799167e+003,5.469116e+000
1.800131e+003,1.156494e+000
1.801095e+003,-1.151810e+000
1.802060e+003,7.179260e-002
1.803024e+003,1.085159e+000
1.803988e+003,1.349152e+000
1.804952e+003,1.406296e+000
1.805917e+003,1.425278e+000
1.806881e+003,1.429276e+000
1.807845e+003,1.396393e+000
1.808809e+003,1.435760e+000
1.809773e+003,2.159546e+000
1.810738e+003,3.277069e+000
1.811702e+003,2.649033e+000
1.812666e+003,-9.869843e-001
1.813630e+003,-4.707169e+000
1.814595e+003,-4.343384e+000
1.815559e+003,-1.108215e+000
1.816523e+003,8.564758e-002
1.817487e+003,-9.411774e-001
1.818452e+003,-1.786560e+000
1.819416e+003,-2.342484e+000
1.820380e+003,-2.341736e+000
1.821344e+003,-1.103394e+000
1.822309e+003,-3.830109e-001
1.823273e+003,-1.773285e+000
1.824237e+003,-3.561630e+000
1.825201e+003,-4.184296e+000
1.826166e+003,-3.815842e+000
1.827130e+003,-2.780167e+000
1.828094e+003,-1.233734e+000
1.829058e+003,-6.553802e-001
1.830022e+003,-2.242004e+000
1.830987e+003,-3.759293e+000
1.831951e+003,-3.053589e+000
1.832915e+003,-1.375336e+000
1.833879e+003,-5.421143e-001
1.834844e+003,-3.428345e-001
1.835808e+003,2.563629e-001
1.836772e+003,1.356979e+000
1.837736e+003,2.147736e+000
1.838700e+003,2.230988e+000
1.839665e+003,1.638611e+000
1.840629e+003,2.846985e-001
1.841593e+003,-1.196640e+000
1.842557e+003,-1.423111e+000
1.843522e+003,-4.281006e-001
1.844486e+003,-3.695679e-001
1.845450e+003,-2.452469e+000
1.846414e+003,-2.834625e+000
1.847379e+003,4.435120e-001
1.848343e+003,2.353668e+000
1.849307e+003,1.799622e-001
1.850271e+003,-2.423416e+000
1.851236e+003,-2.540070e+000
1.852200e+003,-1.475189e+000
1.853164e+003,-1.519470e+000
1.854128e+003,-2.679474e+000
1.855093e+003,-3.367966e+000
1.856057e+003,-2.948822e+000
1.857021e+003,-2.499237e+000
1.857985e+003,-3.073334e+000
1.858949e+003,-3.732346e+000
1.859914e+003,-2.506607e+000
1.860878e+003,2.025909e-001
1.861842e+003,2.141922e+000
1.862806e+003,3.266739e+000
1.863771e+003,2.857635e+000
1.864735e+003,3.005066e-001
1.865699e+003,-1.820328e+000
1.866663e+003,-2.462326e+000
1.867627e+003,-1.964020e+000
1.868592e+003,4.429626e-002
1.869556e+003,2.376770e+000
1.870520e+003,2.896057e+000
1.871484e+003,1.815552e+000
1.872449e+003,4.866180e-001
1.873413e+003,-9.352264e-001
1.874377e+003,-1.527359e+000
1.875341e+003,-1.028015e+000
1.876306e+003,-1.590118e-001
1.877270e+003,1.356079e+000
1.878234e+003,2.395538e+000
1.879198e+003,1.160477e+000
1.880163e+003,-9.869080e-001
1.881127e+003,-1.244888e+000
1.882091e+003,3.365784e-001
1.883055e+003,1.361237e+000
1.884020e+003,9.108887e-001
1.884984e+003,8.156738e-001
1.885948e+003,2.821701e+000
1.886912e+003,5.248489e+000
1.887876e+003,4.466599e+000
1.888841e+003,8.565979e-001
1.889805e+003,-9.933319e-001
1.890769e+003,-9.076843e-001
1.891733e+003,1.436615e-001
1.892698e+003,2.668518e+000
1.893662e+003,4.500351e+000
1.894626e+003,4.848694e+000
1.895590e+003,4.428955e+000
1.896554e+003,3.148636e+000
1.897519e+003,1.907150e+000
1.898483e+003,1.913742e+000
1.899447e+003,2.741745e+000
1.900411e+003,3.110611e+000
1.901376e+003,2.833786e+000
1.902340e+003,2.468842e+000
1.903304e+003,2.162445e+000
1.904268e+003,1.873306e+000
1.905233e+003,1.657471e+000
1.906197e+003,1.450150e+000
1.907161e+003,1.007401e+000
1.908125e+003,6.561584e-001
1.909090e+003,1.071930e+000
1.910054e+003,2.027267e+000
1.911018e+003,2.553192e+000
1.911982e+003,2.435410e+000
1.912947e+003,2.544464e+000
1.913911e+003,3.493378e+000
1.914875e+003,4.421371e+000
1.915839e+003,3.815094e+000
1.916803e+003,2.119064e+000
1.917768e+003,2.262756e+000
1.918732e+003,4.805328e+000
1.919696e+003,5.931595e+000
1.920660e+003,5.142792e+000
1.921625e+003,4.342377e+000
1.922589e+003,3.477585e+000
1.923553e+003,3.260757e+000
1.924517e+003,4.794739e+000
1.925481e+003,6.529633e+000
1.926446e+003,7.261566e+000
1.927410e+003,7.161880e+000
1.928374e+003,6.311981e+000
1.929338e+003,4.784424e+000
1.930303e+003,3.709564e+000
1.931267e+003,3.446426e+000
1.932231e+003,3.909195e+000
1.933195e+003,5.557098e+000
1.934160e+003,7.107651e+000
1.935124e+003,8.121048e+000
1.936088e+003,8.056961e+000
1.937052e+003,5.433075e+000
1.938017e+003,1.727203e+000
1.938981e+003,2.037201e-001
1.939945e+003,1.016785e+000
1.940909e+003,1.834503e+000
1.941874e+003,1.537537e+000
1.942838e+003,7.930298e-001
1.943802e+003,2.712860e-001
1.944766e+003,1.805115e-001
1.945730e+003,8.263702e-001
1.946695e+003,2.029251e+000
1.947659e+003,2.950165e+000
1.948623e+003,3.586884e+000
1.949587e+003,3.587143e+000
1.950552e+003,2.754974e+000
1.951516e+003,2.186127e+000
1.952480e+003,2.345306e+000
1.953444e+003,2.622177e+000
1.954408e+003,2.661148e+000
1.955373e+003,2.386932e+000
1.956337e+003,1.359695e+000
1.957301e+003,1.509247e-001
1.958265e+003,6.657715e-001
1.959230e+003,3.229568e+000
1.960194e+003,5.181763e+000
1.961158e+003,5.720154e+000
1.962122e+003,5.942764e+000
1.963087e+003,6.221008e+000
1.964051e+003,6.190353e+000
1.965015e+003,5.290192e+000
1.965979e+003,4.484207e+000
1.966944e+003,4.834030e+000
1.967908e+003,5.783295e+000
1.968872e+003,6.315598e+000
1.969836e+003,6.309280e+000
1.970801e+003,6.273911e+000
1.971765e+003,6.413223e+000
1.972729e+003,6.150360e+000
1.973693e+003,4.754211e+000
1.974657e+003,3.377380e+000
1.975622e+003,4.061356e+000
1.976586e+003,5.941269e+000
1.977550e+003,6.912140e+000
1.978514e+003,7.010071e+000
1.979479e+003,6.367188e+000
1.980443e+003,5.064514e+000
1.981407e+003,4.392807e+000
1.982371e+003,4.911804e+000
1.983335e+003,5.228790e+000
1.984300e+003,4.088013e+000
1.985264e+003,2.893127e+000
1.986228e+003,4.044403e+000
1.987192e+003,6.914825e+000
1.988157e+003,8.193161e+000
1.989121e+003,7.495361e+000
1.990085e+003,7.451447e+000
1.991049e+003,9.192230e+000
1.992014e+003,9.407669e+000
1.992978e+003,5.815567e+000
1.993942e+003,3.119080e+000
1.994906e+003,3.269958e+000
1.995871e+003,4.507477e+000
1.996835e+003,6.144897e+000
1.997799e+003,7.763916e+000
1.998763e+003,8.853882e+000
1.999728e+003,9.339249e+000
