5.003444e+002,1.935718e+001
5.013087e+002,1.882043e+001
5.022729e+002,1.754834e+001
5.032371e+002,1.597156e+001
5.042014e+002,1.216809e+001
5.051656e+002,6.800293e+000
5.061298e+002,2.791748e+000
5.070941e+002,2.921753e+000
5.080583e+002,8.132080e+000
5.090225e+002,9.364258e+000
5.099868e+002,4.015869e+000
5.109510e+002,-1.299438e+000
5.119152e+002,-3.067017e+000
5.128795e+002,-8.830566e-001
5.138437e+002,1.920776e+000
5.148079e+002,5.070801e+000
5.157722e+002,8.209351e+000
5.167364e+002,1.127271e+001
5.177006e+002,1.378882e+001
5.186649e+002,1.488330e+001
5.196291e+002,1.335828e+001
5.205933e+002,1.146179e+001
5.215576e+002,1.077380e+001
5.225218e+002,1.073328e+001
5.234860e+002,9.835449e+000
5.244503e+002,6.072876e+000
5.254145e+002,-9.078369e-001
5.263787e+002,-3.668579e+000
5.273430e+002,-1.282959e-001
5.283072e+002,6.192383e+000
5.292714e+002,1.013184e+001
5.302357e+002,9.203613e+000
5.311999e+002,8.509888e+000
5.321641e+002,1.156409e+001
5.331284e+002,1.488171e+001
5.340926e+002,1.421436e+001
5.350568e+002,7.204102e+000
5.360211e+002,7.584229e-001
5.369853e+002,4.686890e+000
5.379495e+002,1.179761e+001
5.389138e+002,1.599048e+001
5.398780e+002,1.476843e+001
5.408422e+002,1.001978e+001
5.418065e+002,6.863770e+000
5.427707e+002,5.091797e+000
5.437349e+002,3.483032e+000
5.446992e+002,1.483887e+000
5.456634e+002,-6.430664e-001
5.466276e+002,-1.661743e+000
5.475919e+002,-2.008057e-001
5.485561e+002,1.534668e+000
5.495203e+002,3.081665e+000
5.504846e+002,4.310059e+000
5.514488e+002,5.748047e+000
5.524130e+002,9.052490e+000
5.533773e+002,1.021484e+001
5.543415e+002,5.093384e+000
5.553057e+002,-1.615967e+000
5.562700e+002,-4.753906e+000
5.572342e+002,-1.316528e+000
5.581984e+002,4.942627e+000
5.591627e+002,5.067627e+000
5.601269e+002,1.805786e+000
5.610911e+002,-2.812500e-001
5.620554e+002,9.722900e-001
5.630196e+002,4.761230e+000
5.639838e+002,6.667114e+000
5.649481e+002,7.328613e+000
5.659123e+002,5.391479e+000
5.668765e+002,-1.087402e+000
5.678408e+002,-9.383301e+000
5.688050e+002,-1.269531e+001
5.697692e+002,-6.078613e+000
5.707335e+002,-1.254150e+000
5.716977e+002,-2.096680e+000
5.726619e+002,-6.001099e+000
5.736262e+002,-9.321411e+000
5.745904e+002,-9.458008e+000
5.755546e+002,-7.986450e+000
5.765189e+002,-8.602173e+000
5.774831e+002,-1.082397e+001
5.784473e+002,-1.277881e+001
5.794116e+002,-1.285291e+001
5.803758e+002,-1.067480e+001
5.813400e+002,-8.362915e+000
5.823043e+002,-6.778931e+000
5.832685e+002,-6.024780e+000
5.842327e+002,-5.058960e+000
5.851970e+002,-3.608887e+000
5.861612e+002,-3.429932e+000
5.871254e+002,-8.836060e+000
5.880897e+002,-1.216602e+001
5.890539e+002,-1.109338e+001
5.900181e+002,-7.597534e+000
5.909824e+002,-4.797607e+000
5.919466e+002,-4.398071e+000
5.929108e+002,-5.017944e+000
5.938751e+002,-5.619995e+000
5.948393e+002,-5.921265e+000
5.958035e+002,-5.187866e+000
5.967678e+002,-2.783447e+000
5.977320e+002,1.252808e+000
5.986962e+002,4.068359e+000
5.996605e+002,4.759155e+000
6.006247e+002,5.146973e+000
6.015889e+002,6.505737e+000
6.025532e+002,8.771362e+000
6.035174e+002,9.599487e+000
6.044816e+002,7.400146e+000
6.054459e+002,5.661743e+000
6.064101e+002,4.617676e+000
6.073743e+002,4.321167e+000
6.083386e+002,5.203125e+000
6.093028e+002,8.772705e+000
6.102670e+002,1.132971e+001
6.112313e+002,8.746216e+000
6.121955e+002,3.866333e+000
6.131597e+002,5.627441e-001
6.141240e+002,1.422485e+000
6.150882e+002,5.036011e+000
6.160524e+002,5.835083e+000
6.170167e+002,4.725220e+000
6.179809e+002,3.608643e+000
6.189451e+002,2.485718e+000
6.199094e+002,1.210815e+000
6.208736e+002,1.720825e+000
6.218378e+002,9.621094e+000
6.228021e+002,1.447034e+001
6.237663e+002,1.326453e+001
6.247305e+002,9.270142e+000
6.256948e+002,7.892822e+000
6.266590e+002,1.213550e+001
6.276232e+002,1.478406e+001
6.285875e+002,1.139636e+001
6.295517e+002,5.799194e+000
6.305159e+002,1.412720e+000
6.314802e+002,-6.555176e-002
6.324444e+002,1.425781e-001
6.334086e+002,5.661621e-001
6.343729e+002,1.605347e+000
6.353371e+002,2.371094e+000
6.363013e+002,2.346191e+000
6.372656e+002,1.388306e+000
6.382298e+002,-3.480225e-001
6.391940e+002,-4.781128e+000
6.401583e+002,-7.974976e+000
6.411225e+002,-8.054688e+000
6.420867e+002,-6.124390e+000
6.430510e+002,-3.789551e+000
6.440152e+002,-1.740234e+000
6.449794e+002,-1.412109e+000
6.459437e+002,-4.662964e+000
6.469079e+002,-8.675781e+000
6.478721e+002,-1.085510e+001
6.488364e+002,-1.024805e+001
6.498006e+002,-8.301270e+000
6.507648e+002,-8.485596e+000
6.517291e+002,-9.792480e+000
6.526933e+002,-8.604004e+000
6.536575e+002,-4.144775e+000
6.546218e+002,1.605103e+000
6.555860e+002,4.902344e+000
6.565502e+002,4.298340e+000
6.575145e+002,3.692261e+000
6.584787e+002,2.422974e+000
6.594429e+002,1.773438e+000
6.604072e+002,3.440308e+000
6.613714e+002,8.051025e+000
6.623356e+002,1.130457e+001
6.632999e+002,9.327393e+000
6.642641e+002,5.998413e+000
6.652283e+002,3.317261e+000
6.661926e+002,2.134033e+000
6.671568e+002,2.551392e+000
6.681210e+002,4.856934e+000
6.690853e+002,7.615845e+000
6.700495e+002,7.999878e+000
6.710137e+002,6.126709e+000
6.719780e+002,3.770996e+000
6.729422e+002,2.604126e+000
6.739064e+002,2.348877e+000
6.748707e+002,3.434692e+000
6.758349e+002,6.920410e+000
6.767991e+002,9.762329e+000
6.777634e+002,1.139929e+001
6.787276e+002,1.238538e+001
6.796918e+002,1.337329e+001
6.806561e+002,1.408264e+001
6.816203e+002,1.360034e+001
6.825845e+002,1.035754e+001
6.835488e+002,6.013184e+000
6.845130e+002,3.314087e+000
6.854772e+002,4.545898e+000
6.864415e+002,8.696533e+000
6.874057e+002,1.233667e+001
6.883699e+002,1.474365e+001
6.893342e+002,1.617310e+001
6.902984e+002,1.700208e+001
6.912626e+002,1.740771e+001
6.922269e+002,1.685889e+001
6.931911e+002,1.623572e+001
6.941553e+002,1.579993e+001
6.951196e+002,1.457202e+001
6.960838e+002,1.240259e+001
6.970480e+002,9.227173e+000
6.980123e+002,4.126343e+000
6.989765e+002,1.805908e+000
6.999407e+002,5.350342e+000
7.009050e+002,1.054700e+001
7.018692e+002,1.480115e+001
7.028334e+002,1.674988e+001
7.037977e+002,1.580505e+001
7.047619e+002,9.189087e+000
7.057261e+002,6.851807e-001
7.066904e+002,-2.802368e+000
7.076546e+002,-2.049561e-001
7.086188e+002,5.520020e+000
7.095831e+002,9.787109e+000
7.105473e+002,1.176343e+001
7.115115e+002,1.315857e+001
7.124758e+002,1.376819e+001
7.134400e+002,1.362292e+001
7.144042e+002,1.316541e+001
7.153685e+002,1.269727e+001
7.163327e+002,1.172437e+001
7.172969e+002,9.270508e+000
7.182612e+002,7.116699e+000
7.192254e+002,5.952637e+000
7.201896e+002,5.241455e+000
7.211539e+002,3.902344e+000
7.221181e+002,1.012451e+000
7.230823e+002,-2.438721e+000
7.240466e+002,-4.164063e+000
7.250108e+002,-3.699463e+000
7.259750e+002,-9.052734e-001
7.269393e+002,4.011108e+000
7.279035e+002,9.676880e+000
7.288677e+002,1.181189e+001
7.298320e+002,8.619995e+000
7.307962e+002,7.449097e+000
7.317604e+002,1.036975e+001
7.327247e+002,1.515149e+001
7.336889e+002,1.786304e+001
7.346531e+002,1.573999e+001
7.356174e+002,1.218665e+001
7.365816e+002,1.210791e+001
7.375458e+002,1.249805e+001
7.385101e+002,9.561523e+000
7.394743e+002,3.193604e+000
7.404385e+002,-2.303223e+000
7.414028e+002,6.701660e-002
7.423670e+002,7.107788e+000
7.433312e+002,1.058411e+001
7.442955e+002,1.097961e+001
7.452597e+002,1.168408e+001
7.462239e+002,1.676563e+001
7.471882e+002,2.818372e+001
7.481524e+002,3.317322e+001
7.491166e+002,2.420691e+001
7.500809e+002,1.614905e+001
7.510451e+002,1.592468e+001
7.520093e+002,2.165759e+001
7.529736e+002,2.543848e+001
7.539378e+002,2.365881e+001
7.549020e+002,2.108081e+001
7.558663e+002,2.021301e+001
7.568306e+002,2.055298e+001
7.577948e+002,2.087231e+001
7.587590e+002,2.022449e+001
7.597233e+002,1.892261e+001
7.606875e+002,2.049988e+001
7.616517e+002,2.508154e+001
7.626160e+002,2.773047e+001
7.635802e+002,2.672119e+001
7.645444e+002,2.397473e+001
7.655087e+002,2.356311e+001
7.664729e+002,2.754993e+001
7.674371e+002,2.856067e+001
7.684014e+002,2.227112e+001
7.693656e+002,1.668970e+001
7.703298e+002,1.906372e+001
7.712941e+002,2.930713e+001
7.722583e+002,3.722742e+001
7.732225e+002,3.219141e+001
7.741868e+002,2.464941e+001
7.751510e+002,2.243054e+001
7.761152e+002,2.498877e+001
7.770795e+002,2.943481e+001
7.780437e+002,3.314844e+001
7.790079e+002,3.577820e+001
7.799722e+002,3.603174e+001
7.809364e+002,3.403015e+001
7.819006e+002,3.100037e+001
7.828649e+002,2.738452e+001
7.838291e+002,2.394446e+001
7.847933e+002,2.193591e+001
7.857576e+002,2.158057e+001
7.867218e+002,1.970898e+001
7.876860e+002,1.395654e+001
7.886503e+002,9.512573e+000
7.896145e+002,1.219666e+001
7.905787e+002,2.288452e+001
7.915430e+002,3.378186e+001
7.925072e+002,3.438464e+001
7.934714e+002,3.021350e+001
7.944357e+002,2.825891e+001
7.953999e+002,2.939978e+001
7.963641e+002,3.111145e+001
7.973284e+002,3.014783e+001
7.982926e+002,2.625684e+001
7.992568e+002,2.499658e+001
8.002211e+002,2.629517e+001
8.011853e+002,2.579248e+001
8.021495e+002,2.275171e+001
8.031138e+002,1.896790e+001
8.040780e+002,1.683838e+001
8.050422e+002,1.523535e+001
8.060065e+002,1.564856e+001
8.069707e+002,1.891968e+001
8.079349e+002,2.283069e+001
8.088992e+002,2.573169e+001
8.098634e+002,2.735010e+001
8.108276e+002,2.874194e+001
8.117919e+002,3.094836e+001
8.127561e+002,3.191748e+001
8.137203e+002,2.982043e+001
8.146846e+002,2.543677e+001
8.156488e+002,2.158203e+001
8.166130e+002,2.124060e+001
8.175773e+002,2.494543e+001
8.185415e+002,2.748413e+001
8.195057e+002,2.634692e+001
8.204700e+002,2.571069e+001
8.214342e+002,2.785925e+001
8.223984e+002,3.161218e+001
8.233627e+002,3.351563e+001
8.243269e+002,3.149438e+001
8.252911e+002,3.008582e+001
8.262554e+002,3.181970e+001
8.272196e+002,3.516272e+001
8.281838e+002,3.908923e+001
8.291481e+002,4.281384e+001
8.301123e+002,4.534290e+001
8.310765e+002,4.429504e+001
8.320408e+002,3.994836e+001
8.330050e+002,3.916638e+001
8.339692e+002,4.380493e+001
8.349335e+002,4.810156e+001
8.358977e+002,4.492847e+001
8.368619e+002,3.293677e+001
8.378262e+002,2.731848e+001
8.387904e+002,3.258533e+001
8.397546e+002,3.815247e+001
8.407189e+002,4.249011e+001
8.416831e+002,4.531860e+001
8.426473e+002,4.628918e+001
8.436116e+002,4.483679e+001
8.445758e+002,4.389355e+001
8.455400e+002,4.691150e+001
8.465043e+002,5.018640e+001
8.474685e+002,5.031482e+001
8.484327e+002,4.721338e+001
8.493970e+002,4.343042e+001
8.503612e+002,4.216040e+001
8.513254e+002,4.350098e+001
8.522897e+002,4.404114e+001
8.532539e+002,4.316614e+001
8.542181e+002,4.130603e+001
8.551824e+002,3.873132e+001
8.561466e+002,3.660229e+001
8.571108e+002,3.765735e+001
8.580751e+002,4.212708e+001
8.590393e+002,4.617712e+001
8.600035e+002,4.935889e+001
8.609678e+002,5.257861e+001
8.619320e+002,5.709338e+001
8.628962e+002,6.314063e+001
8.638605e+002,6.897034e+001
8.648247e+002,7.198743e+001
8.657889e+002,7.258643e+001
8.667532e+002,7.183154e+001
8.677174e+002,6.984998e+001
8.686816e+002,6.676233e+001
8.696459e+002,6.243823e+001
8.706101e+002,5.672485e+001
8.715743e+002,5.484351e+001
8.725386e+002,6.045642e+001
8.735028e+002,6.504712e+001
8.744670e+002,6.438635e+001
8.754313e+002,6.052759e+001
8.763955e+002,5.841333e+001
8.773597e+002,6.044971e+001
8.783240e+002,6.330457e+001
8.792882e+002,6.465662e+001
8.802524e+002,6.482764e+001
8.812167e+002,6.400623e+001
8.821809e+002,6.239526e+001
8.831451e+002,6.025867e+001
8.841094e+002,5.801074e+001
8.850736e+002,5.636646e+001
8.860378e+002,5.627344e+001
8.870021e+002,5.679980e+001
8.879663e+002,5.955273e+001
8.889305e+002,6.736292e+001
8.898948e+002,7.828308e+001
8.908590e+002,8.320349e+001
8.918232e+002,7.833716e+001
8.927875e+002,7.380322e+001
8.937517e+002,7.154749e+001
8.947159e+002,7.066187e+001
8.956802e+002,6.955151e+001
8.966444e+002,6.763696e+001
8.976086e+002,6.631665e+001
8.985729e+002,6.890247e+001
8.995371e+002,7.304504e+001
9.005013e+002,7.300854e+001
9.014656e+002,6.990527e+001
9.024298e+002,6.802026e+001
9.033940e+002,7.020642e+001
9.043583e+002,7.523901e+001
9.053225e+002,7.853577e+001
9.062867e+002,7.764539e+001
9.072510e+002,7.684265e+001
9.082152e+002,7.814795e+001
9.091794e+002,8.015479e+001
9.101437e+002,8.082166e+001
9.111079e+002,7.971387e+001
9.120721e+002,7.935291e+001
9.130364e+002,8.076233e+001
9.140006e+002,8.235913e+001
9.149648e+002,8.460474e+001
9.159291e+002,8.736243e+001
9.168933e+002,8.979407e+001
9.178575e+002,9.091833e+001
9.188218e+002,9.035767e+001
9.197860e+002,8.757288e+001
9.207502e+002,8.205981e+001
9.217145e+002,7.824280e+001
9.226787e+002,7.915918e+001
9.236429e+002,8.202820e+001
9.246072e+002,8.190454e+001
9.255714e+002,7.724890e+001
9.265356e+002,7.442212e+001
9.274999e+002,7.566785e+001
9.284641e+002,7.682983e+001
9.294283e+002,7.772192e+001
9.303926e+002,7.787830e+001
9.313568e+002,7.601318e+001
9.323210e+002,7.119788e+001
9.332853e+002,6.616980e+001
9.342495e+002,6.708533e+001
9.352137e+002,7.026147e+001
9.361780e+002,7.001770e+001
9.371422e+002,6.583508e+001
9.381064e+002,6.226428e+001
9.390707e+002,6.501245e+001
9.400349e+002,7.464905e+001
9.409991e+002,8.060767e+001
9.419634e+002,8.036987e+001
9.429276e+002,7.980713e+001
9.438918e+002,8.066650e+001
9.448561e+002,8.242603e+001
9.458203e+002,8.432739e+001
9.467845e+002,8.661438e+001
9.477488e+002,8.823059e+001
9.487130e+002,8.642529e+001
9.496772e+002,8.461060e+001
9.506415e+002,8.586084e+001
9.516057e+002,9.003564e+001
9.525699e+002,9.494080e+001
9.535342e+002,9.836316e+001
9.544984e+002,1.000585e+002
9.554626e+002,1.004933e+002
9.564269e+002,1.003179e+002
9.573911e+002,1.018733e+002
9.583553e+002,1.068983e+002
9.593196e+002,1.129773e+002
9.602838e+002,1.161465e+002
9.612480e+002,1.155020e+002
9.622123e+002,1.137722e+002
9.631765e+002,1.110077e+002
9.641407e+002,1.087175e+002
9.651050e+002,1.077296e+002
9.660692e+002,1.071740e+002
9.670334e+002,1.058982e+002
9.679977e+002,1.036787e+002
9.689619e+002,1.013866e+002
9.699261e+002,9.794019e+001
9.708904e+002,9.372437e+001
9.718546e+002,9.324939e+001
9.728188e+002,9.787341e+001
9.737831e+002,1.032506e+002
9.747473e+002,1.034497e+002
9.757115e+002,9.739258e+001
9.766758e+002,9.362268e+001
9.776400e+002,9.509741e+001
9.786042e+002,9.668213e+001
9.795685e+002,9.662158e+001
9.805327e+002,9.509302e+001
9.814969e+002,9.296863e+001
9.824612e+002,9.107373e+001
9.834254e+002,9.004602e+001
9.843896e+002,8.845520e+001
9.853539e+002,8.801318e+001
9.863181e+002,9.179651e+001
9.872823e+002,9.876025e+001
9.882466e+002,1.057279e+002
9.892108e+002,1.108247e+002
9.901750e+002,1.155520e+002
9.911393e+002,1.218048e+002
9.921035e+002,1.281990e+002
9.930677e+002,1.333860e+002
9.940320e+002,1.357000e+002
9.949962e+002,1.397572e+002
9.959604e+002,1.514501e+002
9.969247e+002,1.708438e+002
9.978889e+002,1.881500e+002
9.988531e+002,1.968596e+002
9.998174e+002,2.015190e+002
1.000782e+003,2.046366e+002
1.001746e+003,2.075922e+002
1.002710e+003,2.118772e+002
1.003674e+003,2.178340e+002
1.004639e+003,2.240560e+002
1.005603e+003,2.281182e+002
1.006567e+003,2.294388e+002
1.007531e+003,2.303607e+002
1.008495e+003,2.304943e+002
1.009460e+003,2.313162e+002
1.010424e+003,2.353448e+002
1.011388e+003,2.414059e+002
1.012352e+003,2.438094e+002
1.013317e+003,2.410667e+002
1.014281e+003,2.346105e+002
1.015245e+003,2.219985e+002
1.016209e+003,2.084537e+002
1.017174e+003,1.985142e+002
1.018138e+003,1.920701e+002
1.019102e+003,1.856127e+002
1.020066e+003,1.765051e+002
1.021031e+003,1.660374e+002
1.021995e+003,1.555315e+002
1.022959e+003,1.442666e+002
1.023923e+003,1.343640e+002
1.024887e+003,1.269286e+002
1.025852e+003,1.200375e+002
1.026816e+003,1.102158e+002
1.027780e+003,9.666833e+001
1.028744e+003,8.746899e+001
1.029709e+003,8.530359e+001
1.030673e+003,8.463354e+001
1.031637e+003,8.510486e+001
1.032601e+003,8.505481e+001
1.033566e+003,8.222375e+001
1.034530e+003,7.619690e+001
1.035494e+003,7.058679e+001
1.036458e+003,6.941418e+001
1.037422e+003,7.055188e+001
1.038387e+003,7.042419e+001
1.039351e+003,6.889355e+001
1.040315e+003,6.816211e+001
1.041279e+003,7.032129e+001
1.042244e+003,7.504785e+001
1.043208e+003,7.910059e+001
1.044172e+003,8.287817e+001
1.045136e+003,8.296289e+001
1.046101e+003,7.660583e+001
1.047065e+003,7.035095e+001
1.048029e+003,6.823804e+001
1.048993e+003,6.961450e+001
1.049958e+003,7.140662e+001
1.050922e+003,7.252148e+001
1.051886e+003,7.444189e+001
1.052850e+003,8.022705e+001
1.053814e+003,8.662866e+001
1.054779e+003,8.886951e+001
1.055743e+003,8.605603e+001
1.056707e+003,8.107007e+001
1.057671e+003,7.733264e+001
1.058636e+003,7.466785e+001
1.059600e+003,7.284998e+001
1.060564e+003,7.210352e+001
1.061528e+003,7.402979e+001
1.062493e+003,8.114124e+001
1.063457e+003,8.785742e+001
1.064421e+003,8.768567e+001
1.065385e+003,8.041943e+001
1.066349e+003,7.360095e+001
1.067314e+003,7.085120e+001
1.068278e+003,7.013440e+001
1.069242e+003,7.100305e+001
1.070206e+003,7.280908e+001
1.071171e+003,7.421375e+001
1.072135e+003,7.432178e+001
1.073099e+003,7.327576e+001
1.074063e+003,7.191602e+001
1.075028e+003,7.046033e+001
1.075992e+003,7.104980e+001
1.076956e+003,7.475220e+001
1.077920e+003,7.693115e+001
1.078885e+003,7.606445e+001
1.079849e+003,7.374744e+001
1.080813e+003,7.181799e+001
1.081777e+003,7.028625e+001
1.082741e+003,7.121716e+001
1.083706e+003,7.805334e+001
1.084670e+003,8.377551e+001
1.085634e+003,8.409937e+001
1.086598e+003,8.030591e+001
1.087563e+003,7.560498e+001
1.088527e+003,7.225208e+001
1.089491e+003,7.002014e+001
1.090455e+003,6.680725e+001
1.091420e+003,6.174280e+001
1.092384e+003,6.158716e+001
1.093348e+003,6.868896e+001
1.094312e+003,7.499402e+001
1.095276e+003,7.569641e+001
1.096241e+003,7.308740e+001
1.097205e+003,7.284998e+001
1.098169e+003,7.620642e+001
1.099133e+003,7.815540e+001
1.100098e+003,7.501880e+001
1.101062e+003,7.244824e+001
1.102026e+003,7.489807e+001
1.102990e+003,8.097961e+001
1.103955e+003,8.640051e+001
1.104919e+003,8.840393e+001
1.105883e+003,8.834485e+001
1.106847e+003,8.964417e+001
1.107812e+003,9.218201e+001
1.108776e+003,9.381140e+001
1.109740e+003,9.397217e+001
1.110704e+003,9.424548e+001
1.111668e+003,9.649622e+001
1.112633e+003,1.009015e+002
1.113597e+003,1.059785e+002
1.114561e+003,1.117229e+002
1.115525e+003,1.159269e+002
1.116490e+003,1.168228e+002
1.117454e+003,1.169838e+002
1.118418e+003,1.183423e+002
1.119382e+003,1.214423e+002
1.120347e+003,1.258724e+002
1.121311e+003,1.306666e+002
1.122275e+003,1.343104e+002
1.123239e+003,1.358723e+002
1.124203e+003,1.366521e+002
1.125168e+003,1.384606e+002
1.126132e+003,1.416572e+002
1.127096e+003,1.460574e+002
1.128060e+003,1.511617e+002
1.129025e+003,1.566487e+002
1.129989e+003,1.625059e+002
1.130953e+003,1.684894e+002
1.131917e+003,1.744779e+002
1.132882e+003,1.815867e+002
1.133846e+003,1.883751e+002
1.134810e+003,1.925078e+002
1.135774e+003,1.958983e+002
1.136739e+003,2.029557e+002
1.137703e+003,2.160208e+002
1.138667e+003,2.317374e+002
1.139631e+003,2.439341e+002
1.140595e+003,2.533207e+002
1.141560e+003,2.678452e+002
1.142524e+003,2.891094e+002
1.143488e+003,3.137578e+002
1.144452e+003,3.386060e+002
1.145417e+003,3.646561e+002
1.146381e+003,3.959165e+002
1.147345e+003,4.334590e+002
1.148309e+003,4.729250e+002
1.149274e+003,5.139590e+002
1.150238e+003,5.566577e+002
1.151202e+003,6.046091e+002
1.152166e+003,6.543966e+002
1.153130e+003,7.006412e+002
1.154095e+003,7.396531e+002
1.155059e+003,7.688625e+002
1.156023e+003,7.857625e+002
1.156987e+003,7.907177e+002
1.157952e+003,7.896249e+002
1.158916e+003,7.846272e+002
1.159880e+003,7.728625e+002
1.160844e+003,7.512632e+002
1.161809e+003,7.189913e+002
1.162773e+003,6.753920e+002
1.163737e+003,6.179894e+002
1.164701e+003,5.610774e+002
1.165666e+003,5.016178e+002
1.166630e+003,4.519834e+002
1.167594e+003,4.186768e+002
1.168558e+003,3.970939e+002
1.169522e+003,3.817452e+002
1.170487e+003,3.704144e+002
1.171451e+003,3.644764e+002
1.172415e+003,3.660986e+002
1.173379e+003,3.730537e+002
1.174344e+003,3.756969e+002
1.175308e+003,3.748785e+002
1.176272e+003,3.692090e+002
1.177236e+003,3.540081e+002
1.178201e+003,3.375889e+002
1.179165e+003,3.324865e+002
1.180129e+003,3.382094e+002
1.181093e+003,3.350171e+002
1.182057e+003,3.114365e+002
1.183022e+003,2.905402e+002
1.183986e+003,2.821749e+002
1.184950e+003,2.793833e+002
1.185914e+003,2.745791e+002
1.186879e+003,2.681285e+002
1.187843e+003,2.675709e+002
1.188807e+003,2.790023e+002
1.189771e+003,2.966876e+002
1.190736e+003,3.040258e+002
1.191700e+003,2.997031e+002
1.192664e+003,2.967700e+002
1.193628e+003,2.986223e+002
1.194593e+003,3.002339e+002
1.195557e+003,2.985199e+002
1.196521e+003,2.933854e+002
1.197485e+003,2.841063e+002
1.198449e+003,2.689231e+002
1.199414e+003,2.554398e+002
1.200378e+003,2.496930e+002
1.201342e+003,2.445640e+002
1.202306e+003,2.340824e+002
1.203271e+003,2.203118e+002
1.204235e+003,2.084757e+002
1.205199e+003,2.014171e+002
1.206163e+003,1.981785e+002
1.207128e+003,1.974252e+002
1.208092e+003,1.995339e+002
1.209056e+003,1.956949e+002
1.210020e+003,1.844353e+002
1.210984e+003,1.717081e+002
1.211949e+003,1.571632e+002
1.212913e+003,1.428721e+002
1.213877e+003,1.323077e+002
1.214841e+003,1.258207e+002
1.215806e+003,1.197670e+002
1.216770e+003,1.124059e+002
1.217734e+003,1.052798e+002
1.218698e+003,9.862854e+001
1.219663e+003,9.248230e+001
1.220627e+003,8.705396e+001
1.221591e+003,8.242468e+001
1.222555e+003,7.881458e+001
1.223520e+003,7.666394e+001
1.224484e+003,7.558936e+001
1.225448e+003,7.192639e+001
1.226412e+003,6.203662e+001
1.227376e+003,5.774084e+001
1.228341e+003,6.369165e+001
1.229305e+003,6.919348e+001
1.230269e+003,6.740259e+001
1.231233e+003,6.123511e+001
1.232198e+003,5.729016e+001
1.233162e+003,5.768628e+001
1.234126e+003,5.967053e+001
1.235090e+003,6.101343e+001
1.236055e+003,6.211536e+001
1.237019e+003,6.388696e+001
1.237983e+003,6.567395e+001
1.238947e+003,6.647168e+001
1.239911e+003,6.628101e+001
1.240876e+003,6.563757e+001
1.241840e+003,6.472180e+001
1.242804e+003,6.350122e+001
1.243768e+003,6.347852e+001
1.244733e+003,6.489294e+001
1.245697e+003,6.746838e+001
1.246661e+003,7.199414e+001
1.247625e+003,7.536377e+001
1.248590e+003,7.522705e+001
1.249554e+003,7.295056e+001
1.250518e+003,7.141125e+001
1.251482e+003,7.136377e+001
1.252447e+003,7.242822e+001
1.253411e+003,7.503882e+001
1.254375e+003,7.944360e+001
1.255339e+003,8.612219e+001
1.256303e+003,9.524561e+001
1.257268e+003,1.031182e+002
1.258232e+003,1.066250e+002
1.259196e+003,1.069768e+002
1.260160e+003,1.075708e+002
1.261125e+003,1.089238e+002
1.262089e+003,1.122051e+002
1.263053e+003,1.172825e+002
1.264017e+003,1.230865e+002
1.264982e+003,1.324961e+002
1.265946e+003,1.408990e+002
1.266910e+003,1.426522e+002
1.267874e+003,1.388917e+002
1.268839e+003,1.368435e+002
1.269803e+003,1.414535e+002
1.270767e+003,1.467079e+002
1.271731e+003,1.395582e+002
1.272695e+003,1.208822e+002
1.273660e+003,1.091245e+002
1.274624e+003,1.055720e+002
1.275588e+003,1.030101e+002
1.276552e+003,9.807837e+001
1.277517e+003,9.290991e+001
1.278481e+003,9.100232e+001
1.279445e+003,9.254443e+001
1.280409e+003,9.326050e+001
1.281374e+003,9.229382e+001
1.282338e+003,8.964978e+001
1.283302e+003,8.376648e+001
1.284266e+003,7.713782e+001
1.285230e+003,7.272583e+001
1.286195e+003,7.065845e+001
1.287159e+003,6.909949e+001
1.288123e+003,6.690320e+001
1.289087e+003,6.468567e+001
1.290052e+003,6.269495e+001
1.291016e+003,6.014063e+001
1.291980e+003,5.839856e+001
1.292944e+003,5.762048e+001
1.293909e+003,5.590894e+001
1.294873e+003,5.193762e+001
1.295837e+003,4.824622e+001
1.296801e+003,4.845117e+001
1.297766e+003,5.279834e+001
1.298730e+003,5.790356e+001
1.299694e+003,6.258569e+001
1.300658e+003,6.491492e+001
1.301622e+003,6.198828e+001
1.302587e+003,5.660535e+001
1.303551e+003,5.240759e+001
1.304515e+003,5.042236e+001
1.305479e+003,5.035596e+001
1.306444e+003,5.157019e+001
1.307408e+003,5.381750e+001
1.308372e+003,5.791833e+001
1.309336e+003,6.533728e+001
1.310301e+003,6.977771e+001
1.311265e+003,7.136829e+001
1.312229e+003,7.044141e+001
1.313193e+003,6.355811e+001
1.314157e+003,5.611243e+001
1.315122e+003,5.498804e+001
1.316086e+003,5.935461e+001
1.317050e+003,6.147412e+001
1.318014e+003,5.639539e+001
1.318979e+003,4.914624e+001
1.319943e+003,4.841052e+001
1.320907e+003,5.389014e+001
1.321871e+003,5.851416e+001
1.322836e+003,6.098413e+001
1.323800e+003,6.236340e+001
1.324764e+003,6.309412e+001
1.325728e+003,6.347620e+001
1.326693e+003,6.383899e+001
1.327657e+003,6.375635e+001
1.328621e+003,6.190540e+001
1.329585e+003,5.761511e+001
1.330549e+003,5.685889e+001
1.331514e+003,6.325012e+001
1.332478e+003,7.014368e+001
1.333442e+003,7.192188e+001
1.334406e+003,6.902502e+001
1.335371e+003,6.425293e+001
1.336335e+003,5.944983e+001
1.337299e+003,5.590259e+001
1.338263e+003,5.599817e+001
1.339228e+003,6.037598e+001
1.340192e+003,6.270593e+001
1.341156e+003,6.068542e+001
1.342120e+003,6.007605e+001
1.343084e+003,6.188513e+001
1.344049e+003,6.372620e+001
1.345013e+003,6.550842e+001
1.345977e+003,6.667200e+001
1.346941e+003,6.409302e+001
1.347906e+003,5.627100e+001
1.348870e+003,4.920898e+001
1.349834e+003,4.868506e+001
1.350798e+003,5.177930e+001
1.351763e+003,5.404895e+001
1.352727e+003,5.555139e+001
1.353691e+003,5.518726e+001
1.354655e+003,5.202649e+001
1.355620e+003,4.915088e+001
1.356584e+003,5.163586e+001
1.357548e+003,5.876648e+001
1.358512e+003,6.113806e+001
1.359476e+003,5.548047e+001
1.360441e+003,4.990540e+001
1.361405e+003,4.661218e+001
1.362369e+003,4.459753e+001
1.363333e+003,4.407495e+001
1.364298e+003,4.427295e+001
1.365262e+003,4.394617e+001
1.366226e+003,4.306396e+001
1.367190e+003,4.332190e+001
1.368155e+003,4.629468e+001
1.369119e+003,5.059192e+001
1.370083e+003,5.179919e+001
1.371047e+003,4.904846e+001
1.372011e+003,4.887695e+001
1.372976e+003,5.245886e+001
1.373940e+003,5.512695e+001
1.374904e+003,5.480066e+001
1.375868e+003,5.359766e+001
1.376833e+003,5.412390e+001
1.377797e+003,5.614014e+001
1.378761e+003,5.739441e+001
1.379725e+003,5.720276e+001
1.380690e+003,5.591296e+001
1.381654e+003,5.229480e+001
1.382618e+003,4.897375e+001
1.383582e+003,4.999866e+001
1.384547e+003,5.512720e+001
1.385511e+003,6.132886e+001
1.386475e+003,6.745520e+001
1.387439e+003,7.125476e+001
1.388403e+003,6.761755e+001
1.389368e+003,5.649902e+001
1.390332e+003,5.184180e+001
1.391296e+003,5.939282e+001
1.392260e+003,6.362939e+001
1.393225e+003,5.776123e+001
1.394189e+003,5.115540e+001
1.395153e+003,4.859033e+001
1.396117e+003,4.911133e+001
1.397082e+003,5.107629e+001
1.398046e+003,5.376892e+001
1.399010e+003,5.655701e+001
1.399974e+003,5.834143e+001
1.400938e+003,5.857874e+001
1.401903e+003,5.818066e+001
1.402867e+003,5.902856e+001
1.403831e+003,6.138586e+001
1.404795e+003,6.563306e+001
1.405760e+003,6.870471e+001
1.406724e+003,6.746460e+001
1.407688e+003,6.314099e+001
1.408652e+003,5.766479e+001
1.409617e+003,5.277307e+001
1.410581e+003,5.150146e+001
1.411545e+003,5.556396e+001
1.412509e+003,6.048914e+001
1.413474e+003,6.092993e+001
1.414438e+003,5.869299e+001
1.415402e+003,5.880957e+001
1.416366e+003,6.158984e+001
1.417330e+003,6.392151e+001
1.418295e+003,6.462512e+001
1.419259e+003,6.447852e+001
1.420223e+003,6.335913e+001
1.421187e+003,6.112329e+001
1.422152e+003,6.023462e+001
1.423116e+003,6.183337e+001
1.424080e+003,6.438330e+001
1.425044e+003,6.727515e+001
1.426009e+003,6.955591e+001
1.426973e+003,7.132922e+001
1.427937e+003,7.187000e+001
1.428901e+003,6.933691e+001
1.429865e+003,6.513562e+001
1.430830e+003,6.380322e+001
1.431794e+003,6.789209e+001
1.432758e+003,7.453894e+001
1.433722e+003,7.916736e+001
1.434687e+003,8.286877e+001
1.435651e+003,8.722046e+001
1.436615e+003,8.899866e+001
1.437579e+003,9.044031e+001
1.438544e+003,9.266235e+001
1.439508e+003,9.441882e+001
1.440472e+003,9.606409e+001
1.441436e+003,9.730249e+001
1.442401e+003,9.599170e+001
1.443365e+003,9.184912e+001
1.444329e+003,8.969019e+001
1.445293e+003,9.423145e+001
1.446257e+003,1.005909e+002
1.447222e+003,9.695325e+001
1.448186e+003,8.571521e+001
1.449150e+003,8.197070e+001
1.450114e+003,8.914465e+001
1.451079e+003,9.379810e+001
1.452043e+003,8.590686e+001
1.453007e+003,7.507800e+001
1.453971e+003,7.554956e+001
1.454936e+003,8.535376e+001
1.455900e+003,9.075720e+001
1.456864e+003,8.857031e+001
1.457828e+003,8.467944e+001
1.458792e+003,7.999097e+001
1.459757e+003,7.609070e+001
1.460721e+003,7.469482e+001
1.461685e+003,7.502087e+001
1.462649e+003,7.589087e+001
1.463614e+003,7.720361e+001
1.464578e+003,7.876099e+001
1.465542e+003,8.015002e+001
1.466506e+003,8.090210e+001
1.467471e+003,8.045959e+001
1.468435e+003,7.942004e+001
1.469399e+003,7.920471e+001
1.470363e+003,7.823254e+001
1.471328e+003,7.842700e+001
1.472292e+003,8.049390e+001
1.473256e+003,8.188257e+001
1.474220e+003,8.081567e+001
1.475184e+003,7.956555e+001
1.476149e+003,8.229175e+001
1.477113e+003,8.912964e+001
1.478077e+003,9.497900e+001
1.479041e+003,9.547009e+001
1.480006e+003,9.315039e+001
1.480970e+003,9.477844e+001
1.481934e+003,1.010435e+002
1.482898e+003,1.043217e+002
1.483863e+003,1.014390e+002
1.484827e+003,9.995593e+001
1.485791e+003,1.036362e+002
1.486755e+003,1.094354e+002
1.487719e+003,1.145331e+002
1.488684e+003,1.183285e+002
1.489648e+003,1.206670e+002
1.490612e+003,1.220389e+002
1.491576e+003,1.252045e+002
1.492541e+003,1.323171e+002
1.493505e+003,1.417002e+002
1.494469e+003,1.498850e+002
1.495433e+003,1.563040e+002
1.496398e+003,1.635352e+002
1.497362e+003,1.734564e+002
1.498326e+003,1.838641e+002
1.499290e+003,1.928922e+002
1.500255e+003,2.019445e+002
1.501219e+003,2.120480e+002
1.502183e+003,2.232695e+002
1.503147e+003,2.366344e+002
1.504111e+003,2.519447e+002
1.505076e+003,2.715542e+002
1.506040e+003,2.974113e+002
1.507004e+003,3.283333e+002
1.507968e+003,3.642311e+002
1.508933e+003,4.033699e+002
1.509897e+003,4.409045e+002
1.510861e+003,4.777307e+002
1.511825e+003,5.225190e+002
1.512790e+003,5.811605e+002
1.513754e+003,6.487159e+002
1.514718e+003,7.186328e+002
1.515682e+003,7.899768e+002
1.516646e+003,8.585669e+002
1.517611e+003,9.266044e+002
1.518575e+003,9.882299e+002
1.519539e+003,1.043802e+003
1.520503e+003,1.092055e+003
1.521468e+003,1.136537e+003
1.522432e+003,1.170060e+003
1.523396e+003,1.181289e+003
1.524360e+003,1.170647e+003
1.525325e+003,1.149215e+003
1.526289e+003,1.124631e+003
1.527253e+003,1.095283e+003
1.528217e+003,1.057643e+003
1.529182e+003,1.012427e+003
1.530146e+003,9.617822e+002
1.531110e+003,9.070535e+002
1.532074e+003,8.419589e+002
1.533039e+003,7.595756e+002
1.534003e+003,6.717561e+002
1.534967e+003,5.788838e+002
1.535931e+003,4.903660e+002
1.536896e+003,4.146166e+002
1.537860e+003,3.528690e+002
1.538824e+003,3.029509e+002
1.539788e+003,2.628882e+002
1.540752e+003,2.292827e+002
1.541717e+003,1.979504e+002
1.542681e+003,1.704484e+002
1.543645e+003,1.532590e+002
1.544609e+003,1.526045e+002
1.545573e+003,1.492905e+002
1.546538e+003,1.401840e+002
1.547502e+003,1.300721e+002
1.548466e+003,1.203064e+002
1.549430e+003,1.129089e+002
1.550395e+003,1.097880e+002
1.551359e+003,1.095634e+002
1.552323e+003,1.098275e+002
1.553287e+003,1.096478e+002
1.554252e+003,1.072343e+002
1.555216e+003,1.002701e+002
1.556180e+003,9.162341e+001
1.557144e+003,8.888977e+001
1.558109e+003,9.264734e+001
1.559073e+003,9.288269e+001
1.560037e+003,8.662524e+001
1.561001e+003,7.981580e+001
1.561966e+003,7.458130e+001
1.562930e+003,7.182520e+001
1.563894e+003,7.311438e+001
1.564858e+003,7.622681e+001
1.565823e+003,7.591992e+001
1.566787e+003,7.131555e+001
1.567751e+003,6.755908e+001
1.568715e+003,6.812048e+001
1.569679e+003,7.005127e+001
1.570644e+003,6.872388e+001
1.571608e+003,6.513538e+001
1.572572e+003,6.385474e+001
1.573536e+003,6.559680e+001
1.574500e+003,6.880054e+001
1.575465e+003,7.390686e+001
1.576429e+003,7.812549e+001
1.577393e+003,7.776868e+001
1.578357e+003,7.495056e+001
1.579322e+003,7.435767e+001
1.580286e+003,7.652026e+001
1.581250e+003,8.016772e+001
1.582214e+003,8.553259e+001
1.583179e+003,8.990747e+001
1.584143e+003,9.089465e+001
1.585107e+003,8.915112e+001
1.586071e+003,8.571863e+001
1.587036e+003,8.236572e+001
1.588000e+003,8.217236e+001
1.588964e+003,8.537598e+001
1.589928e+003,8.781885e+001
1.590893e+003,8.637573e+001
1.591857e+003,8.333252e+001
1.592821e+003,8.182996e+001
1.593785e+003,8.194861e+001
1.594750e+003,8.351221e+001
1.595714e+003,8.642529e+001
1.596678e+003,8.849243e+001
1.597642e+003,8.808228e+001
1.598606e+003,8.792969e+001
1.599571e+003,9.122864e+001
1.600535e+003,9.599805e+001
1.601499e+003,9.984619e+001
1.602463e+003,1.022109e+002
1.603427e+003,1.026152e+002
1.604392e+003,1.007427e+002
1.605356e+003,9.849133e+001
1.606320e+003,9.851331e+001
1.607284e+003,9.949707e+001
1.608249e+003,9.745789e+001
1.609213e+003,9.234155e+001
1.610177e+003,8.538879e+001
1.611141e+003,7.475610e+001
1.612106e+003,6.748474e+001
1.613070e+003,6.995374e+001
1.614034e+003,7.422571e+001
1.614998e+003,7.538501e+001
1.615963e+003,7.414221e+001
1.616927e+003,7.108594e+001
1.617891e+003,6.668127e+001
1.618855e+003,6.325159e+001
1.619820e+003,6.197559e+001
1.620784e+003,6.072974e+001
1.621748e+003,5.796326e+001
1.622712e+003,5.496167e+001
1.623677e+003,5.212561e+001
1.624641e+003,4.921521e+001
1.625605e+003,4.859485e+001
1.626569e+003,4.961572e+001
1.627533e+003,5.071655e+001
1.628498e+003,5.330737e+001
1.629462e+003,5.568909e+001
1.630426e+003,5.524512e+001
1.631390e+003,5.329517e+001
1.632354e+003,5.365186e+001
1.633319e+003,5.680286e+001
1.634283e+003,5.834485e+001
1.635247e+003,5.431995e+001
1.636211e+003,4.848059e+001
1.637176e+003,4.870898e+001
1.638140e+003,5.486243e+001
1.639104e+003,5.941748e+001
1.640068e+003,6.236401e+001
1.641033e+003,6.117505e+001
1.641997e+003,5.167566e+001
1.642961e+003,4.381787e+001
1.643925e+003,4.232166e+001
1.644890e+003,4.457202e+001
1.645854e+003,4.927612e+001
1.646818e+003,5.496643e+001
1.647782e+003,5.922095e+001
1.648747e+003,6.124951e+001
1.649711e+003,6.234241e+001
1.650675e+003,6.440173e+001
1.651639e+003,6.611560e+001
1.652604e+003,6.238708e+001
1.653568e+003,5.309460e+001
1.654532e+003,4.851880e+001
1.655496e+003,5.087415e+001
1.656460e+003,5.190027e+001
1.657425e+003,4.805481e+001
1.658389e+003,4.472058e+001
1.659353e+003,4.552747e+001
1.660317e+003,4.760156e+001
1.661281e+003,4.778284e+001
1.662246e+003,4.614539e+001
1.663210e+003,4.426758e+001
1.664174e+003,4.301550e+001
1.665138e+003,4.291064e+001
1.666103e+003,4.464917e+001
1.667067e+003,4.628918e+001
1.668031e+003,4.342419e+001
1.668995e+003,3.676038e+001
1.669960e+003,3.422400e+001
1.670924e+003,3.778674e+001
1.671888e+003,4.042212e+001
1.672852e+003,3.868616e+001
1.673817e+003,3.646863e+001
1.674781e+003,3.596228e+001
1.675745e+003,3.634290e+001
1.676709e+003,3.683142e+001
1.677674e+003,3.732654e+001
1.678638e+003,3.802161e+001
1.679602e+003,3.897791e+001
1.680566e+003,3.942383e+001
1.681531e+003,3.902490e+001
1.682495e+003,3.850378e+001
1.683459e+003,3.848706e+001
1.684423e+003,3.830701e+001
1.685387e+003,3.635938e+001
1.686352e+003,3.243958e+001
1.687316e+003,2.962915e+001
1.688280e+003,2.912488e+001
1.689244e+003,2.946191e+001
1.690208e+003,3.004590e+001
1.691173e+003,3.012598e+001
1.692137e+003,2.815930e+001
1.693101e+003,2.586194e+001
1.694065e+003,2.746533e+001
1.695030e+003,3.342749e+001
1.695994e+003,3.842639e+001
1.696958e+003,4.001843e+001
1.697922e+003,3.883813e+001
1.698887e+003,3.412769e+001
1.699851e+003,2.774609e+001
1.700815e+003,2.475403e+001
1.701779e+003,2.518372e+001
1.702744e+003,2.682239e+001
1.703708e+003,3.018628e+001
1.704672e+003,3.360486e+001
1.705636e+003,3.481067e+001
1.706601e+003,3.409167e+001
1.707565e+003,3.325708e+001
1.708529e+003,3.265503e+001
1.709493e+003,3.140869e+001
1.710458e+003,2.924597e+001
1.711422e+003,2.679858e+001
1.712386e+003,2.406067e+001
1.713350e+003,2.273669e+001
1.714314e+003,2.383276e+001
1.715279e+003,2.592969e+001
1.716243e+003,2.792407e+001
1.717207e+003,2.954004e+001
1.718171e+003,2.980579e+001
1.719135e+003,2.863452e+001
1.720100e+003,2.697546e+001
1.721064e+003,2.524780e+001
1.722028e+003,2.252942e+001
1.722992e+003,1.708154e+001
1.723957e+003,1.097571e+001
1.724921e+003,1.216443e+001
1.725885e+003,2.108423e+001
1.726849e+003,2.506287e+001
1.727814e+003,2.089087e+001
1.728778e+003,1.620081e+001
1.729742e+003,1.231152e+001
1.730706e+003,1.051086e+001
1.731671e+003,1.316760e+001
1.732635e+003,1.691833e+001
1.733599e+003,1.613611e+001
1.734563e+003,1.124329e+001
1.735528e+003,6.916138e+000
1.736492e+003,5.263306e+000
1.737456e+003,6.325317e+000
1.738420e+003,1.066711e+001
1.739385e+003,1.611584e+001
1.740349e+003,1.691309e+001
1.741313e+003,1.265674e+001
1.742277e+003,8.853271e+000
1.743241e+003,6.066284e+000
1.744206e+003,4.149048e+000
1.745170e+003,1.401367e+000
1.746134e+003,6.072998e-001
1.747098e+003,5.012817e+000
1.748063e+003,1.078394e+001
1.749027e+003,1.389270e+001
1.749991e+003,1.441675e+001
1.750955e+003,1.373401e+001
1.751919e+003,1.248853e+001
1.752884e+003,1.150208e+001
1.753848e+003,1.147217e+001
1.754812e+003,1.156421e+001
1.755776e+003,1.060449e+001
1.756741e+003,9.340820e+000
1.757705e+003,8.888184e+000
1.758669e+003,8.727295e+000
1.759633e+003,8.999146e+000
1.760598e+003,1.084399e+001
1.761562e+003,1.017456e+001
1.762526e+003,3.111450e+000
1.763490e+003,-2.585571e+000
1.764455e+003,1.285767e+000
1.765419e+003,8.995728e+000
1.766383e+003,9.609985e+000
1.767347e+003,2.959717e+000
1.768312e+003,-1.433472e+000
1.769276e+003,7.252197e-001
1.770240e+003,4.261597e+000
1.771204e+003,4.990723e+000
1.772168e+003,4.562744e+000
1.773133e+003,5.066650e+000
1.774097e+003,6.339722e+000
1.775061e+003,7.041870e+000
1.776025e+003,6.188477e+000
1.776990e+003,4.644165e+000
1.777954e+003,2.695679e+000
1.778918e+003,2.939453e+000
1.779882e+003,8.511719e+000
1.780846e+003,1.480933e+001
1.781811e+003,1.617480e+001
1.782775e+003,1.403369e+001
1.783739e+003,1.227478e+001
1.784703e+003,1.167810e+001
1.785668e+003,1.194080e+001
1.786632e+003,1.297937e+001
1.787596e+003,1.277649e+001
1.788560e+003,1.044446e+001
1.789525e+003,7.718384e+000
1.790489e+003,5.247925e+000
1.791453e+003,3.210083e+000
1.792417e+003,3.133423e+000
1.793382e+003,5.229126e+000
1.794346e+003,8.088623e+000
1.795310e+003,1.104346e+001
1.796274e+003,1.179004e+001
1.797239e+003,7.500977e+000
1.798203e+003,1.572876e+000
1.799167e+003,2.435303e+000
1.800131e+003,1.040796e+001
1.801095e+003,1.124573e+001
1.802060e+003,2.406006e-001
1.803024e+003,-6.463501e+000
1.803988e+003,-6.332153e+000
1.804952e+003,-4.007446e+000
1.805917e+003,1.478271e-001
1.806881e+003,3.838623e+000
1.807845e+003,4.499268e+000
1.808809e+003,3.733887e+000
1.809773e+003,5.431885e+000
1.810738e+003,9.749023e+000
1.811702e+003,1.237463e+001
1.812666e+003,1.058655e+001
1.813630e+003,7.174927e+000
1.814595e+003,5.863770e+000
1.815559e+003,5.905273e+000
1.816523e+003,5.117310e+000
1.817487e+003,3.551392e+000
1.818452e+003,2.984985e+000
1.819416e+003,4.783936e+000
1.820380e+003,6.081421e+000
1.821344e+003,4.650513e+000
1.822309e+003,2.958008e+000
1.823273e+003,3.241211e+000
1.824237e+003,4.530396e+000
1.825201e+003,5.098267e+000
1.826166e+003,5.200073e+000
1.827130e+003,6.890381e+000
1.828094e+003,1.010034e+001
1.829058e+003,1.025610e+001
1.830022e+003,4.037598e+000
1.830987e+003,-1.982788e+000
1.831951e+003,-1.768066e+000
1.832915e+003,1.535034e+000
1.833879e+003,4.334839e+000
1.834844e+003,5.962280e+000
1.835808e+003,4.389771e+000
1.836772e+003,-3.979492e-002
1.837736e+003,-2.738647e+000
1.838700e+003,-2.066284e+000
1.839665e+003,-5.700684e-002
1.840629e+003,2.204224e+000
1.841593e+003,3.861816e+000
1.842557e+003,2.074707e+000
1.843522e+003,-3.118774e+000
1.844486e+003,-5.583740e+000
1.845450e+003,-2.270264e+000
1.846414e+003,-3.833008e-002
1.847379e+003,-1.473022e+000
1.848343e+003,-3.121460e+000
1.849307e+003,-3.746582e+000
1.850271e+003,-3.560181e+000
1.851236e+003,-1.256836e+000
1.852200e+003,1.565918e+000
1.853164e+003,1.196777e+000
1.854128e+003,-2.188843e+000
1.855093e+003,-4.149048e+000
1.856057e+003,-2.625854e+000
1.857021e+003,-1.458862e+000
1.857985e+003,-4.472290e+000
1.858949e+003,-9.367554e+000
1.859914e+003,-1.258118e+001
1.860878e+003,-1.372681e+001
1.861842e+003,-1.141467e+001
1.862806e+003,-5.844604e+000
1.863771e+003,2.250977e-001
1.864735e+003,7.078491e+000
1.865699e+003,8.767578e+000
1.866663e+003,-2.919922e-001
1.867627e+003,-7.916382e+000
1.868592e+003,-7.929688e-001
1.869556e+003,1.170435e+001
1.870520e+003,1.172156e+001
1.871484e+003,1.403076e+000
1.872449e+003,-4.007446e+000
1.873413e+003,3.055420e-001
1.874377e+003,5.701782e+000
1.875341e+003,8.012939e+000
1.876306e+003,9.049438e+000
1.877270e+003,9.783081e+000
1.878234e+003,9.167969e+000
1.879198e+003,5.385010e+000
1.880163e+003,4.327393e-001
1.881127e+003,-1.730103e+000
1.882091e+003,-1.089600e+000
1.883055e+003,-9.180908e-001
1.884020e+003,-2.585205e+000
1.884984e+003,-4.135376e+000
1.885948e+003,-3.712524e+000
1.886912e+003,-2.352661e+000
1.887876e+003,-2.106445e+000
1.888841e+003,-2.740601e+000
1.889805e+003,-2.539307e+000
1.890769e+003,-1.469482e+000
1.891733e+003,4.171143e-001
1.892698e+003,3.186279e+000
1.893662e+003,5.094971e+000
1.894626e+003,6.814575e+000
1.895590e+003,6.412598e+000
1.896554e+003,1.248779e-001
1.897519e+003,-6.429443e+000
1.898483e+003,-6.008545e+000
1.899447e+003,-1.211304e+000
1.900411e+003,5.426025e-001
1.901376e+003,-1.786987e+000
1.902340e+003,-4.503662e+000
1.903304e+003,-6.921265e+000
1.904268e+003,-8.617065e+000
1.905233e+003,-9.236206e+000
1.906197e+003,-8.498413e+000
1.907161e+003,-4.763672e+000
1.908125e+003,1.818848e-001
1.909090e+003,1.750488e+000
1.910054e+003,2.180176e-001
1.911018e+003,8.784180e-001
1.911982e+003,5.431885e+000
1.912947e+003,9.114990e+000
1.913911e+003,8.207153e+000
1.914875e+003,4.832153e+000
1.915839e+003,1.733887e+000
1.916803e+003,-1.272217e+000
1.917768e+003,-1.855835e+000
1.918732e+003,7.631836e-001
1.919696e+003,4.750854e+000
1.920660e+003,1.188672e+001
1.921625e+003,1.647095e+001
1.922589e+003,1.500366e+001
1.923553e+003,1.333289e+001
1.924517e+003,1.622302e+001
1.925481e+003,1.891284e+001
1.926446e+003,1.566150e+001
1.927410e+003,9.848999e+000
1.928374e+003,8.827271e+000
1.929338e+003,1.211633e+001
1.930303e+003,1.200586e+001
1.931267e+003,6.483276e+000
1.932231e+003,1.839722e+000
1.933195e+003,-2.154541e-001
1.934160e+003,-9.353027e-001
1.935124e+003,-9.619141e-001
1.936088e+003,-8.482666e-001
1.937052e+003,4.084473e-001
1.938017e+003,2.026123e+000
1.938981e+003,6.336670e-001
1.939945e+003,-3.384277e+000
1.940909e+003,-4.922607e+000
1.941874e+003,-2.164673e+000
1.942838e+003,4.760742e-002
1.943802e+003,-2.220093e+000
1.944766e+003,-5.897461e+000
1.945730e+003,-6.252686e+000
1.946695e+003,-4.311768e+000
1.947659e+003,-4.364136e+000
1.948623e+003,-6.961792e+000
1.949587e+003,-7.315796e+000
1.950552e+003,-3.812744e+000
1.951516e+003,-7.613525e-001
1.952480e+003,6.213379e-001
1.953444e+003,6.422119e-001
1.954408e+003,-1.547363e+000
1.955373e+003,-4.937134e+000
1.956337e+003,-7.721680e+000
1.957301e+003,-8.901123e+000
1.958265e+003,-7.574585e+000
1.959230e+003,-3.320190e+000
1.960194e+003,9.581299e-001
1.961158e+003,4.466187e+000
1.962122e+003,5.874146e+000
1.963087e+003,4.653687e+000
1.964051e+003,1.884888e+000
1.965015e+003,-2.663086e+000
1.965979e+003,-6.217651e+000
1.966944e+003,-6.843384e+000
1.967908e+003,-5.564087e+000
1.968872e+003,-3.397583e+000
1.969836e+003,-8.188477e-001
1.970801e+003,1.251831e+000
1.971765e+003,2.546021e+000
1.972729e+003,3.842896e+000
1.973693e+003,5.821045e+000
1.974657e+003,7.836060e+000
1.975622e+003,8.916138e+000
1.976586e+003,8.727661e+000
1.977550e+003,6.565430e+000
1.978514e+003,3.290649e+000
1.979479e+003,2.403198e+000
1.980443e+003,4.083252e+000
1.981407e+003,5.268188e+000
1.982371e+003,5.176636e+000
1.983335e+003,3.594116e+000
1.984300e+003,-4.500732e-001
1.985264e+003,-4.894897e+000
1.986228e+003,-5.673096e+000
1.987192e+003,-3.954346e+000
1.988157e+003,-6.102905e+000
1.989121e+003,-1.369043e+001
1.990085e+003,-1.510962e+001
1.991049e+003,-6.143555e+000
1.992014e+003,1.412720e+000
1.992978e+003,5.925293e+000
1.993942e+003,8.234375e+000
1.994906e+003,7.854980e+000
1.995871e+003,6.279175e+000
1.996835e+003,3.740967e+000
1.997799e+003,1.716064e+000
1.998763e+003,1.310181e+000
1.999728e+003,2.499634e+000
