5.003444e+002,4.771106e+001
5.013087e+002,4.797272e+001
5.022729e+002,4.522461e+001
5.032371e+002,4.085211e+001
5.042014e+002,3.777576e+001
5.051656e+002,3.598755e+001
5.061298e+002,3.540826e+001
5.070941e+002,3.604596e+001
5.080583e+002,3.814563e+001
5.090225e+002,3.841162e+001
5.099868e+002,3.562231e+001
5.109510e+002,3.286249e+001
5.119152e+002,3.168286e+001
5.128795e+002,3.225488e+001
5.138437e+002,3.349310e+001
5.148079e+002,3.608948e+001
5.157722e+002,3.853534e+001
5.167364e+002,4.028723e+001
5.177006e+002,4.098785e+001
5.186649e+002,4.035748e+001
5.196291e+002,3.744427e+001
5.205933e+002,3.432129e+001
5.215576e+002,3.251086e+001
5.225218e+002,3.189539e+001
5.234860e+002,3.205505e+001
5.244503e+002,3.280804e+001
5.254145e+002,3.509125e+001
5.263787e+002,3.617694e+001
5.273430e+002,3.496082e+001
5.283072e+002,3.329932e+001
5.292714e+002,3.394562e+001
5.302357e+002,3.846515e+001
5.311999e+002,4.021051e+001
5.321641e+002,3.791412e+001
5.331284e+002,3.459039e+001
5.340926e+002,3.230585e+001
5.350568e+002,3.161865e+001
5.360211e+002,3.077228e+001
5.369853e+002,2.858514e+001
5.379495e+002,2.618646e+001
5.389138e+002,2.419727e+001
5.398780e+002,2.282733e+001
5.408422e+002,2.189929e+001
5.418065e+002,2.112207e+001
5.427707e+002,2.052173e+001
5.437349e+002,2.065839e+001
5.446992e+002,2.177594e+001
5.456634e+002,2.353082e+001
5.466276e+002,2.490869e+001
5.475919e+002,2.609698e+001
5.485561e+002,2.692004e+001
5.495203e+002,2.732172e+001
5.504846e+002,2.700067e+001
5.514488e+002,2.559698e+001
5.524130e+002,2.282990e+001
5.533773e+002,1.997992e+001
5.543415e+002,1.711462e+001
5.553057e+002,1.479968e+001
5.562700e+002,1.365039e+001
5.572342e+002,1.397235e+001
5.581984e+002,1.511804e+001
5.591627e+002,1.605847e+001
5.601269e+002,1.709821e+001
5.610911e+002,1.843683e+001
5.620554e+002,2.009430e+001
5.630196e+002,2.172308e+001
5.639838e+002,2.175049e+001
5.649481e+002,1.935284e+001
5.659123e+002,1.664899e+001
5.668765e+002,1.401050e+001
5.678408e+002,1.191675e+001
5.688050e+002,1.104742e+001
5.697692e+002,1.171747e+001
5.707335e+002,1.206152e+001
5.716977e+002,1.172968e+001
5.726619e+002,1.104407e+001
5.736262e+002,1.021094e+001
5.745904e+002,9.214661e+000
5.755546e+002,9.281494e+000
5.765189e+002,1.345764e+001
5.774831e+002,1.896393e+001
5.784473e+002,2.083069e+001
5.794116e+002,1.590540e+001
5.803758e+002,5.381653e+000
5.813400e+002,8.684692e-001
5.823043e+002,2.918030e+000
5.832685e+002,5.301086e+000
5.842327e+002,6.536499e+000
5.851970e+002,7.078918e+000
5.861612e+002,7.925476e+000
5.871254e+002,9.159302e+000
5.880897e+002,1.003229e+001
5.890539e+002,1.022858e+001
5.900181e+002,9.732666e+000
5.909824e+002,8.433289e+000
5.919466e+002,5.822083e+000
5.929108e+002,3.995789e+000
5.938751e+002,5.825317e+000
5.948393e+002,9.411560e+000
5.958035e+002,1.168237e+001
5.967678e+002,1.050336e+001
5.977320e+002,6.771362e+000
5.986962e+002,6.604248e+000
5.996605e+002,9.591980e+000
6.006247e+002,1.141534e+001
6.015889e+002,9.138794e+000
6.025532e+002,3.254395e+000
6.035174e+002,2.262573e-001
6.044816e+002,3.337280e+000
6.054459e+002,6.227173e+000
6.064101e+002,8.199097e+000
6.073743e+002,9.270691e+000
6.083386e+002,9.697510e+000
6.093028e+002,9.464539e+000
6.102670e+002,9.137390e+000
6.112313e+002,9.157898e+000
6.121955e+002,9.244995e+000
6.131597e+002,8.951233e+000
6.141240e+002,7.967773e+000
6.150882e+002,6.498718e+000
6.160524e+002,5.537048e+000
6.170167e+002,5.220459e+000
6.179809e+002,5.994385e+000
6.189451e+002,8.307068e+000
6.199094e+002,1.155096e+001
6.208736e+002,1.277069e+001
6.218378e+002,1.033337e+001
6.228021e+002,8.584045e+000
6.237663e+002,8.410217e+000
6.247305e+002,9.170166e+000
6.256948e+002,9.638123e+000
6.266590e+002,9.021851e+000
6.276232e+002,7.555237e+000
6.285875e+002,5.076599e+000
6.295517e+002,2.891602e+000
6.305159e+002,2.690125e+000
6.314802e+002,5.108948e+000
6.324444e+002,8.332764e+000
6.334086e+002,7.462769e+000
6.343729e+002,4.079468e+000
6.353371e+002,7.515259e-001
6.363013e+002,-1.890076e+000
6.372656e+002,-3.895447e+000
6.382298e+002,-5.036804e+000
6.391940e+002,-5.151367e+000
6.401583e+002,-4.719360e+000
6.411225e+002,-2.438416e+000
6.420867e+002,6.845093e-001
6.430510e+002,3.158325e+000
6.440152e+002,4.149536e+000
6.449794e+002,4.215088e+000
6.459437e+002,4.180664e+000
6.469079e+002,3.325928e+000
6.478721e+002,3.387451e-001
6.488364e+002,-4.677490e+000
6.498006e+002,-9.311035e+000
6.507648e+002,-8.851868e+000
6.517291e+002,-5.022888e+000
6.526933e+002,-1.250000e+000
6.536575e+002,1.864624e+000
6.546218e+002,4.182129e+000
6.555860e+002,5.454346e+000
6.565502e+002,5.045959e+000
6.575145e+002,4.639160e+000
6.584787e+002,4.539673e+000
6.594429e+002,4.282898e+000
6.604072e+002,3.209656e+000
6.613714e+002,1.088928e+000
6.623356e+002,-1.826782e-001
6.632999e+002,1.568237e+000
6.642641e+002,2.693481e+000
6.652283e+002,5.948486e-001
6.661926e+002,-3.928284e+000
6.671568e+002,-7.417847e+000
6.681210e+002,-5.340271e+000
6.690853e+002,-1.377563e-001
6.700495e+002,1.693542e+000
6.710137e+002,2.395630e-001
6.719780e+002,-1.589722e+000
6.729422e+002,-6.393433e-001
6.739064e+002,3.691406e+000
6.748707e+002,6.102905e+000
6.758349e+002,6.431946e+000
6.767991e+002,5.511169e+000
6.777634e+002,3.411072e+000
6.787276e+002,7.065430e-001
6.796918e+002,-8.559570e-001
6.806561e+002,-1.881714e-001
6.816203e+002,3.848267e-001
6.825845e+002,-1.055908e-002
6.835488e+002,-1.090149e+000
6.845130e+002,-2.655945e+000
6.854772e+002,-4.716919e+000
6.864415e+002,-5.462463e+000
6.874057e+002,-1.452026e-001
6.883699e+002,8.458374e+000
6.893342e+002,1.432135e+001
6.902984e+002,1.411664e+001
6.912626e+002,8.752197e+000
6.922269e+002,3.525330e+000
6.931911e+002,-2.459717e+000
6.941553e+002,-5.594055e+000
6.951196e+002,-4.791382e+000
6.960838e+002,-2.071777e+000
6.970480e+002,-2.225952e-001
6.980123e+002,1.617432e-001
6.989765e+002,3.755493e-001
6.999407e+002,1.150330e+000
7.009050e+002,1.773193e+000
7.018692e+002,1.352539e+000
7.028334e+002,-3.039551e-001
7.037977e+002,-2.211609e+000
7.047619e+002,-2.166199e+000
7.057261e+002,-8.102417e-001
7.066904e+002,-1.935425e-001
7.076546e+002,-6.775513e-001
7.086188e+002,-1.851501e+000
7.095831e+002,-3.145691e+000
7.105473e+002,-5.017151e+000
7.115115e+002,-6.284851e+000
7.124758e+002,-7.473572e+000
7.134400e+002,-8.030029e+000
7.144042e+002,-6.924927e+000
7.153685e+002,-4.053772e+000
7.163327e+002,-1.733826e+000
7.172969e+002,-1.452759e+000
7.182612e+002,-1.495361e+000
7.192254e+002,-1.429871e+000
7.201896e+002,-1.386780e+000
7.211539e+002,-1.579651e+000
7.221181e+002,-2.073975e+000
7.230823e+002,-3.092163e+000
7.240466e+002,-6.067261e+000
7.250108e+002,-9.914978e+000
7.259750e+002,-1.106726e+001
7.269393e+002,-7.386475e+000
7.279035e+002,-2.229004e-001
7.288677e+002,3.221741e+000
7.298320e+002,7.984009e-001
7.307962e+002,-9.248657e-001
7.317604e+002,-1.589478e+000
7.327247e+002,-1.190552e+000
7.336889e+002,1.457520e-001
7.346531e+002,2.110657e+000
7.356174e+002,2.858093e+000
7.365816e+002,1.972351e+000
7.375458e+002,9.448853e-001
7.385101e+002,8.569946e-001
7.394743e+002,1.929138e+000
7.404385e+002,3.526672e+000
7.414028e+002,4.685364e+000
7.423670e+002,4.326965e+000
7.433312e+002,2.279297e+000
7.442955e+002,-9.483643e-001
7.452597e+002,-3.441040e+000
7.462239e+002,-3.230408e+000
7.471882e+002,2.177734e-001
7.481524e+002,3.152954e+000
7.491166e+002,4.143860e+000
7.500809e+002,4.941528e+000
7.510451e+002,7.308411e+000
7.520093e+002,1.026459e+001
7.529736e+002,1.017859e+001
7.539378e+002,3.747253e+000
7.549020e+002,-2.416138e+000
7.558663e+002,-4.350342e+000
7.568306e+002,-3.520203e+000
7.577948e+002,-1.756165e+000
7.587590e+002,-4.302979e-001
7.597233e+002,-4.876709e-002
7.606875e+002,-2.024109e+000
7.616517e+002,-5.597778e+000
7.626160e+002,-6.233154e+000
7.635802e+002,-1.460571e+000
7.645444e+002,5.750549e+000
7.655087e+002,8.760010e+000
7.664729e+002,4.651855e+000
7.674371e+002,2.204102e+000
7.684014e+002,3.487732e+000
7.693656e+002,4.850830e+000
7.703298e+002,3.230347e+000
7.712941e+002,-1.255676e+000
7.722583e+002,-4.339478e+000
7.732225e+002,-1.650330e+000
7.741868e+002,2.574280e+000
7.751510e+002,5.575439e+000
7.761152e+002,7.214661e+000
7.770795e+002,7.808716e+000
7.780437e+002,7.552002e+000
7.790079e+002,6.430908e+000
7.799722e+002,5.568604e+000
7.809364e+002,5.099487e+000
7.819006e+002,4.006775e+000
7.828649e+002,1.415222e+000
7.838291e+002,-1.627747e+000
7.847933e+002,-2.136963e+000
7.857576e+002,1.867249e+000
7.867218e+002,3.635559e+000
7.876860e+002,8.027954e-001
7.886503e+002,-2.626221e+000
7.896145e+002,-2.819702e+000
7.905787e+002,9.969482e-001
7.915430e+002,5.047546e+000
7.925072e+002,4.493774e+000
7.934714e+002,1.450562e+000
7.944357e+002,-1.842102e+000
7.953999e+002,-4.556030e+000
7.963641e+002,-5.934509e+000
7.973284e+002,-5.210449e+000
7.982926e+002,-2.148621e+000
7.992568e+002,-1.690735e+000
8.002211e+002,-7.009583e+000
8.011853e+002,-1.116772e+001
8.021495e+002,-9.939575e+000
8.031138e+002,-4.054871e+000
8.040780e+002,1.716614e+000
8.050422e+002,6.155762e+000
8.060065e+002,9.416992e+000
8.069707e+002,1.229327e+001
8.079349e+002,1.327106e+001
8.088992e+002,9.630493e+000
8.098634e+002,1.295166e+000
8.108276e+002,-6.509827e+000
8.117919e+002,-5.219482e+000
8.127561e+002,5.216675e-001
8.137203e+002,3.062317e+000
8.146846e+002,2.030884e+000
8.156488e+002,-5.968018e-001
8.166130e+002,-3.000549e+000
8.175773e+002,-5.597290e+000
8.185415e+002,-6.221741e+000
8.195057e+002,-5.435486e+000
8.204700e+002,-3.426331e+000
8.214342e+002,1.596375e+000
8.223984e+002,7.812927e+000
8.233627e+002,1.009167e+001
8.243269e+002,4.544739e+000
8.252911e+002,-4.281616e-001
8.262554e+002,3.679810e-001
8.272196e+002,3.749512e+000
8.281838e+002,6.846497e+000
8.291481e+002,8.343811e+000
8.301123e+002,8.529419e+000
8.310765e+002,7.697754e+000
8.320408e+002,5.758484e+000
8.330050e+002,3.737671e+000
8.339692e+002,1.574951e+000
8.349335e+002,1.079712e-001
8.358977e+002,8.104858e-001
8.368619e+002,4.443298e+000
8.378262e+002,6.761963e+000
8.387904e+002,5.113892e+000
8.397546e+002,4.248840e+000
8.407189e+002,6.501160e+000
8.416831e+002,1.015082e+001
8.426473e+002,1.179382e+001
8.436116e+002,9.528259e+000
8.445758e+002,7.034302e+000
8.455400e+002,7.743225e+000
8.465043e+002,9.608826e+000
8.474685e+002,1.122540e+001
8.484327e+002,1.251282e+001
8.493970e+002,1.424103e+001
8.503612e+002,1.719568e+001
8.513254e+002,2.166406e+001
8.522897e+002,2.229541e+001
8.532539e+002,1.674231e+001
8.542181e+002,1.030109e+001
8.551824e+002,6.300964e+000
8.561466e+002,5.051941e+000
8.571108e+002,4.978149e+000
8.580751e+002,4.461121e+000
8.590393e+002,4.495178e+000
8.600035e+002,6.546204e+000
8.609678e+002,9.555054e+000
8.619320e+002,1.238373e+001
8.628962e+002,1.444556e+001
8.638605e+002,1.570587e+001
8.648247e+002,1.525897e+001
8.657889e+002,1.424048e+001
8.667532e+002,1.602106e+001
8.677174e+002,2.101251e+001
8.686816e+002,2.601135e+001
8.696459e+002,2.725604e+001
8.706101e+002,2.432507e+001
8.715743e+002,2.274969e+001
8.725386e+002,2.372546e+001
8.735028e+002,2.450378e+001
8.744670e+002,2.356671e+001
8.754313e+002,2.143799e+001
8.763955e+002,1.942914e+001
8.773597e+002,1.796075e+001
8.783240e+002,1.774866e+001
8.792882e+002,2.001575e+001
8.802524e+002,2.270020e+001
8.812167e+002,2.429291e+001
8.821809e+002,2.438501e+001
8.831451e+002,2.312689e+001
8.841094e+002,2.058081e+001
8.850736e+002,1.738031e+001
8.860378e+002,1.829272e+001
8.870021e+002,2.423077e+001
8.879663e+002,2.942480e+001
8.889305e+002,2.995715e+001
8.898948e+002,2.660736e+001
8.908590e+002,2.411230e+001
8.918232e+002,2.308539e+001
8.927875e+002,2.345416e+001
8.937517e+002,2.608301e+001
8.947159e+002,2.928973e+001
8.956802e+002,3.171179e+001
8.966444e+002,3.264227e+001
8.976086e+002,3.179376e+001
8.985729e+002,2.840210e+001
8.995371e+002,2.456793e+001
9.005013e+002,2.343933e+001
9.014656e+002,2.488379e+001
9.024298e+002,2.673431e+001
9.033940e+002,2.698328e+001
9.043583e+002,2.564807e+001
9.053225e+002,2.598822e+001
9.062867e+002,2.959393e+001
9.072510e+002,3.218384e+001
9.082152e+002,3.452698e+001
9.091794e+002,3.631976e+001
9.101437e+002,3.660559e+001
9.111079e+002,3.515137e+001
9.120721e+002,3.439404e+001
9.130364e+002,3.668231e+001
9.140006e+002,3.839801e+001
9.149648e+002,3.741010e+001
9.159291e+002,3.482532e+001
9.168933e+002,3.265430e+001
9.178575e+002,3.208295e+001
9.188218e+002,3.237061e+001
9.197860e+002,3.162823e+001
9.207502e+002,2.954584e+001
9.217145e+002,2.879065e+001
9.226787e+002,3.111285e+001
9.236429e+002,3.495758e+001
9.246072e+002,3.837360e+001
9.255714e+002,4.150977e+001
9.265356e+002,4.139337e+001
9.274999e+002,3.298633e+001
9.284641e+002,2.580023e+001
9.294283e+002,2.405817e+001
9.303926e+002,2.607416e+001
9.313568e+002,2.839655e+001
9.323210e+002,2.927728e+001
9.332853e+002,2.910425e+001
9.342495e+002,2.767468e+001
9.352137e+002,2.568335e+001
9.361780e+002,2.479852e+001
9.371422e+002,2.573206e+001
9.381064e+002,2.780414e+001
9.390707e+002,2.974896e+001
9.400349e+002,3.120386e+001
9.409991e+002,3.133911e+001
9.419634e+002,2.865576e+001
9.429276e+002,2.649811e+001
9.438918e+002,2.609558e+001
9.448561e+002,2.684875e+001
9.458203e+002,2.770575e+001
9.467845e+002,2.850262e+001
9.477488e+002,2.964777e+001
9.487130e+002,3.171362e+001
9.496772e+002,3.383191e+001
9.506415e+002,3.535242e+001
9.516057e+002,3.620721e+001
9.525699e+002,3.653052e+001
9.535342e+002,3.638312e+001
9.544984e+002,3.564941e+001
9.554626e+002,3.495532e+001
9.564269e+002,3.469952e+001
9.573911e+002,3.576648e+001
9.583553e+002,3.931390e+001
9.593196e+002,4.360645e+001
9.602838e+002,4.585382e+001
9.612480e+002,4.554712e+001
9.622123e+002,4.406744e+001
9.631765e+002,4.029584e+001
9.641407e+002,3.733362e+001
9.651050e+002,3.746729e+001
9.660692e+002,3.914044e+001
9.670334e+002,3.900629e+001
9.679977e+002,3.520673e+001
9.689619e+002,3.054474e+001
9.699261e+002,3.056128e+001
9.708904e+002,3.349133e+001
9.718546e+002,3.597992e+001
9.728188e+002,3.713770e+001
9.737831e+002,3.737714e+001
9.747473e+002,3.705774e+001
9.757115e+002,3.590662e+001
9.766758e+002,3.673352e+001
9.776400e+002,4.294385e+001
9.786042e+002,4.781525e+001
9.795685e+002,4.959027e+001
9.805327e+002,4.847308e+001
9.814969e+002,4.436206e+001
9.824612e+002,3.750653e+001
9.834254e+002,3.184692e+001
9.843896e+002,3.172949e+001
9.853539e+002,3.383258e+001
9.863181e+002,3.489978e+001
9.872823e+002,3.452277e+001
9.882466e+002,3.376270e+001
9.892108e+002,3.394458e+001
9.901750e+002,3.587457e+001
9.911393e+002,4.030554e+001
9.921035e+002,4.873492e+001
9.930677e+002,5.424103e+001
9.940320e+002,5.437073e+001
9.949962e+002,5.418408e+001
9.959604e+002,5.950684e+001
9.969247e+002,7.047113e+001
9.978889e+002,7.878259e+001
9.988531e+002,7.693817e+001
9.998174e+002,7.424341e+001
1.000782e+003,7.776532e+001
1.001746e+003,8.462421e+001
1.002710e+003,9.026672e+001
1.003674e+003,9.252155e+001
1.004639e+003,9.242883e+001
1.005603e+003,9.168652e+001
1.006567e+003,9.002563e+001
1.007531e+003,8.934473e+001
1.008495e+003,9.011371e+001
1.009460e+003,9.104779e+001
1.010424e+003,9.157965e+001
1.011388e+003,9.189215e+001
1.012352e+003,9.242828e+001
1.013317e+003,9.401355e+001
1.014281e+003,9.334784e+001
1.015245e+003,8.771466e+001
1.016209e+003,8.099188e+001
1.017174e+003,7.676776e+001
1.018138e+003,7.472852e+001
1.019102e+003,7.127032e+001
1.020066e+003,6.324609e+001
1.021031e+003,5.329718e+001
1.021995e+003,4.832056e+001
1.022959e+003,4.685675e+001
1.023923e+003,4.568188e+001
1.024887e+003,4.387903e+001
1.025852e+003,4.142786e+001
1.026816e+003,3.850366e+001
1.027780e+003,3.547681e+001
1.028744e+003,3.222021e+001
1.029709e+003,2.739362e+001
1.030673e+003,2.364813e+001
1.031637e+003,2.187665e+001
1.032601e+003,2.130652e+001
1.033566e+003,2.136328e+001
1.034530e+003,2.193475e+001
1.035494e+003,2.225842e+001
1.036458e+003,2.074573e+001
1.037422e+003,1.845685e+001
1.038387e+003,1.737396e+001
1.039351e+003,1.738885e+001
1.040315e+003,1.775787e+001
1.041279e+003,1.814679e+001
1.042244e+003,1.877765e+001
1.043208e+003,1.971637e+001
1.044172e+003,2.086151e+001
1.045136e+003,2.137640e+001
1.046101e+003,2.132422e+001
1.047065e+003,2.112494e+001
1.048029e+003,2.099963e+001
1.048993e+003,2.073584e+001
1.049958e+003,1.982788e+001
1.050922e+003,1.800336e+001
1.051886e+003,1.648853e+001
1.052850e+003,1.559741e+001
1.053814e+003,1.589209e+001
1.054779e+003,1.942047e+001
1.055743e+003,2.588971e+001
1.056707e+003,3.123755e+001
1.057671e+003,3.037622e+001
1.058636e+003,2.314502e+001
1.059600e+003,1.953711e+001
1.060564e+003,2.396094e+001
1.061528e+003,2.674121e+001
1.062493e+003,2.474963e+001
1.063457e+003,2.074329e+001
1.064421e+003,1.784711e+001
1.065385e+003,1.666040e+001
1.066349e+003,1.642242e+001
1.067314e+003,1.740808e+001
1.068278e+003,1.855286e+001
1.069242e+003,1.996576e+001
1.070206e+003,2.102197e+001
1.071171e+003,1.978552e+001
1.072135e+003,1.564471e+001
1.073099e+003,1.102106e+001
1.074063e+003,1.049860e+001
1.075028e+003,1.474426e+001
1.075992e+003,1.814105e+001
1.076956e+003,2.163922e+001
1.077920e+003,2.225281e+001
1.078885e+003,1.733820e+001
1.079849e+003,1.010669e+001
1.080813e+003,6.083313e+000
1.081777e+003,6.369385e+000
1.082741e+003,8.260864e+000
1.083706e+003,1.098010e+001
1.084670e+003,1.343677e+001
1.085634e+003,1.539496e+001
1.086598e+003,1.655719e+001
1.087563e+003,1.661066e+001
1.088527e+003,1.564844e+001
1.089491e+003,1.426978e+001
1.090455e+003,1.275879e+001
1.091420e+003,1.066864e+001
1.092384e+003,9.628052e+000
1.093348e+003,9.802612e+000
1.094312e+003,9.900208e+000
1.095276e+003,8.883789e+000
1.096241e+003,7.846924e+000
1.097205e+003,9.607361e+000
1.098169e+003,1.534894e+001
1.099133e+003,2.018542e+001
1.100098e+003,2.178418e+001
1.101062e+003,2.293286e+001
1.102026e+003,2.534729e+001
1.102990e+003,2.886761e+001
1.103955e+003,3.272748e+001
1.104919e+003,3.633392e+001
1.105883e+003,3.890265e+001
1.106847e+003,3.883545e+001
1.107812e+003,3.594983e+001
1.108776e+003,3.316284e+001
1.109740e+003,3.047266e+001
1.110704e+003,2.814606e+001
1.111668e+003,2.640454e+001
1.112633e+003,2.576440e+001
1.113597e+003,2.725293e+001
1.114561e+003,3.138477e+001
1.115525e+003,3.565131e+001
1.116490e+003,4.050818e+001
1.117454e+003,4.395251e+001
1.118418e+003,4.417810e+001
1.119382e+003,4.249060e+001
1.120347e+003,4.137610e+001
1.121311e+003,4.193896e+001
1.122275e+003,4.312329e+001
1.123239e+003,4.437646e+001
1.124203e+003,4.634967e+001
1.125168e+003,4.857440e+001
1.126132e+003,5.143463e+001
1.127096e+003,5.391223e+001
1.128060e+003,5.409668e+001
1.129025e+003,5.262939e+001
1.129989e+003,5.373267e+001
1.130953e+003,5.874341e+001
1.131917e+003,6.339496e+001
1.132882e+003,6.662665e+001
1.133846e+003,6.957385e+001
1.134810e+003,7.311591e+001
1.135774e+003,7.702527e+001
1.136739e+003,7.977466e+001
1.137703e+003,8.055481e+001
1.138667e+003,8.220569e+001
1.139631e+003,9.079358e+001
1.140595e+003,1.053447e+002
1.141560e+003,1.171946e+002
1.142524e+003,1.257067e+002
1.143488e+003,1.340510e+002
1.144452e+003,1.426982e+002
1.145417e+003,1.526082e+002
1.146381e+003,1.678411e+002
1.147345e+003,1.900565e+002
1.148309e+003,2.129653e+002
1.149274e+003,2.351202e+002
1.150238e+003,2.579333e+002
1.151202e+003,2.843422e+002
1.152166e+003,3.119751e+002
1.153130e+003,3.366727e+002
1.154095e+003,3.559004e+002
1.155059e+003,3.694073e+002
1.156023e+003,3.780380e+002
1.156987e+003,3.812202e+002
1.157952e+003,3.763862e+002
1.158916e+003,3.636766e+002
1.159880e+003,3.485704e+002
1.160844e+003,3.330532e+002
1.161809e+003,3.154658e+002
1.162773e+003,2.928009e+002
1.163737e+003,2.635065e+002
1.164701e+003,2.364781e+002
1.165666e+003,2.144761e+002
1.166630e+003,1.955073e+002
1.167594e+003,1.782694e+002
1.168558e+003,1.638071e+002
1.169522e+003,1.545052e+002
1.170487e+003,1.505383e+002
1.171451e+003,1.487523e+002
1.172415e+003,1.454285e+002
1.173379e+003,1.411368e+002
1.174344e+003,1.404739e+002
1.175308e+003,1.439265e+002
1.176272e+003,1.455817e+002
1.177236e+003,1.429202e+002
1.178201e+003,1.383887e+002
1.179165e+003,1.347688e+002
1.180129e+003,1.316738e+002
1.181093e+003,1.274048e+002
1.182057e+003,1.207195e+002
1.183022e+003,1.147693e+002
1.183986e+003,1.097506e+002
1.184950e+003,1.066355e+002
1.185914e+003,1.074871e+002
1.186879e+003,1.116235e+002
1.187843e+003,1.155867e+002
1.188807e+003,1.163619e+002
1.189771e+003,1.152024e+002
1.190736e+003,1.169525e+002
1.191700e+003,1.220729e+002
1.192664e+003,1.243938e+002
1.193628e+003,1.229604e+002
1.194593e+003,1.199012e+002
1.195557e+003,1.161426e+002
1.196521e+003,1.117570e+002
1.197485e+003,1.070013e+002
1.198449e+003,1.014120e+002
1.199414e+003,9.742664e+001
1.200378e+003,9.814307e+001
1.201342e+003,9.908289e+001
1.202306e+003,9.707605e+001
1.203271e+003,9.272827e+001
1.204235e+003,8.798474e+001
1.205199e+003,8.400439e+001
1.206163e+003,8.078809e+001
1.207128e+003,7.836755e+001
1.208092e+003,7.691052e+001
1.209056e+003,7.270154e+001
1.210020e+003,6.420117e+001
1.210984e+003,5.662299e+001
1.211949e+003,5.170087e+001
1.212913e+003,4.808026e+001
1.213877e+003,4.434698e+001
1.214841e+003,4.053479e+001
1.215806e+003,3.703961e+001
1.216770e+003,3.410400e+001
1.217734e+003,3.111389e+001
1.218698e+003,2.674121e+001
1.219663e+003,2.213751e+001
1.220627e+003,1.888031e+001
1.221591e+003,1.720593e+001
1.222555e+003,1.625934e+001
1.223520e+003,1.534570e+001
1.224484e+003,1.483801e+001
1.225448e+003,1.556177e+001
1.226412e+003,1.929993e+001
1.227376e+003,1.964423e+001
1.228341e+003,1.253381e+001
1.229305e+003,6.334045e+000
1.230269e+003,6.745911e+000
1.231233e+003,1.090710e+001
1.232198e+003,1.284161e+001
1.233162e+003,1.118146e+001
1.234126e+003,9.162109e+000
1.235090e+003,7.989441e+000
1.236055e+003,7.982239e+000
1.237019e+003,1.082990e+001
1.237983e+003,1.488086e+001
1.238947e+003,1.603241e+001
1.239911e+003,1.286353e+001
1.240876e+003,8.170471e+000
1.241840e+003,5.726990e+000
1.242804e+003,5.643677e+000
1.243768e+003,6.249451e+000
1.244733e+003,8.634766e+000
1.245697e+003,1.029553e+001
1.246661e+003,9.830750e+000
1.247625e+003,8.707397e+000
1.248590e+003,8.016296e+000
1.249554e+003,8.313843e+000
1.250518e+003,1.022162e+001
1.251482e+003,1.391937e+001
1.252447e+003,1.703131e+001
1.253411e+003,1.622168e+001
1.254375e+003,1.381909e+001
1.255339e+003,1.483728e+001
1.256303e+003,1.953461e+001
1.257268e+003,2.362891e+001
1.258232e+003,2.383179e+001
1.259196e+003,2.194330e+001
1.260160e+003,2.240790e+001
1.261125e+003,2.594360e+001
1.262089e+003,3.033173e+001
1.263053e+003,3.624872e+001
1.264017e+003,4.080615e+001
1.264982e+003,4.326208e+001
1.265946e+003,4.454626e+001
1.266910e+003,4.571411e+001
1.267874e+003,4.664160e+001
1.268839e+003,4.632532e+001
1.269803e+003,4.412634e+001
1.270767e+003,4.050818e+001
1.271731e+003,3.581226e+001
1.272695e+003,3.051270e+001
1.273660e+003,2.842517e+001
1.274624e+003,2.991199e+001
1.275588e+003,3.164655e+001
1.276552e+003,3.327386e+001
1.277517e+003,3.428711e+001
1.278481e+003,3.258075e+001
1.279445e+003,2.763159e+001
1.280409e+003,2.346967e+001
1.281374e+003,2.208978e+001
1.282338e+003,2.102203e+001
1.283302e+003,1.847534e+001
1.284266e+003,1.568054e+001
1.285230e+003,1.455688e+001
1.286195e+003,1.485718e+001
1.287159e+003,1.427277e+001
1.288123e+003,1.110852e+001
1.289087e+003,6.835083e+000
1.290052e+003,4.978760e+000
1.291016e+003,5.702393e+000
1.291980e+003,7.171448e+000
1.292944e+003,1.114636e+001
1.293909e+003,1.267218e+001
1.294873e+003,8.081543e+000
1.295837e+003,1.731323e+000
1.296801e+003,-2.359009e-001
1.297766e+003,2.782227e+000
1.298730e+003,6.329895e+000
1.299694e+003,8.263855e+000
1.300658e+003,8.718933e+000
1.301622e+003,6.868774e+000
1.302587e+003,4.605713e+000
1.303551e+003,5.294800e+000
1.304515e+003,9.437683e+000
1.305479e+003,1.409167e+001
1.306444e+003,1.682434e+001
1.307408e+003,1.760101e+001
1.308372e+003,1.658569e+001
1.309336e+003,1.243414e+001
1.310301e+003,1.057056e+001
1.311265e+003,1.493939e+001
1.312229e+003,1.760168e+001
1.313193e+003,1.429852e+001
1.314157e+003,9.210999e+000
1.315122e+003,7.067322e+000
1.316086e+003,7.933105e+000
1.317050e+003,8.076111e+000
1.318014e+003,5.097534e+000
1.318979e+003,2.149109e+000
1.319943e+003,5.781372e+000
1.320907e+003,1.502667e+001
1.321871e+003,1.848199e+001
1.322836e+003,1.319531e+001
1.323800e+003,8.710449e+000
1.324764e+003,1.159741e+001
1.325728e+003,1.784998e+001
1.326693e+003,2.043683e+001
1.327657e+003,1.883600e+001
1.328621e+003,1.607440e+001
1.329585e+003,1.272699e+001
1.330549e+003,1.163782e+001
1.331514e+003,1.376587e+001
1.332478e+003,1.663989e+001
1.333442e+003,1.929132e+001
1.334406e+003,2.109082e+001
1.335371e+003,2.000043e+001
1.336335e+003,1.498181e+001
1.337299e+003,9.539001e+000
1.338263e+003,1.053729e+001
1.339228e+003,1.919263e+001
1.340192e+003,2.299432e+001
1.341156e+003,1.761200e+001
1.342120e+003,1.406781e+001
1.343084e+003,1.467688e+001
1.344049e+003,1.605450e+001
1.345013e+003,1.562347e+001
1.345977e+003,1.422064e+001
1.346941e+003,1.472913e+001
1.347906e+003,1.829803e+001
1.348870e+003,2.130060e+001
1.349834e+003,1.950311e+001
1.350798e+003,1.517090e+001
1.351763e+003,1.372351e+001
1.352727e+003,1.471185e+001
1.353691e+003,1.440094e+001
1.354655e+003,1.126892e+001
1.355620e+003,7.252258e+000
1.356584e+003,4.644043e+000
1.357548e+003,3.456604e+000
1.358512e+003,2.199158e+000
1.359476e+003,-2.048340e-001
1.360441e+003,-1.743774e+000
1.361405e+003,-1.046814e+000
1.362369e+003,2.130737e-001
1.363333e+003,1.805664e+000
1.364298e+003,3.225708e+000
1.365262e+003,3.376709e+000
1.366226e+003,2.464233e+000
1.367190e+003,2.767517e+000
1.368155e+003,6.392944e+000
1.369119e+003,1.171625e+001
1.370083e+003,1.360400e+001
1.371047e+003,1.129657e+001
1.372011e+003,9.620056e+000
1.372976e+003,7.084167e+000
1.373940e+003,5.950989e+000
1.374904e+003,8.215210e+000
1.375868e+003,1.203119e+001
1.376833e+003,1.514392e+001
1.377797e+003,1.715295e+001
1.378761e+003,1.859473e+001
1.379725e+003,2.009802e+001
1.380690e+003,2.026843e+001
1.381654e+003,1.601709e+001
1.382618e+003,1.055731e+001
1.383582e+003,8.115906e+000
1.384547e+003,8.814941e+000
1.385511e+003,1.120850e+001
1.386475e+003,1.473267e+001
1.387439e+003,1.821448e+001
1.388403e+003,2.026501e+001
1.389368e+003,2.082593e+001
1.390332e+003,1.899573e+001
1.391296e+003,1.249243e+001
1.392260e+003,8.973633e+000
1.393225e+003,1.170874e+001
1.394189e+003,1.556799e+001
1.395153e+003,1.952600e+001
1.396117e+003,2.190198e+001
1.397082e+003,1.929651e+001
1.398046e+003,1.219189e+001
1.399010e+003,6.640869e+000
1.399974e+003,7.987305e+000
1.400938e+003,1.329700e+001
1.401903e+003,1.492432e+001
1.402867e+003,1.296704e+001
1.403831e+003,1.314917e+001
1.404795e+003,1.535266e+001
1.405760e+003,1.839233e+001
1.406724e+003,2.280664e+001
1.407688e+003,2.543591e+001
1.408652e+003,2.215991e+001
1.409617e+003,1.463293e+001
1.410581e+003,9.977051e+000
1.411545e+003,1.132397e+001
1.412509e+003,1.419324e+001
1.413474e+003,1.349634e+001
1.414438e+003,1.125537e+001
1.415402e+003,1.244470e+001
1.416366e+003,1.692834e+001
1.417330e+003,2.053479e+001
1.418295e+003,2.150647e+001
1.419259e+003,2.165356e+001
1.420223e+003,2.288049e+001
1.421187e+003,2.461035e+001
1.422152e+003,2.497791e+001
1.423116e+003,2.364465e+001
1.424080e+003,2.399500e+001
1.425044e+003,2.839478e+001
1.426009e+003,3.202026e+001
1.426973e+003,3.186084e+001
1.427937e+003,3.036841e+001
1.428901e+003,3.139050e+001
1.429865e+003,3.481287e+001
1.430830e+003,3.682544e+001
1.431794e+003,3.470129e+001
1.432758e+003,3.014258e+001
1.433722e+003,2.704871e+001
1.434687e+003,2.609680e+001
1.435651e+003,2.802991e+001
1.436615e+003,3.329089e+001
1.437579e+003,3.712231e+001
1.438544e+003,3.928882e+001
1.439508e+003,4.020532e+001
1.440472e+003,4.026099e+001
1.441436e+003,3.992981e+001
1.442401e+003,3.934326e+001
1.443365e+003,3.843762e+001
1.444329e+003,3.769934e+001
1.445293e+003,3.782971e+001
1.446257e+003,3.807678e+001
1.447222e+003,3.630945e+001
1.448186e+003,3.290088e+001
1.449150e+003,3.023621e+001
1.450114e+003,2.819312e+001
1.451079e+003,2.742017e+001
1.452043e+003,2.990210e+001
1.453007e+003,3.341528e+001
1.453971e+003,3.409888e+001
1.454936e+003,3.213452e+001
1.455900e+003,3.090027e+001
1.456864e+003,3.132849e+001
1.457828e+003,3.278870e+001
1.458792e+003,3.650720e+001
1.459757e+003,3.891357e+001
1.460721e+003,3.592578e+001
1.461685e+003,2.971729e+001
1.462649e+003,2.427686e+001
1.463614e+003,2.116455e+001
1.464578e+003,2.145471e+001
1.465542e+003,2.662195e+001
1.466506e+003,3.411450e+001
1.467471e+003,3.641370e+001
1.468435e+003,3.254163e+001
1.469399e+003,3.175671e+001
1.470363e+003,3.763464e+001
1.471328e+003,4.078442e+001
1.472292e+003,3.595459e+001
1.473256e+003,2.976721e+001
1.474220e+003,2.795203e+001
1.475184e+003,2.948132e+001
1.476149e+003,3.041577e+001
1.477113e+003,2.925391e+001
1.478077e+003,2.800525e+001
1.479041e+003,2.905225e+001
1.480006e+003,3.216211e+001
1.480970e+003,3.547717e+001
1.481934e+003,3.867126e+001
1.482898e+003,4.087134e+001
1.483863e+003,4.148022e+001
1.484827e+003,4.178833e+001
1.485791e+003,4.210608e+001
1.486755e+003,4.319373e+001
1.487719e+003,4.545728e+001
1.488684e+003,4.849561e+001
1.489648e+003,5.195496e+001
1.490612e+003,5.595703e+001
1.491576e+003,6.011121e+001
1.492541e+003,6.378186e+001
1.493505e+003,6.725391e+001
1.494469e+003,7.139978e+001
1.495433e+003,7.553552e+001
1.496398e+003,7.906775e+001
1.497362e+003,8.248315e+001
1.498326e+003,8.652368e+001
1.499290e+003,9.186499e+001
1.500255e+003,9.763171e+001
1.501219e+003,1.011923e+002
1.502183e+003,1.033965e+002
1.503147e+003,1.108733e+002
1.504111e+003,1.261678e+002
1.505076e+003,1.409067e+002
1.506040e+003,1.481011e+002
1.507004e+003,1.551981e+002
1.507968e+003,1.696320e+002
1.508933e+003,1.893889e+002
1.509897e+003,2.106863e+002
1.510861e+003,2.334517e+002
1.511825e+003,2.584880e+002
1.512790e+003,2.858370e+002
1.513754e+003,3.148302e+002
1.514718e+003,3.457629e+002
1.515682e+003,3.781290e+002
1.516646e+003,4.075763e+002
1.517611e+003,4.329530e+002
1.518575e+003,4.590410e+002
1.519539e+003,4.941376e+002
1.520503e+003,5.242622e+002
1.521468e+003,5.412764e+002
1.522432e+003,5.485238e+002
1.523396e+003,5.507599e+002
1.524360e+003,5.490413e+002
1.525325e+003,5.424646e+002
1.526289e+003,5.305973e+002
1.527253e+003,5.139008e+002
1.528217e+003,4.926373e+002
1.529182e+003,4.672014e+002
1.530146e+003,4.403673e+002
1.531110e+003,4.131680e+002
1.532074e+003,3.814225e+002
1.533039e+003,3.408645e+002
1.534003e+003,2.985632e+002
1.534967e+003,2.557271e+002
1.535931e+003,2.162437e+002
1.536896e+003,1.837136e+002
1.537860e+003,1.583278e+002
1.538824e+003,1.386699e+002
1.539788e+003,1.234619e+002
1.540752e+003,1.103020e+002
1.541717e+003,9.619324e+001
1.542681e+003,8.239905e+001
1.543645e+003,7.517871e+001
1.544609e+003,7.949805e+001
1.545573e+003,7.924463e+001
1.546538e+003,6.918787e+001
1.547502e+003,5.995007e+001
1.548466e+003,5.597070e+001
1.549430e+003,5.555908e+001
1.550395e+003,5.825916e+001
1.551359e+003,6.187964e+001
1.552323e+003,6.177930e+001
1.553287e+003,5.660962e+001
1.554252e+003,5.009888e+001
1.555216e+003,4.522705e+001
1.556180e+003,4.167053e+001
1.557144e+003,3.854565e+001
1.558109e+003,3.612036e+001
1.559073e+003,3.692761e+001
1.560037e+003,4.290039e+001
1.561001e+003,4.620703e+001
1.561966e+003,4.327490e+001
1.562930e+003,3.914734e+001
1.563894e+003,3.786353e+001
1.564858e+003,3.852856e+001
1.565823e+003,3.913403e+001
1.566787e+003,3.914050e+001
1.567751e+003,3.815125e+001
1.568715e+003,3.586035e+001
1.569679e+003,3.346313e+001
1.570644e+003,3.198145e+001
1.571608e+003,3.109448e+001
1.572572e+003,3.073047e+001
1.573536e+003,3.124036e+001
1.574500e+003,3.331152e+001
1.575465e+003,3.822681e+001
1.576429e+003,4.263367e+001
1.577393e+003,4.339893e+001
1.578357e+003,4.154370e+001
1.579322e+003,3.874036e+001
1.580286e+003,3.554016e+001
1.581250e+003,3.443579e+001
1.582214e+003,3.650781e+001
1.583179e+003,3.957886e+001
1.584143e+003,4.288660e+001
1.585107e+003,4.494788e+001
1.586071e+003,4.374805e+001
1.587036e+003,4.100977e+001
1.588000e+003,4.047961e+001
1.588964e+003,4.268677e+001
1.589928e+003,4.453528e+001
1.590893e+003,4.370874e+001
1.591857e+003,4.185645e+001
1.592821e+003,4.108130e+001
1.593785e+003,4.154785e+001
1.594750e+003,4.418542e+001
1.595714e+003,4.945667e+001
1.596678e+003,5.282690e+001
1.597642e+003,5.183826e+001
1.598606e+003,4.946802e+001
1.599571e+003,4.714209e+001
1.600535e+003,4.584802e+001
1.601499e+003,4.769409e+001
1.602463e+003,5.180603e+001
1.603427e+003,5.402661e+001
1.604392e+003,5.255640e+001
1.605356e+003,5.015186e+001
1.606320e+003,5.007678e+001
1.607284e+003,5.113647e+001
1.608249e+003,4.937122e+001
1.609213e+003,4.466492e+001
1.610177e+003,4.093262e+001
1.611141e+003,3.875330e+001
1.612106e+003,3.777930e+001
1.613070e+003,3.852844e+001
1.614034e+003,3.973059e+001
1.614998e+003,4.081543e+001
1.615963e+003,4.163489e+001
1.616927e+003,4.168176e+001
1.617891e+003,4.090759e+001
1.618855e+003,4.005933e+001
1.619820e+003,3.936121e+001
1.620784e+003,3.818396e+001
1.621748e+003,3.646802e+001
1.622712e+003,3.504028e+001
1.623677e+003,3.401160e+001
1.624641e+003,3.314050e+001
1.625605e+003,3.478821e+001
1.626569e+003,4.072144e+001
1.627533e+003,4.427161e+001
1.628498e+003,4.127661e+001
1.629462e+003,3.679358e+001
1.630426e+003,3.450647e+001
1.631390e+003,3.403601e+001
1.632354e+003,3.419409e+001
1.633319e+003,3.448804e+001
1.634283e+003,3.433069e+001
1.635247e+003,3.300354e+001
1.636211e+003,3.151025e+001
1.637176e+003,3.264856e+001
1.638140e+003,3.633203e+001
1.639104e+003,3.707617e+001
1.640068e+003,3.346545e+001
1.641033e+003,3.075476e+001
1.641997e+003,3.074988e+001
1.642961e+003,3.174817e+001
1.643925e+003,3.315186e+001
1.644890e+003,3.472681e+001
1.645854e+003,3.641284e+001
1.646818e+003,3.787195e+001
1.647782e+003,3.839636e+001
1.648747e+003,3.778711e+001
1.649711e+003,3.695679e+001
1.650675e+003,3.694043e+001
1.651639e+003,3.767297e+001
1.652604e+003,3.849524e+001
1.653568e+003,3.908997e+001
1.654532e+003,3.880469e+001
1.655496e+003,3.746729e+001
1.656460e+003,3.578699e+001
1.657425e+003,3.415674e+001
1.658389e+003,3.240332e+001
1.659353e+003,2.942603e+001
1.660317e+003,2.692639e+001
1.661281e+003,2.726929e+001
1.662246e+003,2.949536e+001
1.663210e+003,3.095935e+001
1.664174e+003,3.096045e+001
1.665138e+003,3.004895e+001
1.666103e+003,2.805762e+001
1.667067e+003,2.576270e+001
1.668031e+003,2.554346e+001
1.668995e+003,2.730652e+001
1.669960e+003,2.763745e+001
1.670924e+003,2.616602e+001
1.671888e+003,2.441650e+001
1.672852e+003,2.200110e+001
1.673817e+003,2.004260e+001
1.674781e+003,1.879321e+001
1.675745e+003,1.855017e+001
1.676709e+003,2.036877e+001
1.677674e+003,2.342322e+001
1.678638e+003,2.542871e+001
1.679602e+003,2.566736e+001
1.680566e+003,2.457275e+001
1.681531e+003,2.256006e+001
1.682495e+003,2.001794e+001
1.683459e+003,1.644543e+001
1.684423e+003,1.194434e+001
1.685387e+003,9.230103e+000
1.686352e+003,8.807739e+000
1.687316e+003,9.610229e+000
1.688280e+003,1.175232e+001
1.689244e+003,1.415771e+001
1.690208e+003,1.668359e+001
1.691173e+003,1.827710e+001
1.692137e+003,1.708984e+001
1.693101e+003,1.452246e+001
1.694065e+003,1.426453e+001
1.695030e+003,1.683386e+001
1.695994e+003,1.838220e+001
1.696958e+003,1.600061e+001
1.697922e+003,1.264673e+001
1.698887e+003,1.171411e+001
1.699851e+003,1.300537e+001
1.700815e+003,1.630530e+001
1.701779e+003,2.120264e+001
1.702744e+003,2.333289e+001
1.703708e+003,2.136621e+001
1.704672e+003,1.878784e+001
1.705636e+003,1.736145e+001
1.706601e+003,1.591931e+001
1.707565e+003,1.292712e+001
1.708529e+003,9.611084e+000
1.709493e+003,9.256592e+000
1.710458e+003,1.256750e+001
1.711422e+003,1.483313e+001
1.712386e+003,1.386487e+001
1.713350e+003,1.235962e+001
1.714314e+003,1.163257e+001
1.715279e+003,1.126367e+001
1.716243e+003,1.110388e+001
1.717207e+003,1.119055e+001
1.718171e+003,1.188293e+001
1.719135e+003,1.339404e+001
1.720100e+003,1.364563e+001
1.721064e+003,1.058752e+001
1.722028e+003,6.683960e+000
1.722992e+003,6.248413e+000
1.723957e+003,9.049072e+000
1.724921e+003,1.034155e+001
1.725885e+003,8.953247e+000
1.726849e+003,7.716919e+000
1.727814e+003,8.593628e+000
1.728778e+003,9.635498e+000
1.729742e+003,9.551147e+000
1.730706e+003,9.278564e+000
1.731671e+003,9.645142e+000
1.732635e+003,9.568970e+000
1.733599e+003,7.693970e+000
1.734563e+003,4.536743e+000
1.735528e+003,1.500000e+000
1.736492e+003,-9.202881e-001
1.737456e+003,-2.121826e+000
1.738420e+003,-1.373413e+000
1.739385e+003,8.780518e-001
1.740349e+003,4.967163e+000
1.741313e+003,1.271777e+001
1.742277e+003,1.496228e+001
1.743241e+003,7.577759e+000
1.744206e+003,2.443970e+000
1.745170e+003,1.736084e+000
1.746134e+003,2.219849e+000
1.747098e+003,2.275513e+000
1.748063e+003,2.327148e+000
1.749027e+003,3.084961e+000
1.749991e+003,4.589111e+000
1.750955e+003,6.813110e+000
1.751919e+003,9.376343e+000
1.752884e+003,1.090674e+001
1.753848e+003,1.024475e+001
1.754812e+003,8.254150e+000
1.755776e+003,7.027832e+000
1.756741e+003,7.009277e+000
1.757705e+003,7.100464e+000
1.758669e+003,6.789795e+000
1.759633e+003,6.799805e+000
1.760598e+003,7.541138e+000
1.761562e+003,7.254883e+000
1.762526e+003,5.250488e+000
1.763490e+003,3.269043e+000
1.764455e+003,2.501099e+000
1.765419e+003,2.737549e+000
1.766383e+003,3.467285e+000
1.767347e+003,4.146484e+000
1.768312e+003,3.811157e+000
1.769276e+003,1.815674e+000
1.770240e+003,3.441162e-001
1.771204e+003,2.878052e+000
1.772168e+003,7.973999e+000
1.773133e+003,1.176099e+001
1.774097e+003,1.410620e+001
1.775061e+003,1.322925e+001
1.776025e+003,7.854492e+000
1.776990e+003,3.141846e+000
1.777954e+003,1.192871e+000
1.778918e+003,1.264160e+000
1.779882e+003,3.471313e+000
1.780846e+003,5.873535e+000
1.781811e+003,6.668823e+000
1.782775e+003,6.109985e+000
1.783739e+003,3.983032e+000
1.784703e+003,1.170654e-001
1.785668e+003,-1.431030e+000
1.786632e+003,2.466309e+000
1.787596e+003,5.887817e+000
1.788560e+003,4.845093e+000
1.789525e+003,1.916260e+000
1.790489e+003,-6.981201e-001
1.791453e+003,-2.834595e+000
1.792417e+003,-3.980469e+000
1.793382e+003,-4.032837e+000
1.794346e+003,-3.452515e+000
1.795310e+003,-2.510254e+000
1.796274e+003,-1.665161e+000
1.797239e+003,-1.078857e+000
1.798203e+003,-1.760254e-001
1.799167e+003,7.468262e-001
1.800131e+003,5.045166e-001
1.801095e+003,5.288086e-001
1.802060e+003,1.696045e+000
1.803024e+003,3.816650e+000
1.803988e+003,8.848877e+000
1.804952e+003,1.161890e+001
1.805917e+003,7.047729e+000
1.806881e+003,1.234131e+000
1.807845e+003,1.110596e+000
1.808809e+003,4.853760e+000
1.809773e+003,7.514526e+000
1.810738e+003,7.677368e+000
1.811702e+003,6.181763e+000
1.812666e+003,3.584717e+000
1.813630e+003,1.536133e+000
1.814595e+003,2.394409e+000
1.815559e+003,5.336426e+000
1.816523e+003,8.211792e+000
1.817487e+003,1.144409e+001
1.818452e+003,1.071350e+001
1.819416e+003,4.267456e+000
1.820380e+003,-2.612305e-002
1.821344e+003,4.422607e-001
1.822309e+003,1.742920e+000
1.823273e+003,2.440430e+000
1.824237e+003,2.908691e+000
1.825201e+003,2.804199e+000
1.826166e+003,2.381958e+000
1.827130e+003,2.704834e+000
1.828094e+003,3.740845e+000
1.829058e+003,4.532104e+000
1.830022e+003,5.325806e+000
1.830987e+003,5.184937e+000
1.831951e+003,2.120972e+000
1.832915e+003,-1.451782e+000
1.833879e+003,-2.010986e+000
1.834844e+003,-7.250977e-002
1.835808e+003,3.388062e+000
1.836772e+003,7.696411e+000
1.837736e+003,8.280518e+000
1.838700e+003,2.717041e+000
1.839665e+003,-2.968628e+000
1.840629e+003,-2.901855e+000
1.841593e+003,6.398926e-001
1.842557e+003,2.509888e+000
1.843522e+003,2.702393e+000
1.844486e+003,3.147705e+000
1.845450e+003,4.790283e+000
1.846414e+003,6.237427e+000
1.847379e+003,6.829224e+000
1.848343e+003,6.296997e+000
1.849307e+003,4.687012e+000
1.850271e+003,2.431152e+000
1.851236e+003,-1.043457e+000
1.852200e+003,-3.900024e+000
1.853164e+003,-3.535767e+000
1.854128e+003,-1.282593e+000
1.855093e+003,-8.997803e-001
1.856057e+003,-3.195068e+000
1.857021e+003,-5.527588e+000
1.857985e+003,-6.036011e+000
1.858949e+003,-5.532959e+000
1.859914e+003,-4.970947e+000
1.860878e+003,-4.283569e+000
1.861842e+003,-4.466431e+000
1.862806e+003,-5.781128e+000
1.863771e+003,-4.071533e+000
1.864735e+003,2.193848e+000
1.865699e+003,6.485229e+000
1.866663e+003,5.947266e+000
1.867627e+003,3.579956e+000
1.868592e+003,3.184814e-001
1.869556e+003,-2.978027e+000
1.870520e+003,-2.769287e+000
1.871484e+003,5.712891e-002
1.872449e+003,-5.720215e-001
1.873413e+003,-5.171143e+000
1.874377e+003,-7.250244e+000
1.875341e+003,-6.027222e+000
1.876306e+003,-3.195190e+000
1.877270e+003,1.913452e+000
1.878234e+003,6.450806e+000
1.879198e+003,8.084229e+000
1.880163e+003,7.155273e+000
1.881127e+003,3.441406e+000
1.882091e+003,-1.694214e+000
1.883055e+003,-4.398315e+000
1.884020e+003,-3.253784e+000
1.884984e+003,-5.614014e-001
1.885948e+003,1.692383e+000
1.886912e+003,3.158569e+000
1.887876e+003,2.993042e+000
1.888841e+003,1.453491e+000
1.889805e+003,8.359375e-001
1.890769e+003,1.023071e+000
1.891733e+003,3.211426e+000
1.892698e+003,9.222168e+000
1.893662e+003,1.192004e+001
1.894626e+003,7.436035e+000
1.895590e+003,1.239136e+000
1.896554e+003,-4.313477e+000
1.897519e+003,-7.941040e+000
1.898483e+003,-7.867310e+000
1.899447e+003,-5.338989e+000
1.900411e+003,-2.947510e+000
1.901376e+003,-8.902588e-001
1.902340e+003,7.230225e-001
1.903304e+003,2.296387e+000
1.904268e+003,2.509521e+000
1.905233e+003,-1.234253e+000
1.906197e+003,-4.617920e+000
1.907161e+003,-1.243774e+000
1.908125e+003,5.009888e+000
1.909090e+003,5.720215e+000
1.910054e+003,1.098633e+000
1.911018e+003,-2.726685e+000
1.911982e+003,-3.276367e+000
1.912947e+003,-1.721191e+000
1.913911e+003,9.241943e-001
1.914875e+003,3.699463e+000
1.915839e+003,4.847412e+000
1.916803e+003,4.360474e+000
1.917768e+003,4.575806e+000
1.918732e+003,6.263184e+000
1.919696e+003,5.996216e+000
1.920660e+003,3.211182e+000
1.921625e+003,8.326416e-001
1.922589e+003,-1.474976e+000
1.923553e+003,-2.492065e+000
1.924517e+003,-8.007813e-002
1.925481e+003,2.744385e+000
1.926446e+003,3.218018e+000
1.927410e+003,2.285034e+000
1.928374e+003,1.580933e+000
1.929338e+003,9.490967e-001
1.930303e+003,1.066895e-001
1.931267e+003,-7.481689e-001
1.932231e+003,3.381348e-002
1.933195e+003,4.361694e+000
1.934160e+003,8.015381e+000
1.935124e+003,7.420166e+000
1.936088e+003,4.511353e+000
1.937052e+003,1.385498e+000
1.938017e+003,-9.683838e-001
1.938981e+003,-9.952393e-001
1.939945e+003,6.301270e-001
1.940909e+003,4.150391e-003
1.941874e+003,-4.405762e+000
1.942838e+003,-8.060547e+000
1.943802e+003,-6.189331e+000
1.944766e+003,-9.763184e-001
1.945730e+003,2.333984e+000
1.946695e+003,3.510864e+000
1.947659e+003,3.500244e+000
1.948623e+003,2.026855e+000
1.949587e+003,1.011597e+000
1.950552e+003,1.209473e+000
1.951516e+003,7.707520e-001
1.952480e+003,-1.249756e+000
1.953444e+003,-3.434814e+000
1.954408e+003,-5.279663e+000
1.955373e+003,-6.950195e+000
1.956337e+003,-8.428467e+000
1.957301e+003,-8.833008e+000
1.958265e+003,-6.420288e+000
1.959230e+003,-5.396729e-001
1.960194e+003,3.468262e+000
1.961158e+003,2.595947e+000
1.962122e+003,1.437988e+000
1.963087e+003,1.659546e+000
1.964051e+003,1.573364e+000
1.965015e+003,7.047119e-001
1.965979e+003,-3.493652e-001
1.966944e+003,-1.932861e+000
1.967908e+003,-3.787598e+000
1.968872e+003,-5.237305e+000
1.969836e+003,-5.935791e+000
1.970801e+003,-5.612427e+000
1.971765e+003,-4.159668e+000
1.972729e+003,-2.254272e+000
1.973693e+003,-3.652344e-001
1.974657e+003,1.179688e+000
1.975622e+003,1.649780e+000
1.976586e+003,1.102173e+000
1.977550e+003,1.806641e-002
1.978514e+003,-1.204590e+000
1.979479e+003,-1.726807e+000
1.980443e+003,-1.509888e+000
1.981407e+003,3.283691e-001
1.982371e+003,4.507813e+000
1.983335e+003,6.953491e+000
1.984300e+003,3.909912e+000
1.985264e+003,-1.101807e+000
1.986228e+003,-2.219604e+000
1.987192e+003,-2.719727e-001
1.988157e+003,5.891113e-001
1.989121e+003,5.946045e-001
1.990085e+003,-6.810303e-001
1.991049e+003,-4.345581e+000
1.992014e+003,-6.407837e+000
1.992978e+003,-6.269043e+000
1.993942e+003,-5.231812e+000
1.994906e+003,-2.641113e+000
1.995871e+003,-3.966064e-001
1.996835e+003,3.187256e-001
1.997799e+003,3.454590e-002
1.998763e+003,-1.235962e+000
1.999728e+003,-3.284790e+000
