5.003444e+002,3.684224e+001
5.013087e+002,3.635612e+001
5.022729e+002,3.638127e+001
5.032371e+002,3.679628e+001
5.042014e+002,3.668489e+001
5.051656e+002,3.613651e+001
5.061298e+002,3.522432e+001
5.070941e+002,3.385005e+001
5.080583e+002,3.158707e+001
5.090225e+002,3.109494e+001
5.099868e+002,3.352538e+001
5.109510e+002,3.591010e+001
5.119152e+002,3.668288e+001
5.128795e+002,3.570058e+001
5.138437e+002,3.458893e+001
5.148079e+002,3.399545e+001
5.157722e+002,3.338438e+001
5.167364e+002,3.218150e+001
5.177006e+002,3.048886e+001
5.186649e+002,2.918330e+001
5.196291e+002,3.028619e+001
5.205933e+002,3.201913e+001
5.215576e+002,3.163992e+001
5.225218e+002,2.904425e+001
5.234860e+002,2.599286e+001
5.244503e+002,2.588544e+001
5.254145e+002,3.022246e+001
5.263787e+002,3.194652e+001
5.273430e+002,2.937155e+001
5.283072e+002,2.534093e+001
5.292714e+002,2.395027e+001
5.302357e+002,2.700885e+001
5.311999e+002,2.834975e+001
5.321641e+002,2.619069e+001
5.331284e+002,2.345021e+001
5.340926e+002,2.259671e+001
5.350568e+002,2.459164e+001
5.360211e+002,2.646867e+001
5.369853e+002,2.554091e+001
5.379495e+002,2.349380e+001
5.389138e+002,2.120139e+001
5.398780e+002,1.916008e+001
5.408422e+002,1.760991e+001
5.418065e+002,1.769678e+001
5.427707e+002,1.912991e+001
5.437349e+002,1.970969e+001
5.446992e+002,1.850790e+001
5.456634e+002,1.624902e+001
5.466276e+002,1.557156e+001
5.475919e+002,1.895422e+001
5.485561e+002,2.101497e+001
5.495203e+002,2.087715e+001
5.504846e+002,1.943018e+001
5.514488e+002,1.792404e+001
5.524130e+002,1.668645e+001
5.533773e+002,1.586903e+001
5.543415e+002,1.555450e+001
5.553057e+002,1.555658e+001
5.562700e+002,1.574652e+001
5.572342e+002,1.602187e+001
5.581984e+002,1.622218e+001
5.591627e+002,1.592680e+001
5.601269e+002,1.542451e+001
5.610911e+002,1.519855e+001
5.620554e+002,1.547772e+001
5.630196e+002,1.612885e+001
5.639838e+002,1.641292e+001
5.649481e+002,1.634460e+001
5.659123e+002,1.592172e+001
5.668765e+002,1.505611e+001
5.678408e+002,1.400259e+001
5.688050e+002,1.327547e+001
5.697692e+002,1.295506e+001
5.707335e+002,1.264928e+001
5.716977e+002,1.223669e+001
5.726619e+002,1.186559e+001
5.736262e+002,1.182664e+001
5.745904e+002,1.241589e+001
5.755546e+002,1.310374e+001
5.765189e+002,1.286841e+001
5.774831e+002,1.197238e+001
5.784473e+002,1.097403e+001
5.794116e+002,1.031265e+001
5.803758e+002,1.005415e+001
5.813400e+002,1.002234e+001
5.823043e+002,1.037206e+001
5.832685e+002,1.003676e+001
5.842327e+002,8.034698e+000
5.851970e+002,4.888718e+000
5.861612e+002,3.499847e+000
5.871254e+002,6.116806e+000
5.880897e+002,8.406342e+000
5.890539e+002,9.813019e+000
5.900181e+002,1.022145e+001
5.909824e+002,9.420334e+000
5.919466e+002,6.698914e+000
5.929108e+002,4.195511e+000
5.938751e+002,4.478531e+000
5.948393e+002,6.284943e+000
5.958035e+002,7.727997e+000
5.967678e+002,7.448624e+000
5.977320e+002,5.768585e+000
5.986962e+002,4.550430e+000
5.996605e+002,3.508591e+000
6.006247e+002,3.097351e+000
6.015889e+002,4.115234e+000
6.025532e+002,6.392075e+000
6.035174e+002,7.209686e+000
6.044816e+002,4.688049e+000
6.054459e+002,2.668762e+000
6.064101e+002,1.846741e+000
6.073743e+002,1.857010e+000
6.083386e+002,1.944794e+000
6.093028e+002,1.724564e+000
6.102670e+002,1.631271e+000
6.112313e+002,1.578598e+000
6.121955e+002,1.890259e+000
6.131597e+002,3.358917e+000
6.141240e+002,6.461929e+000
6.150882e+002,1.033122e+001
6.160524e+002,1.097307e+001
6.170167e+002,9.037903e+000
6.179809e+002,6.726349e+000
6.189451e+002,4.731537e+000
6.199094e+002,3.041382e+000
6.208736e+002,2.037521e+000
6.218378e+002,2.545868e+000
6.228021e+002,3.135101e+000
6.237663e+002,3.916763e+000
6.247305e+002,4.692764e+000
6.256948e+002,5.104172e+000
6.266590e+002,4.822083e+000
6.276232e+002,4.236588e+000
6.285875e+002,3.595779e+000
6.295517e+002,3.053711e+000
6.305159e+002,2.728424e+000
6.314802e+002,2.648056e+000
6.324444e+002,2.702942e+000
6.334086e+002,2.826279e+000
6.343729e+002,3.083038e+000
6.353371e+002,3.488129e+000
6.363013e+002,4.126205e+000
6.372656e+002,4.700729e+000
6.382298e+002,4.221939e+000
6.391940e+002,1.121185e+000
6.401583e+002,-1.087357e+000
6.411225e+002,-1.830200e+000
6.420867e+002,-1.694870e+000
6.430510e+002,-1.417999e+000
6.440152e+002,-1.254196e+000
6.449794e+002,-1.119400e+000
6.459437e+002,-9.762726e-001
6.469079e+002,-8.235626e-001
6.478721e+002,-4.577637e-001
6.488364e+002,1.261139e-001
6.498006e+002,5.205383e-001
6.507648e+002,-5.333862e-001
6.517291e+002,-2.358109e+000
6.526933e+002,-2.950958e+000
6.536575e+002,-1.873734e+000
6.546218e+002,-1.780853e-001
6.555860e+002,5.702209e-002
6.565502e+002,-2.424454e+000
6.575145e+002,-3.712051e+000
6.584787e+002,-3.107697e+000
6.594429e+002,-2.025146e+000
6.604072e+002,-1.364441e+000
6.613714e+002,-1.205872e+000
6.623356e+002,-1.807449e+000
6.632999e+002,-4.913803e+000
6.642641e+002,-7.578552e+000
6.652283e+002,-7.566711e+000
6.661926e+002,-5.145416e+000
6.671568e+002,-2.538330e+000
6.681210e+002,-2.644714e+000
6.690853e+002,-4.439178e+000
6.700495e+002,-5.003799e+000
6.710137e+002,-4.283020e+000
6.719780e+002,-2.742416e+000
6.729422e+002,-7.769470e-001
6.739064e+002,1.774719e+000
6.748707e+002,3.345703e+000
6.758349e+002,3.645844e+000
6.767991e+002,3.576645e+000
6.777634e+002,3.685593e+000
6.787276e+002,3.974396e+000
6.796918e+002,3.820251e+000
6.806561e+002,2.391037e+000
6.816203e+002,8.500977e-001
6.825845e+002,-7.247620e-001
6.835488e+002,-2.012726e+000
6.845130e+002,-2.514145e+000
6.854772e+002,-1.783142e+000
6.864415e+002,-2.220154e-001
6.874057e+002,1.273087e+000
6.883699e+002,2.505707e+000
6.893342e+002,3.212997e+000
6.902984e+002,3.280869e+000
6.912626e+002,2.752548e+000
6.922269e+002,1.663025e+000
6.931911e+002,-7.720032e-001
6.941553e+002,-2.339340e+000
6.951196e+002,-2.701096e+000
6.960838e+002,-2.372604e+000
6.970480e+002,-2.018631e+000
6.980123e+002,-1.649338e+000
6.989765e+002,-1.411179e+000
6.999407e+002,-1.442963e+000
7.009050e+002,-1.574097e+000
7.018692e+002,-1.691895e+000
7.028334e+002,-1.764542e+000
7.037977e+002,-1.867523e+000
7.047619e+002,-2.312485e+000
7.057261e+002,-2.616760e+000
7.066904e+002,-1.665894e+000
7.076546e+002,7.053223e-001
7.086188e+002,3.412598e+000
7.095831e+002,4.709686e+000
7.105473e+002,4.039307e+000
7.115115e+002,3.307022e+000
7.124758e+002,2.568420e+000
7.134400e+002,1.659760e+000
7.144042e+002,2.523499e-001
7.153685e+002,-1.566299e+000
7.163327e+002,-2.652618e+000
7.172969e+002,-1.566177e+000
7.182612e+002,-4.108276e-001
7.192254e+002,-1.833038e-001
7.201896e+002,-6.311493e-001
7.211539e+002,-9.390411e-001
7.221181e+002,-3.523102e-001
7.230823e+002,5.675201e-001
7.240466e+002,2.318420e-001
7.250108e+002,-9.981232e-001
7.259750e+002,-2.299332e+000
7.269393e+002,-3.432693e+000
7.279035e+002,-4.391479e+000
7.288677e+002,-4.134857e+000
7.298320e+002,2.908936e-001
7.307962e+002,2.656250e+000
7.317604e+002,8.494263e-001
7.327247e+002,-2.538315e+000
7.336889e+002,-3.734482e+000
7.346531e+002,-1.246475e+000
7.356174e+002,7.850494e-001
7.365816e+002,-1.120453e-001
7.375458e+002,-1.756760e+000
7.385101e+002,-2.628693e+000
7.394743e+002,-2.291580e+000
7.404385e+002,-1.331833e+000
7.414028e+002,-5.703888e-001
7.423670e+002,-2.308655e-001
7.433312e+002,-1.431274e-001
7.442955e+002,-1.408234e-001
7.452597e+002,-2.104187e-002
7.462239e+002,3.550110e-001
7.471882e+002,9.659576e-001
7.481524e+002,1.701828e+000
7.491166e+002,2.758713e+000
7.500809e+002,3.365677e+000
7.510451e+002,3.144287e+000
7.520093e+002,2.221115e+000
7.529736e+002,1.044006e+000
7.539378e+002,-3.713379e-001
7.549020e+002,-1.347260e+000
7.558663e+002,-1.387466e+000
7.568306e+002,-8.756714e-001
7.577948e+002,-3.558960e-001
7.587590e+002,-1.926117e-001
7.597233e+002,-2.864838e-001
7.606875e+002,-3.884888e-002
7.616517e+002,5.809326e-001
7.626160e+002,1.071182e+000
7.635802e+002,1.309021e+000
7.645444e+002,1.399155e+000
7.655087e+002,1.516983e+000
7.664729e+002,1.632935e+000
7.674371e+002,1.760880e+000
7.684014e+002,1.595108e+000
7.693656e+002,1.670746e+000
7.703298e+002,2.661270e+000
7.712941e+002,4.503815e+000
7.722583e+002,5.945938e+000
7.732225e+002,5.761627e+000
7.741868e+002,5.034271e+000
7.751510e+002,4.347031e+000
7.761152e+002,3.877457e+000
7.770795e+002,3.837677e+000
7.780437e+002,4.407806e+000
7.790079e+002,5.443085e+000
7.799722e+002,6.032135e+000
7.809364e+002,6.263763e+000
7.819006e+002,6.031311e+000
7.828649e+002,4.664978e+000
7.838291e+002,2.885559e+000
7.847933e+002,3.187286e+000
7.857576e+002,7.772354e+000
7.867218e+002,1.036102e+001
7.876860e+002,9.230225e+000
7.886503e+002,6.688751e+000
7.896145e+002,4.230698e+000
7.905787e+002,2.398468e+000
7.915430e+002,1.379730e+000
7.925072e+002,1.777695e+000
7.934714e+002,2.736053e+000
7.944357e+002,3.783752e+000
7.953999e+002,4.774933e+000
7.963641e+002,5.253662e+000
7.973284e+002,4.609818e+000
7.982926e+002,2.739929e+000
7.992568e+002,1.826355e+000
8.002211e+002,1.719986e+000
8.011853e+002,1.923477e+000
8.021495e+002,2.797653e+000
8.031138e+002,4.217804e+000
8.040780e+002,5.141968e+000
8.050422e+002,4.736038e+000
8.060065e+002,4.527695e+000
8.069707e+002,5.201248e+000
8.079349e+002,6.030319e+000
8.088992e+002,6.332260e+000
8.098634e+002,5.928604e+000
8.108276e+002,5.278793e+000
8.117919e+002,4.856583e+000
8.127561e+002,4.428940e+000
8.137203e+002,3.907242e+000
8.146846e+002,3.410614e+000
8.156488e+002,3.093857e+000
8.166130e+002,3.085800e+000
8.175773e+002,3.428696e+000
8.185415e+002,3.613129e+000
8.195057e+002,3.487701e+000
8.204700e+002,3.207657e+000
8.214342e+002,2.461746e+000
8.223984e+002,1.611496e+000
8.233627e+002,1.737152e+000
8.243269e+002,3.920822e+000
8.252911e+002,5.770386e+000
8.262554e+002,5.333145e+000
8.272196e+002,4.231491e+000
8.281838e+002,4.416214e+000
8.291481e+002,6.400314e+000
8.301123e+002,8.709671e+000
8.310765e+002,8.536087e+000
8.320408e+002,6.091263e+000
8.330050e+002,5.084549e+000
8.339692e+002,6.084656e+000
8.349335e+002,7.452637e+000
8.358977e+002,7.317184e+000
8.368619e+002,5.380463e+000
8.378262e+002,4.695724e+000
8.387904e+002,6.814270e+000
8.397546e+002,8.300552e+000
8.407189e+002,8.094574e+000
8.416831e+002,6.754089e+000
8.426473e+002,5.135468e+000
8.436116e+002,3.418640e+000
8.445758e+002,2.461685e+000
8.455400e+002,3.685089e+000
8.465043e+002,5.597626e+000
8.474685e+002,6.625046e+000
8.484327e+002,6.465408e+000
8.493970e+002,5.935822e+000
8.503612e+002,6.255829e+000
8.513254e+002,7.538101e+000
8.522897e+002,8.668610e+000
8.532539e+002,9.587112e+000
8.542181e+002,1.030322e+001
8.551824e+002,1.084593e+001
8.561466e+002,1.137209e+001
8.571108e+002,1.227873e+001
8.580751e+002,1.419125e+001
8.590393e+002,1.506082e+001
8.600035e+002,1.362532e+001
8.609678e+002,1.139912e+001
8.619320e+002,9.891556e+000
8.628962e+002,9.740662e+000
8.638605e+002,1.061983e+001
8.648247e+002,1.279553e+001
8.657889e+002,1.539540e+001
8.667532e+002,1.633943e+001
8.677174e+002,1.535800e+001
8.686816e+002,1.387915e+001
8.696459e+002,1.353781e+001
8.706101e+002,1.452666e+001
8.715743e+002,1.576616e+001
8.725386e+002,1.767372e+001
8.735028e+002,1.931197e+001
8.744670e+002,2.049039e+001
8.754313e+002,2.105844e+001
8.763955e+002,2.072707e+001
8.773597e+002,1.917688e+001
8.783240e+002,1.774117e+001
8.792882e+002,1.722307e+001
8.802524e+002,1.722406e+001
8.812167e+002,1.767825e+001
8.821809e+002,1.841545e+001
8.831451e+002,1.906120e+001
8.841094e+002,1.912654e+001
8.850736e+002,1.872752e+001
8.860378e+002,1.866504e+001
8.870021e+002,1.876378e+001
8.879663e+002,1.938281e+001
8.889305e+002,2.118033e+001
8.898948e+002,2.373822e+001
8.908590e+002,2.497409e+001
8.918232e+002,2.381705e+001
8.927875e+002,2.304550e+001
8.937517e+002,2.347807e+001
8.947159e+002,2.432530e+001
8.956802e+002,2.478497e+001
8.966444e+002,2.466853e+001
8.976086e+002,2.454417e+001
8.985729e+002,2.519948e+001
8.995371e+002,2.627609e+001
9.005013e+002,2.705829e+001
9.014656e+002,2.758661e+001
9.024298e+002,2.791263e+001
9.033940e+002,2.796056e+001
9.043583e+002,2.771373e+001
9.053225e+002,2.780618e+001
9.062867e+002,2.866690e+001
9.072510e+002,2.913304e+001
9.082152e+002,2.911230e+001
9.091794e+002,2.899892e+001
9.101437e+002,2.910886e+001
9.111079e+002,2.947842e+001
9.120721e+002,3.001749e+001
9.130364e+002,3.113248e+001
9.140006e+002,3.175154e+001
9.149648e+002,3.111340e+001
9.159291e+002,2.964156e+001
9.168933e+002,2.793301e+001
9.178575e+002,2.638039e+001
9.188218e+002,2.523187e+001
9.197860e+002,2.603683e+001
9.207502e+002,2.884161e+001
9.217145e+002,3.006573e+001
9.226787e+002,2.816397e+001
9.236429e+002,2.550853e+001
9.246072e+002,2.553409e+001
9.255714e+002,2.889290e+001
9.265356e+002,3.097342e+001
9.274999e+002,3.037727e+001
9.284641e+002,2.899648e+001
9.294283e+002,2.697729e+001
9.303926e+002,2.482785e+001
9.313568e+002,2.315581e+001
9.323210e+002,2.226724e+001
9.332853e+002,2.185918e+001
9.342495e+002,2.173213e+001
9.352137e+002,2.167375e+001
9.361780e+002,2.133743e+001
9.371422e+002,2.074870e+001
9.381064e+002,2.041122e+001
9.390707e+002,2.091066e+001
9.400349e+002,2.223778e+001
9.409991e+002,2.365099e+001
9.419634e+002,2.582967e+001
9.429276e+002,2.717531e+001
9.438918e+002,2.699799e+001
9.448561e+002,2.586078e+001
9.458203e+002,2.465012e+001
9.467845e+002,2.360127e+001
9.477488e+002,2.269835e+001
9.487130e+002,2.169392e+001
9.496772e+002,2.093579e+001
9.506415e+002,2.087563e+001
9.516057e+002,2.141217e+001
9.525699e+002,2.199187e+001
9.535342e+002,2.204665e+001
9.544984e+002,2.166048e+001
9.554626e+002,2.215912e+001
9.564269e+002,2.406616e+001
9.573911e+002,2.520361e+001
9.583553e+002,2.466202e+001
9.593196e+002,2.308310e+001
9.602838e+002,2.119116e+001
9.612480e+002,1.857941e+001
9.622123e+002,1.738771e+001
9.631765e+002,1.987869e+001
9.641407e+002,2.232483e+001
9.651050e+002,2.285725e+001
9.660692e+002,2.187186e+001
9.670334e+002,2.064436e+001
9.679977e+002,2.001852e+001
9.689619e+002,1.990160e+001
9.699261e+002,2.007944e+001
9.708904e+002,2.034605e+001
9.718546e+002,2.026715e+001
9.728188e+002,1.960712e+001
9.737831e+002,1.893672e+001
9.747473e+002,1.915359e+001
9.757115e+002,2.052173e+001
9.766758e+002,2.156677e+001
9.776400e+002,2.145027e+001
9.786042e+002,2.222533e+001
9.795685e+002,2.555600e+001
9.805327e+002,2.938678e+001
9.814969e+002,3.093201e+001
9.824612e+002,2.932817e+001
9.834254e+002,2.670589e+001
9.843896e+002,2.472137e+001
9.853539e+002,2.283611e+001
9.863181e+002,2.012143e+001
9.872823e+002,1.677556e+001
9.882466e+002,1.416631e+001
9.892108e+002,1.360669e+001
9.901750e+002,1.491711e+001
9.911393e+002,1.566173e+001
9.921035e+002,1.500792e+001
9.930677e+002,1.446289e+001
9.940320e+002,1.389923e+001
9.949962e+002,1.382381e+001
9.959604e+002,1.501025e+001
9.969247e+002,1.744478e+001
9.978889e+002,1.954280e+001
9.988531e+002,1.999577e+001
9.998174e+002,2.027162e+001
1.000782e+003,2.136607e+001
1.001746e+003,2.303914e+001
1.002710e+003,2.507651e+001
1.003674e+003,2.723279e+001
1.004639e+003,2.893927e+001
1.005603e+003,2.909706e+001
1.006567e+003,2.748010e+001
1.007531e+003,2.672493e+001
1.008495e+003,2.739502e+001
1.009460e+003,2.781107e+001
1.010424e+003,2.675848e+001
1.011388e+003,2.464836e+001
1.012352e+003,2.309428e+001
1.013317e+003,2.257314e+001
1.014281e+003,2.187012e+001
1.015245e+003,2.020395e+001
1.016209e+003,1.848685e+001
1.017174e+003,1.764717e+001
1.018138e+003,1.753500e+001
1.019102e+003,1.714607e+001
1.020066e+003,1.566008e+001
1.021031e+003,1.350661e+001
1.021995e+003,1.161371e+001
1.022959e+003,9.833466e+000
1.023923e+003,8.074905e+000
1.024887e+003,6.036591e+000
1.025852e+003,4.425308e+000
1.026816e+003,4.835632e+000
1.027780e+003,8.130768e+000
1.028744e+003,9.744110e+000
1.029709e+003,7.906250e+000
1.030673e+003,5.997787e+000
1.031637e+003,4.971664e+000
1.032601e+003,4.414078e+000
1.033566e+003,3.529633e+000
1.034530e+003,2.092163e+000
1.035494e+003,9.915009e-001
1.036458e+003,1.281296e+000
1.037422e+003,2.466629e+000
1.038387e+003,4.087311e+000
1.039351e+003,5.927032e+000
1.040315e+003,6.954132e+000
1.041279e+003,6.313721e+000
1.042244e+003,4.477661e+000
1.043208e+003,3.576843e+000
1.044172e+003,4.158020e+000
1.045136e+003,4.602264e+000
1.046101e+003,5.163925e+000
1.047065e+003,5.419327e+000
1.048029e+003,5.038010e+000
1.048993e+003,4.050720e+000
1.049958e+003,2.560318e+000
1.050922e+003,2.644196e-001
1.051886e+003,-1.419434e+000
1.052850e+003,-6.085815e-001
1.053814e+003,1.338257e+000
1.054779e+003,2.770264e+000
1.055743e+003,3.289520e+000
1.056707e+003,3.434219e+000
1.057671e+003,3.864059e+000
1.058636e+003,4.560043e+000
1.059600e+003,4.895691e+000
1.060564e+003,4.871994e+000
1.061528e+003,4.786667e+000
1.062493e+003,4.460983e+000
1.063457e+003,4.022110e+000
1.064421e+003,3.680771e+000
1.065385e+003,3.503677e+000
1.066349e+003,3.419159e+000
1.067314e+003,3.557297e+000
1.068278e+003,3.577209e+000
1.069242e+003,3.022964e+000
1.070206e+003,2.323334e+000
1.071171e+003,2.229141e+000
1.072135e+003,2.939850e+000
1.073099e+003,3.742950e+000
1.074063e+003,3.455170e+000
1.075028e+003,1.934250e+000
1.075992e+003,1.950439e+000
1.076956e+003,4.767532e+000
1.077920e+003,6.594742e+000
1.078885e+003,5.608093e+000
1.079849e+003,3.044449e+000
1.080813e+003,6.946564e-001
1.081777e+003,-1.467209e+000
1.082741e+003,-1.876404e+000
1.083706e+003,2.959198e+000
1.084670e+003,7.244781e+000
1.085634e+003,7.167725e+000
1.086598e+003,4.094788e+000
1.087563e+003,1.037231e+000
1.088527e+003,-2.225647e-001
1.089491e+003,-2.772522e-001
1.090455e+003,-4.884644e-001
1.091420e+003,-9.698181e-001
1.092384e+003,-3.494263e-002
1.093348e+003,3.382019e+000
1.094312e+003,6.117111e+000
1.095276e+003,5.957626e+000
1.096241e+003,3.849106e+000
1.097205e+003,2.510284e+000
1.098169e+003,2.430954e+000
1.099133e+003,2.338486e+000
1.100098e+003,1.935898e+000
1.101062e+003,1.304779e+000
1.102026e+003,2.042236e-001
1.102990e+003,-1.049301e+000
1.103955e+003,-1.827011e+000
1.104919e+003,-1.777695e+000
1.105883e+003,-1.261078e+000
1.106847e+003,-1.041794e+000
1.107812e+003,-1.116974e+000
1.108776e+003,-5.080261e-001
1.109740e+003,1.094620e+000
1.110704e+003,2.833862e+000
1.111668e+003,4.614243e+000
1.112633e+003,6.227997e+000
1.113597e+003,6.149536e+000
1.114561e+003,3.032181e+000
1.115525e+003,8.558197e-001
1.116490e+003,1.649979e+000
1.117454e+003,2.865936e+000
1.118418e+003,2.925735e+000
1.119382e+003,2.065262e+000
1.120347e+003,1.167587e+000
1.121311e+003,6.990051e-001
1.122275e+003,7.285767e-001
1.123239e+003,1.948059e+000
1.124203e+003,4.333939e+000
1.125168e+003,5.761551e+000
1.126132e+003,5.618774e+000
1.127096e+003,5.799896e+000
1.128060e+003,8.293304e+000
1.129025e+003,1.236801e+001
1.129989e+003,1.455040e+001
1.130953e+003,1.378290e+001
1.131917e+003,1.284511e+001
1.132882e+003,1.247728e+001
1.133846e+003,1.230968e+001
1.134810e+003,1.177460e+001
1.135774e+003,1.130376e+001
1.136739e+003,1.201894e+001
1.137703e+003,1.451471e+001
1.138667e+003,1.775526e+001
1.139631e+003,2.009077e+001
1.140595e+003,2.147125e+001
1.141560e+003,2.196056e+001
1.142524e+003,2.097279e+001
1.143488e+003,2.149292e+001
1.144452e+003,2.652568e+001
1.145417e+003,3.468253e+001
1.146381e+003,4.063695e+001
1.147345e+003,4.310306e+001
1.148309e+003,4.636394e+001
1.149274e+003,5.154041e+001
1.150238e+003,5.773705e+001
1.151202e+003,6.520718e+001
1.152166e+003,7.331493e+001
1.153130e+003,8.137413e+001
1.154095e+003,8.884508e+001
1.155059e+003,9.488884e+001
1.156023e+003,9.871271e+001
1.156987e+003,9.994888e+001
1.157952e+003,9.743384e+001
1.158916e+003,9.082870e+001
1.159880e+003,8.377344e+001
1.160844e+003,7.799033e+001
1.161809e+003,7.271173e+001
1.162773e+003,6.641652e+001
1.163737e+003,5.874469e+001
1.164701e+003,5.168120e+001
1.165666e+003,4.589716e+001
1.166630e+003,4.083215e+001
1.167594e+003,3.633818e+001
1.168558e+003,3.239294e+001
1.169522e+003,2.885378e+001
1.170487e+003,2.578444e+001
1.171451e+003,2.389711e+001
1.172415e+003,2.422670e+001
1.173379e+003,2.606453e+001
1.174344e+003,2.552930e+001
1.175308e+003,2.256177e+001
1.176272e+003,2.001218e+001
1.177236e+003,1.873692e+001
1.178201e+003,1.842915e+001
1.179165e+003,1.908614e+001
1.180129e+003,2.066216e+001
1.181093e+003,2.085934e+001
1.182057e+003,1.799310e+001
1.183022e+003,1.560756e+001
1.183986e+003,1.529718e+001
1.184950e+003,1.584064e+001
1.185914e+003,1.614186e+001
1.186879e+003,1.606180e+001
1.187843e+003,1.608545e+001
1.188807e+003,1.657899e+001
1.189771e+003,1.738568e+001
1.190736e+003,1.831180e+001
1.191700e+003,1.944269e+001
1.192664e+003,1.943788e+001
1.193628e+003,1.760419e+001
1.194593e+003,1.549678e+001
1.195557e+003,1.397548e+001
1.196521e+003,1.302341e+001
1.197485e+003,1.284247e+001
1.198449e+003,1.391019e+001
1.199414e+003,1.438951e+001
1.200378e+003,1.240979e+001
1.201342e+003,1.052798e+001
1.202306e+003,1.082918e+001
1.203271e+003,1.239336e+001
1.204235e+003,1.294595e+001
1.205199e+003,1.147139e+001
1.206163e+003,9.344788e+000
1.207128e+003,8.918823e+000
1.208092e+003,1.033875e+001
1.209056e+003,1.033223e+001
1.210020e+003,8.451019e+000
1.210984e+003,6.374481e+000
1.211949e+003,4.062012e+000
1.212913e+003,2.077835e+000
1.213877e+003,1.794266e+000
1.214841e+003,3.191605e+000
1.215806e+003,2.938873e+000
1.216770e+003,-1.531219e+000
1.217734e+003,-5.991333e+000
1.218698e+003,-7.379883e+000
1.219663e+003,-7.269989e+000
1.220627e+003,-7.514023e+000
1.221591e+003,-8.457870e+000
1.222555e+003,-9.293045e+000
1.223520e+003,-9.232849e+000
1.224484e+003,-8.549896e+000
1.225448e+003,-8.751434e+000
1.226412e+003,-1.062517e+001
1.227376e+003,-1.164555e+001
1.228341e+003,-1.162053e+001
1.229305e+003,-1.106453e+001
1.230269e+003,-9.774216e+000
1.231233e+003,-8.292862e+000
1.232198e+003,-7.724716e+000
1.233162e+003,-8.350616e+000
1.234126e+003,-9.079758e+000
1.235090e+003,-9.018051e+000
1.236055e+003,-8.939835e+000
1.237019e+003,-9.865341e+000
1.237983e+003,-1.145502e+001
1.238947e+003,-1.256975e+001
1.239911e+003,-1.270268e+001
1.240876e+003,-1.273820e+001
1.241840e+003,-1.427155e+001
1.242804e+003,-1.749332e+001
1.243768e+003,-1.863765e+001
1.244733e+003,-1.570088e+001
1.245697e+003,-1.319899e+001
1.246661e+003,-1.123497e+001
1.247625e+003,-1.016631e+001
1.248590e+003,-1.072342e+001
1.249554e+003,-1.227261e+001
1.250518e+003,-1.314510e+001
1.251482e+003,-1.260419e+001
1.252447e+003,-1.167850e+001
1.253411e+003,-1.177628e+001
1.254375e+003,-1.211821e+001
1.255339e+003,-1.074448e+001
1.256303e+003,-7.652832e+000
1.257268e+003,-5.236618e+000
1.258232e+003,-5.013947e+000
1.259196e+003,-6.251938e+000
1.260160e+003,-7.669495e+000
1.261125e+003,-9.436890e+000
1.262089e+003,-9.728485e+000
1.263053e+003,-6.542023e+000
1.264017e+003,-4.294449e+000
1.264982e+003,-4.485962e+000
1.265946e+003,-5.647675e+000
1.266910e+003,-6.804810e+000
1.267874e+003,-7.514526e+000
1.268839e+003,-7.173248e+000
1.269803e+003,-5.342041e+000
1.270767e+003,-3.219406e+000
1.271731e+003,-3.377121e+000
1.272695e+003,-5.682922e+000
1.273660e+003,-6.702316e+000
1.274624e+003,-6.120087e+000
1.275588e+003,-5.251999e+000
1.276552e+003,-4.350082e+000
1.277517e+003,-3.656494e+000
1.278481e+003,-3.829651e+000
1.279445e+003,-4.984695e+000
1.280409e+003,-6.254822e+000
1.281374e+003,-7.416046e+000
1.282338e+003,-8.535812e+000
1.283302e+003,-1.019611e+001
1.284266e+003,-1.153658e+001
1.285230e+003,-1.091789e+001
1.286195e+003,-8.727692e+000
1.287159e+003,-7.602158e+000
1.288123e+003,-9.690247e+000
1.289087e+003,-1.341927e+001
1.290052e+003,-1.403993e+001
1.291016e+003,-1.028397e+001
1.291980e+003,-8.142410e+000
1.292944e+003,-8.510910e+000
1.293909e+003,-9.311417e+000
1.294873e+003,-9.794846e+000
1.295837e+003,-1.009644e+001
1.296801e+003,-1.061946e+001
1.297766e+003,-1.135117e+001
1.298730e+003,-1.145946e+001
1.299694e+003,-1.014847e+001
1.300658e+003,-8.859573e+000
1.301622e+003,-9.623306e+000
1.302587e+003,-1.122362e+001
1.303551e+003,-1.148633e+001
1.304515e+003,-1.014726e+001
1.305479e+003,-9.117722e+000
1.306444e+003,-1.009958e+001
1.307408e+003,-1.242975e+001
1.308372e+003,-1.380681e+001
1.309336e+003,-1.421503e+001
1.310301e+003,-1.368065e+001
1.311265e+003,-1.074261e+001
1.312229e+003,-8.607315e+000
1.313193e+003,-8.646042e+000
1.314157e+003,-9.708008e+000
1.315122e+003,-1.081212e+001
1.316086e+003,-1.164912e+001
1.317050e+003,-1.213043e+001
1.318014e+003,-1.215013e+001
1.318979e+003,-1.180154e+001
1.319943e+003,-1.115883e+001
1.320907e+003,-1.027591e+001
1.321871e+003,-1.000374e+001
1.322836e+003,-1.075040e+001
1.323800e+003,-1.115819e+001
1.324764e+003,-9.989151e+000
1.325728e+003,-8.265701e+000
1.326693e+003,-7.921402e+000
1.327657e+003,-9.078186e+000
1.328621e+003,-1.009769e+001
1.329585e+003,-1.056134e+001
1.330549e+003,-1.031056e+001
1.331514e+003,-8.871033e+000
1.332478e+003,-7.449707e+000
1.333442e+003,-7.246338e+000
1.334406e+003,-8.100525e+000
1.335371e+003,-9.225037e+000
1.336335e+003,-1.010390e+001
1.337299e+003,-1.045107e+001
1.338263e+003,-9.661926e+000
1.339228e+003,-7.512878e+000
1.340192e+003,-6.302856e+000
1.341156e+003,-6.243576e+000
1.342120e+003,-6.730591e+000
1.343084e+003,-8.443039e+000
1.344049e+003,-1.014517e+001
1.345013e+003,-1.057689e+001
1.345977e+003,-1.000046e+001
1.346941e+003,-9.684113e+000
1.347906e+003,-1.012872e+001
1.348870e+003,-1.019455e+001
1.349834e+003,-8.048599e+000
1.350798e+003,-5.569046e+000
1.351763e+003,-6.766434e+000
1.352727e+003,-1.090907e+001
1.353691e+003,-1.373222e+001
1.354655e+003,-1.358311e+001
1.355620e+003,-1.201479e+001
1.356584e+003,-1.061456e+001
1.357548e+003,-9.343384e+000
1.358512e+003,-8.014877e+000
1.359476e+003,-6.391754e+000
1.360441e+003,-5.628235e+000
1.361405e+003,-6.400024e+000
1.362369e+003,-7.559464e+000
1.363333e+003,-9.050461e+000
1.364298e+003,-1.033589e+001
1.365262e+003,-1.066621e+001
1.366226e+003,-9.967514e+000
1.367190e+003,-8.831650e+000
1.368155e+003,-7.770798e+000
1.369119e+003,-6.870438e+000
1.370083e+003,-6.373459e+000
1.371047e+003,-6.201218e+000
1.372011e+003,-6.791382e+000
1.372976e+003,-9.755371e+000
1.373940e+003,-1.151869e+001
1.374904e+003,-9.594711e+000
1.375868e+003,-6.444214e+000
1.376833e+003,-5.145584e+000
1.377797e+003,-5.892197e+000
1.378761e+003,-7.416077e+000
1.379725e+003,-9.557510e+000
1.380690e+003,-1.105428e+001
1.381654e+003,-1.011455e+001
1.382618e+003,-7.887070e+000
1.383582e+003,-5.669876e+000
1.384547e+003,-3.631439e+000
1.385511e+003,-1.816223e+000
1.386475e+003,-1.119385e-001
1.387439e+003,7.181702e-001
1.388403e+003,-1.074554e+000
1.389368e+003,-5.485016e+000
1.390332e+003,-8.157974e+000
1.391296e+003,-8.327896e+000
1.392260e+003,-7.899780e+000
1.393225e+003,-6.966278e+000
1.394189e+003,-6.041183e+000
1.395153e+003,-5.384186e+000
1.396117e+003,-4.939072e+000
1.397082e+003,-4.509003e+000
1.398046e+003,-4.069427e+000
1.399010e+003,-3.882629e+000
1.399974e+003,-4.251038e+000
1.400938e+003,-5.071655e+000
1.401903e+003,-5.751633e+000
1.402867e+003,-6.038727e+000
1.403831e+003,-6.221039e+000
1.404795e+003,-6.502014e+000
1.405760e+003,-6.627518e+000
1.406724e+003,-6.667236e+000
1.407688e+003,-6.673981e+000
1.408652e+003,-6.589630e+000
1.409617e+003,-6.300720e+000
1.410581e+003,-5.562485e+000
1.411545e+003,-4.151230e+000
1.412509e+003,-2.990341e+000
1.413474e+003,-3.414337e+000
1.414438e+003,-4.537201e+000
1.415402e+003,-4.672104e+000
1.416366e+003,-3.848450e+000
1.417330e+003,-2.838791e+000
1.418295e+003,-1.796616e+000
1.419259e+003,-1.203979e+000
1.420223e+003,-2.126022e+000
1.421187e+003,-4.228333e+000
1.422152e+003,-4.872803e+000
1.423116e+003,-3.331299e+000
1.424080e+003,-2.245865e+000
1.425044e+003,-2.906693e+000
1.426009e+003,-3.725754e+000
1.426973e+003,-4.138229e+000
1.427937e+003,-4.305573e+000
1.428901e+003,-4.435226e+000
1.429865e+003,-4.512558e+000
1.430830e+003,-4.339310e+000
1.431794e+003,-3.833267e+000
1.432758e+003,-3.298187e+000
1.433722e+003,-3.256973e+000
1.434687e+003,-3.652802e+000
1.435651e+003,-3.642365e+000
1.436615e+003,-3.499344e+000
1.437579e+003,-3.110672e+000
1.438544e+003,-2.132721e+000
1.439508e+003,-1.170303e+000
1.440472e+003,-3.521271e-001
1.441436e+003,1.671448e-001
1.442401e+003,-1.936493e-001
1.443365e+003,-1.445877e+000
1.444329e+003,-2.206482e+000
1.445293e+003,-1.279434e+000
1.446257e+003,3.350220e-001
1.447222e+003,5.638123e-001
1.448186e+003,-3.120728e-001
1.449150e+003,-6.171265e-001
1.450114e+003,-4.409790e-003
1.451079e+003,2.172852e-001
1.452043e+003,-1.447708e+000
1.453007e+003,-3.182587e+000
1.453971e+003,-1.767319e+000
1.454936e+003,2.184738e+000
1.455900e+003,3.848602e+000
1.456864e+003,1.604095e+000
1.457828e+003,-6.268768e-001
1.458792e+003,-4.010925e-001
1.459757e+003,4.914398e-001
1.460721e+003,8.259277e-001
1.461685e+003,6.426392e-001
1.462649e+003,1.044159e-001
1.463614e+003,-6.642303e-001
1.464578e+003,-1.352493e+000
1.465542e+003,-1.687698e+000
1.466506e+003,-1.852966e+000
1.467471e+003,-2.501892e+000
1.468435e+003,-3.933334e+000
1.469399e+003,-3.843826e+000
1.470363e+003,-9.286957e-001
1.471328e+003,1.669662e+000
1.472292e+003,3.679688e+000
1.473256e+003,4.594315e+000
1.474220e+003,3.538055e+000
1.475184e+003,1.507172e+000
1.476149e+003,1.241913e-001
1.477113e+003,-9.654236e-002
1.478077e+003,2.641449e-001
1.479041e+003,7.293701e-001
1.480006e+003,1.370270e+000
1.480970e+003,2.295273e+000
1.481934e+003,3.741394e+000
1.482898e+003,3.960739e+000
1.483863e+003,1.653885e+000
1.484827e+003,5.058289e-002
1.485791e+003,4.841461e-001
1.486755e+003,1.692276e+000
1.487719e+003,2.568466e+000
1.488684e+003,3.104630e+000
1.489648e+003,3.677505e+000
1.490612e+003,4.462753e+000
1.491576e+003,5.608994e+000
1.492541e+003,7.367310e+000
1.493505e+003,9.240341e+000
1.494469e+003,9.885834e+000
1.495433e+003,9.479630e+000
1.496398e+003,9.739532e+000
1.497362e+003,1.111205e+001
1.498326e+003,1.282217e+001
1.499290e+003,1.465324e+001
1.500255e+003,1.643443e+001
1.501219e+003,1.752187e+001
1.502183e+003,1.817960e+001
1.503147e+003,2.022719e+001
1.504111e+003,2.431105e+001
1.505076e+003,2.848958e+001
1.506040e+003,3.155508e+001
1.507004e+003,3.435547e+001
1.507968e+003,3.742970e+001
1.508933e+003,4.098512e+001
1.509897e+003,4.546767e+001
1.510861e+003,5.108456e+001
1.511825e+003,5.758990e+001
1.512790e+003,6.476221e+001
1.513754e+003,7.252560e+001
1.514718e+003,8.126582e+001
1.515682e+003,9.086983e+001
1.516646e+003,9.900633e+001
1.517611e+003,1.052621e+002
1.518575e+003,1.108613e+002
1.519539e+003,1.164323e+002
1.520503e+003,1.213849e+002
1.521468e+003,1.257394e+002
1.522432e+003,1.290022e+002
1.523396e+003,1.307027e+002
1.524360e+003,1.306583e+002
1.525325e+003,1.286536e+002
1.526289e+003,1.245753e+002
1.527253e+003,1.192361e+002
1.528217e+003,1.140277e+002
1.529182e+003,1.090411e+002
1.530146e+003,1.033391e+002
1.531110e+003,9.693979e+001
1.532074e+003,8.953003e+001
1.533039e+003,8.059331e+001
1.534003e+003,7.095862e+001
1.534967e+003,6.009377e+001
1.535931e+003,4.972090e+001
1.536896e+003,4.173360e+001
1.537860e+003,3.609897e+001
1.538824e+003,3.176958e+001
1.539788e+003,2.805975e+001
1.540752e+003,2.430743e+001
1.541717e+003,1.955919e+001
1.542681e+003,1.430103e+001
1.543645e+003,1.125449e+001
1.544609e+003,1.169209e+001
1.545573e+003,1.142715e+001
1.546538e+003,9.442749e+000
1.547502e+003,7.862549e+000
1.548466e+003,8.070618e+000
1.549430e+003,8.766861e+000
1.550395e+003,8.147919e+000
1.551359e+003,6.724899e+000
1.552323e+003,6.770126e+000
1.553287e+003,8.961151e+000
1.554252e+003,1.099356e+001
1.555216e+003,1.084018e+001
1.556180e+003,9.137115e+000
1.557144e+003,7.046783e+000
1.558109e+003,4.603546e+000
1.559073e+003,3.444214e+000
1.560037e+003,4.199890e+000
1.561001e+003,4.695435e+000
1.561966e+003,3.769684e+000
1.562930e+003,2.938995e+000
1.563894e+003,3.942474e+000
1.564858e+003,5.970245e+000
1.565823e+003,6.955643e+000
1.566787e+003,6.518875e+000
1.567751e+003,5.793854e+000
1.568715e+003,5.371216e+000
1.569679e+003,5.152222e+000
1.570644e+003,4.986069e+000
1.571608e+003,4.842636e+000
1.572572e+003,4.769135e+000
1.573536e+003,4.821152e+000
1.574500e+003,5.084167e+000
1.575465e+003,5.738312e+000
1.576429e+003,6.302048e+000
1.577393e+003,6.359131e+000
1.578357e+003,6.007492e+000
1.579322e+003,5.315948e+000
1.580286e+003,4.388321e+000
1.581250e+003,3.935349e+000
1.582214e+003,4.159561e+000
1.583179e+003,4.953461e+000
1.584143e+003,6.546707e+000
1.585107e+003,8.315536e+000
1.586071e+003,9.913742e+000
1.587036e+003,1.116901e+001
1.588000e+003,1.097256e+001
1.588964e+003,8.929672e+000
1.589928e+003,6.920547e+000
1.590893e+003,6.134781e+000
1.591857e+003,6.165085e+000
1.592821e+003,6.595505e+000
1.593785e+003,7.358932e+000
1.594750e+003,7.899246e+000
1.595714e+003,8.028076e+000
1.596678e+003,8.511398e+000
1.597642e+003,1.006047e+001
1.598606e+003,1.147496e+001
1.599571e+003,1.150404e+001
1.600535e+003,1.107115e+001
1.601499e+003,1.147577e+001
1.602463e+003,1.259834e+001
1.603427e+003,1.340283e+001
1.604392e+003,1.349020e+001
1.605356e+003,1.306059e+001
1.606320e+003,1.188814e+001
1.607284e+003,1.050139e+001
1.608249e+003,1.066928e+001
1.609213e+003,1.246304e+001
1.610177e+003,1.358374e+001
1.611141e+003,1.355739e+001
1.612106e+003,1.309210e+001
1.613070e+003,1.239644e+001
1.614034e+003,1.146130e+001
1.614998e+003,9.596420e+000
1.615963e+003,7.773163e+000
1.616927e+003,7.940720e+000
1.617891e+003,1.010727e+001
1.618855e+003,1.218968e+001
1.619820e+003,1.295857e+001
1.620784e+003,1.279666e+001
1.621748e+003,1.196310e+001
1.622712e+003,1.082001e+001
1.623677e+003,1.128479e+001
1.624641e+003,1.386617e+001
1.625605e+003,1.511176e+001
1.626569e+003,1.328555e+001
1.627533e+003,1.125989e+001
1.628498e+003,1.013705e+001
1.629462e+003,9.847992e+000
1.630426e+003,1.073318e+001
1.631390e+003,1.226506e+001
1.632354e+003,1.337793e+001
1.633319e+003,1.383263e+001
1.634283e+003,1.430321e+001
1.635247e+003,1.541046e+001
1.636211e+003,1.638843e+001
1.637176e+003,1.551808e+001
1.638140e+003,1.302637e+001
1.639104e+003,1.186339e+001
1.640068e+003,1.230559e+001
1.641033e+003,1.321567e+001
1.641997e+003,1.514691e+001
1.642961e+003,1.638754e+001
1.643925e+003,1.581750e+001
1.644890e+003,1.444600e+001
1.645854e+003,1.284940e+001
1.646818e+003,1.136264e+001
1.647782e+003,1.055028e+001
1.648747e+003,1.055594e+001
1.649711e+003,1.098026e+001
1.650675e+003,1.159862e+001
1.651639e+003,1.234973e+001
1.652604e+003,1.309326e+001
1.653568e+003,1.377115e+001
1.654532e+003,1.382323e+001
1.655496e+003,1.290927e+001
1.656460e+003,1.253677e+001
1.657425e+003,1.406689e+001
1.658389e+003,1.501826e+001
1.659353e+003,1.380002e+001
1.660317e+003,1.156461e+001
1.661281e+003,8.613586e+000
1.662246e+003,5.826324e+000
1.663210e+003,5.747711e+000
1.664174e+003,9.093719e+000
1.665138e+003,1.226256e+001
1.666103e+003,1.202863e+001
1.667067e+003,9.868317e+000
1.668031e+003,8.631424e+000
1.668995e+003,8.310211e+000
1.669960e+003,8.651566e+000
1.670924e+003,1.004683e+001
1.671888e+003,1.039148e+001
1.672852e+003,8.006775e+000
1.673817e+003,5.822327e+000
1.674781e+003,5.932877e+000
1.675745e+003,6.997391e+000
1.676709e+003,7.856583e+000
1.677674e+003,8.324615e+000
1.678638e+003,8.190292e+000
1.679602e+003,7.398575e+000
1.680566e+003,6.642410e+000
1.681531e+003,6.538086e+000
1.682495e+003,6.781281e+000
1.683459e+003,6.836304e+000
1.684423e+003,6.660416e+000
1.685387e+003,6.314575e+000
1.686352e+003,5.863998e+000
1.687316e+003,4.838898e+000
1.688280e+003,2.390625e+000
1.689244e+003,6.395264e-001
1.690208e+003,2.158081e+000
1.691173e+003,4.492874e+000
1.692137e+003,4.801651e+000
1.693101e+003,3.674088e+000
1.694065e+003,3.302856e+000
1.695030e+003,4.181442e+000
1.695994e+003,4.720169e+000
1.696958e+003,3.560669e+000
1.697922e+003,2.114502e+000
1.698887e+003,2.614029e+000
1.699851e+003,4.215164e+000
1.700815e+003,3.868332e+000
1.701779e+003,1.348785e+000
1.702744e+003,-9.878540e-002
1.703708e+003,7.980804e-001
1.704672e+003,2.303741e+000
1.705636e+003,3.438385e+000
1.706601e+003,3.991028e+000
1.707565e+003,3.726242e+000
1.708529e+003,2.817627e+000
1.709493e+003,1.357758e+000
1.710458e+003,-7.975159e-001
1.711422e+003,-2.151077e+000
1.712386e+003,-1.784439e+000
1.713350e+003,-6.576843e-001
1.714314e+003,8.991089e-001
1.715279e+003,2.337784e+000
1.716243e+003,2.552414e+000
1.717207e+003,1.790466e+000
1.718171e+003,1.769684e+000
1.719135e+003,2.980942e+000
1.720100e+003,3.305374e+000
1.721064e+003,9.609528e-001
1.722028e+003,-1.978500e+000
1.722992e+003,-2.324615e+000
1.723957e+003,-5.027008e-001
1.724921e+003,6.251984e-001
1.725885e+003,9.412842e-001
1.726849e+003,6.670990e-001
1.727814e+003,-1.115189e+000
1.728778e+003,-1.924362e+000
1.729742e+003,2.690125e-001
1.730706e+003,2.988007e+000
1.731671e+003,3.914459e+000
1.732635e+003,3.278412e+000
1.733599e+003,1.671280e+000
1.734563e+003,-3.366699e-001
1.735528e+003,-1.105286e+000
1.736492e+003,1.790619e-001
1.737456e+003,1.464706e+000
1.738420e+003,1.781616e-001
1.739385e+003,-2.763748e+000
1.740349e+003,-3.696960e+000
1.741313e+003,-2.047623e+000
1.742277e+003,-1.016907e+000
1.743241e+003,-9.933014e-001
1.744206e+003,-8.150330e-001
1.745170e+003,-3.290253e-001
1.746134e+003,2.540588e-001
1.747098e+003,1.030365e+000
1.748063e+003,1.670441e+000
1.749027e+003,1.902756e+000
1.749991e+003,1.671127e+000
1.750955e+003,7.390137e-001
1.751919e+003,-8.097076e-001
1.752884e+003,-2.084381e+000
1.753848e+003,-2.341995e+000
1.754812e+003,-1.966125e+000
1.755776e+003,-1.612411e+000
1.756741e+003,-1.227661e+000
1.757705e+003,-1.147858e+000
1.758669e+003,-1.339172e+000
1.759633e+003,-2.145706e+000
1.760598e+003,-4.838791e+000
1.761562e+003,-6.441330e+000
1.762526e+003,-5.067474e+000
1.763490e+003,-3.232864e+000
1.764455e+003,-2.723511e+000
1.765419e+003,-2.921982e+000
1.766383e+003,-2.694977e+000
1.767347e+003,-1.989212e+000
1.768312e+003,-1.439209e+000
1.769276e+003,-1.361450e+000
1.770240e+003,-1.594162e+000
1.771204e+003,-1.851334e+000
1.772168e+003,-2.196487e+000
1.773133e+003,-3.122299e+000
1.774097e+003,-4.528961e+000
1.775061e+003,-5.373993e+000
1.776025e+003,-5.621002e+000
1.776990e+003,-5.331024e+000
1.777954e+003,-4.273392e+000
1.778918e+003,-2.992416e+000
1.779882e+003,-1.826248e+000
1.780846e+003,-8.223572e-001
1.781811e+003,1.751862e-001
1.782775e+003,1.051605e+000
1.783739e+003,1.289169e+000
1.784703e+003,7.950134e-001
1.785668e+003,2.074585e-001
1.786632e+003,-3.290558e-001
1.787596e+003,-9.007874e-001
1.788560e+003,-1.619247e+000
1.789525e+003,-2.187485e+000
1.790489e+003,-2.234451e+000
1.791453e+003,-1.889496e+000
1.792417e+003,-1.341263e+000
1.793382e+003,-7.139740e-001
1.794346e+003,-7.722931e-001
1.795310e+003,-2.006180e+000
1.796274e+003,-3.109329e+000
1.797239e+003,-2.400101e+000
1.798203e+003,-5.387115e-001
1.799167e+003,8.638000e-002
1.800131e+003,-8.362579e-001
1.801095e+003,-1.942062e+000
1.802060e+003,-4.051239e+000
1.803024e+003,-4.739456e+000
1.803988e+003,-2.651276e+000
1.804952e+003,-5.842438e-001
1.805917e+003,1.622620e-001
1.806881e+003,2.296753e-001
1.807845e+003,4.772797e-001
1.808809e+003,6.452179e-001
1.809773e+003,-5.138092e-001
1.810738e+003,-2.788483e+000
1.811702e+003,-3.781372e+000
1.812666e+003,-2.039841e+000
1.813630e+003,6.620636e-001
1.814595e+003,2.082306e+000
1.815559e+003,2.263031e+000
1.816523e+003,1.184601e+000
1.817487e+003,-1.294449e+000
1.818452e+003,-3.230927e+000
1.819416e+003,-4.623154e+000
1.820380e+003,-4.989456e+000
1.821344e+003,-3.715424e+000
1.822309e+003,-2.212814e+000
1.823273e+003,-8.853760e-001
1.824237e+003,3.343201e-002
1.825201e+003,5.021667e-002
1.826166e+003,-5.751038e-001
1.827130e+003,-9.642944e-001
1.828094e+003,-1.018478e+000
1.829058e+003,-1.960449e+000
1.830022e+003,-5.158737e+000
1.830987e+003,-7.588959e+000
1.831951e+003,-6.065079e+000
1.832915e+003,-2.750351e+000
1.833879e+003,-4.412231e-001
1.834844e+003,8.427582e-001
1.835808e+003,1.632767e+000
1.836772e+003,1.994934e+000
1.837736e+003,1.331833e+000
1.838700e+003,-7.012787e-001
1.839665e+003,-2.573685e+000
1.840629e+003,-2.835968e+000
1.841593e+003,-2.004715e+000
1.842557e+003,-1.111984e+000
1.843522e+003,-1.709595e-001
1.844486e+003,1.402893e-001
1.845450e+003,-8.298950e-001
1.846414e+003,-9.810181e-001
1.847379e+003,4.166718e-001
1.848343e+003,1.388229e+000
1.849307e+003,1.760757e+000
1.850271e+003,1.181229e+000
1.851236e+003,-1.795181e+000
1.852200e+003,-5.035172e+000
1.853164e+003,-5.356033e+000
1.854128e+003,-3.269821e+000
1.855093e+003,-1.678314e+000
1.856057e+003,-1.595856e+000
1.857021e+003,-1.556152e+000
1.857985e+003,-3.010559e-001
1.858949e+003,1.213760e+000
1.859914e+003,1.077850e+000
1.860878e+003,-2.779083e-001
1.861842e+003,-3.409424e-001
1.862806e+003,9.163513e-001
1.863771e+003,1.686630e+000
1.864735e+003,1.617310e+000
1.865699e+003,1.112289e+000
1.866663e+003,7.273865e-002
1.867627e+003,-6.840973e-001
1.868592e+003,-1.318207e-001
1.869556e+003,8.499908e-001
1.870520e+003,5.161285e-001
1.871484e+003,-8.879700e-001
1.872449e+003,-1.686981e+000
1.873413e+003,-1.523483e+000
1.874377e+003,-7.563782e-001
1.875341e+003,1.232071e+000
1.876306e+003,2.538162e+000
1.877270e+003,1.526199e+000
1.878234e+003,-1.325531e-001
1.879198e+003,-1.130295e+000
1.880163e+003,-1.250748e+000
1.881127e+003,2.372894e-001
1.882091e+003,2.710541e+000
1.883055e+003,3.579193e+000
1.884020e+003,1.965057e+000
1.884984e+003,3.872986e-001
1.885948e+003,1.164749e+000
1.886912e+003,3.153671e+000
1.887876e+003,4.151123e+000
1.888841e+003,4.201889e+000
1.889805e+003,3.441971e+000
1.890769e+003,1.421875e+000
1.891733e+003,1.251892e+000
1.892698e+003,4.393845e+000
1.893662e+003,6.380646e+000
1.894626e+003,5.218369e+000
1.895590e+003,3.150177e+000
1.896554e+003,9.875336e-001
1.897519e+003,-6.314850e-001
1.898483e+003,-6.064148e-001
1.899447e+003,5.368652e-001
1.900411e+003,1.100311e+000
1.901376e+003,8.007507e-001
1.902340e+003,5.930328e-001
1.903304e+003,1.021957e+000
1.904268e+003,1.307419e+000
1.905233e+003,5.388641e-001
1.906197e+003,-1.403809e-001
1.907161e+003,9.267578e-001
1.908125e+003,2.738373e+000
1.909090e+003,3.108856e+000
1.910054e+003,2.199081e+000
1.911018e+003,1.972122e+000
1.911982e+003,3.038071e+000
1.912947e+003,4.174927e+000
1.913911e+003,4.468735e+000
1.914875e+003,4.118103e+000
1.915839e+003,3.312897e+000
1.916803e+003,2.214447e+000
1.917768e+003,2.007690e+000
1.918732e+003,2.921875e+000
1.919696e+003,3.483734e+000
1.920660e+003,3.429962e+000
1.921625e+003,3.894867e+000
1.922589e+003,5.764572e+000
1.923553e+003,7.049377e+000
1.924517e+003,6.091522e+000
1.925481e+003,4.648743e+000
1.926446e+003,4.347168e+000
1.927410e+003,4.653580e+000
1.928374e+003,4.394058e+000
1.929338e+003,3.493317e+000
1.930303e+003,2.673828e+000
1.931267e+003,2.041855e+000
1.932231e+003,2.064987e+000
1.933195e+003,3.588470e+000
1.934160e+003,4.944946e+000
1.935124e+003,4.742203e+000
1.936088e+003,3.793167e+000
1.937052e+003,2.849136e+000
1.938017e+003,2.226593e+000
1.938981e+003,2.515427e+000
1.939945e+003,3.507797e+000
1.940909e+003,3.992249e+000
1.941874e+003,3.447845e+000
1.942838e+003,2.703293e+000
1.943802e+003,2.577362e+000
1.944766e+003,2.910400e+000
1.945730e+003,3.281479e+000
1.946695e+003,3.637863e+000
1.947659e+003,3.941986e+000
1.948623e+003,4.185364e+000
1.949587e+003,4.232819e+000
1.950552e+003,4.004807e+000
1.951516e+003,4.048843e+000
1.952480e+003,4.784866e+000
1.953444e+003,5.294846e+000
1.954408e+003,4.643814e+000
1.955373e+003,3.626480e+000
1.956337e+003,3.704575e+000
1.957301e+003,4.480270e+000
1.958265e+003,3.982849e+000
1.959230e+003,1.881546e+000
1.960194e+003,1.121780e+000
1.961158e+003,2.315460e+000
1.962122e+003,4.335968e+000
1.963087e+003,8.735092e+000
1.964051e+003,1.168677e+001
1.965015e+003,9.803925e+000
1.965979e+003,6.604004e+000
1.966944e+003,5.546722e+000
1.967908e+003,5.924896e+000
1.968872e+003,5.794464e+000
1.969836e+003,4.923019e+000
1.970801e+003,4.161743e+000
1.971765e+003,3.905502e+000
1.972729e+003,4.120209e+000
1.973693e+003,4.797729e+000
1.974657e+003,5.833694e+000
1.975622e+003,7.377716e+000
1.976586e+003,9.005554e+000
1.977550e+003,9.586746e+000
1.978514e+003,9.250031e+000
1.979479e+003,8.527237e+000
1.980443e+003,7.552277e+000
1.981407e+003,7.373383e+000
1.982371e+003,8.464874e+000
1.983335e+003,9.232010e+000
1.984300e+003,8.335419e+000
1.985264e+003,6.943298e+000
1.986228e+003,6.979462e+000
1.987192e+003,8.046295e+000
1.988157e+003,8.004654e+000
1.989121e+003,6.442902e+000
1.990085e+003,6.094803e+000
1.991049e+003,7.880447e+000
1.992014e+003,9.100204e+000
1.992978e+003,9.264877e+000
1.993942e+003,8.969864e+000
1.994906e+003,7.603409e+000
1.995871e+003,6.688919e+000
1.996835e+003,8.120285e+000
1.997799e+003,1.029462e+001
1.998763e+003,1.073592e+001
1.999728e+003,9.577271e+000
