5.003444e+002,4.264040e+001
5.013087e+002,4.343373e+001
5.022729e+002,4.363393e+001
5.032371e+002,4.315744e+001
5.042014e+002,4.130170e+001
5.051656e+002,3.836870e+001
5.061298e+002,3.585376e+001
5.070941e+002,3.511266e+001
5.080583e+002,3.641338e+001
5.090225e+002,3.785614e+001
5.099868e+002,4.028773e+001
5.109510e+002,4.199139e+001
5.119152e+002,4.170915e+001
5.128795e+002,3.926625e+001
5.138437e+002,3.728088e+001
5.148079e+002,3.710620e+001
5.157722e+002,3.719565e+001
5.167364e+002,3.681602e+001
5.177006e+002,3.591005e+001
5.186649e+002,3.507529e+001
5.196291e+002,3.542996e+001
5.205933e+002,3.622536e+001
5.215576e+002,3.664394e+001
5.225218e+002,3.642599e+001
5.234860e+002,3.537457e+001
5.244503e+002,3.316324e+001
5.254145e+002,2.939034e+001
5.263787e+002,2.702554e+001
5.273430e+002,2.632840e+001
5.283072e+002,2.682964e+001
5.292714e+002,2.812500e+001
5.302357e+002,3.100061e+001
5.311999e+002,3.250401e+001
5.321641e+002,3.155301e+001
5.331284e+002,3.016345e+001
5.340926e+002,3.008916e+001
5.350568e+002,3.202400e+001
5.360211e+002,3.364917e+001
5.369853e+002,3.257892e+001
5.379495e+002,3.059380e+001
5.389138e+002,2.907658e+001
5.398780e+002,2.852692e+001
5.408422e+002,2.838211e+001
5.418065e+002,2.686424e+001
5.427707e+002,2.423250e+001
5.437349e+002,2.239651e+001
5.446992e+002,2.194992e+001
5.456634e+002,2.255318e+001
5.466276e+002,2.304942e+001
5.475919e+002,2.355792e+001
5.485561e+002,2.383415e+001
5.495203e+002,2.360216e+001
5.504846e+002,2.314307e+001
5.514488e+002,2.295392e+001
5.524130e+002,2.347377e+001
5.533773e+002,2.380324e+001
5.543415e+002,2.335965e+001
5.553057e+002,2.260323e+001
5.562700e+002,2.203287e+001
5.572342e+002,2.193541e+001
5.581984e+002,2.195047e+001
5.591627e+002,2.110927e+001
5.601269e+002,1.981474e+001
5.610911e+002,1.879977e+001
5.620554e+002,1.843745e+001
5.630196e+002,1.858191e+001
5.639838e+002,1.824222e+001
5.649481e+002,1.640190e+001
5.659123e+002,1.554688e+001
5.668765e+002,1.708893e+001
5.678408e+002,2.009805e+001
5.688050e+002,2.169656e+001
5.697692e+002,1.991200e+001
5.707335e+002,1.800475e+001
5.716977e+002,1.707942e+001
5.726619e+002,1.669188e+001
5.736262e+002,1.611443e+001
5.745904e+002,1.482419e+001
5.755546e+002,1.342064e+001
5.765189e+002,1.251651e+001
5.774831e+002,1.205196e+001
5.784473e+002,1.235083e+001
5.794116e+002,1.366138e+001
5.803758e+002,1.581821e+001
5.813400e+002,1.557562e+001
5.823043e+002,1.177632e+001
5.832685e+002,8.947647e+000
5.842327e+002,9.649002e+000
5.851970e+002,1.320676e+001
5.861612e+002,1.476917e+001
5.871254e+002,1.041872e+001
5.880897e+002,7.514725e+000
5.890539e+002,8.483780e+000
5.900181e+002,1.158736e+001
5.909824e+002,1.375752e+001
5.919466e+002,1.287393e+001
5.929108e+002,1.099892e+001
5.938751e+002,1.037982e+001
5.948393e+002,1.053656e+001
5.958035e+002,1.085628e+001
5.967678e+002,1.088950e+001
5.977320e+002,1.065790e+001
5.986962e+002,9.707748e+000
5.996605e+002,7.831146e+000
6.006247e+002,6.549469e+000
6.015889e+002,6.854813e+000
6.025532e+002,8.627991e+000
6.035174e+002,9.899124e+000
6.044816e+002,1.051714e+001
6.054459e+002,1.073077e+001
6.064101e+002,1.040877e+001
6.073743e+002,9.711090e+000
6.083386e+002,8.874100e+000
6.093028e+002,7.944763e+000
6.102670e+002,7.110107e+000
6.112313e+002,6.288361e+000
6.121955e+002,5.655945e+000
6.131597e+002,5.527924e+000
6.141240e+002,6.102921e+000
6.150882e+002,7.128708e+000
6.160524e+002,7.567322e+000
6.170167e+002,7.566650e+000
6.179809e+002,7.518417e+000
6.189451e+002,7.514893e+000
6.199094e+002,7.522034e+000
6.208736e+002,7.606201e+000
6.218378e+002,8.406754e+000
6.228021e+002,8.685516e+000
6.237663e+002,7.914368e+000
6.247305e+002,6.689835e+000
6.256948e+002,5.971985e+000
6.266590e+002,6.240112e+000
6.276232e+002,6.593689e+000
6.285875e+002,6.464981e+000
6.295517e+002,6.221832e+000
6.305159e+002,6.168243e+000
6.314802e+002,6.459579e+000
6.324444e+002,7.026123e+000
6.334086e+002,8.340103e+000
6.343729e+002,1.006815e+001
6.353371e+002,1.058994e+001
6.363013e+002,9.042374e+000
6.372656e+002,6.209137e+000
6.382298e+002,5.002167e+000
6.391940e+002,7.545334e+000
6.401583e+002,8.948227e+000
6.411225e+002,8.574890e+000
6.420867e+002,7.521637e+000
6.430510e+002,7.171143e+000
6.440152e+002,8.163559e+000
6.449794e+002,8.481079e+000
6.459437e+002,6.177795e+000
6.469079e+002,3.537872e+000
6.478721e+002,2.654266e+000
6.488364e+002,4.099411e+000
6.498006e+002,6.304886e+000
6.507648e+002,6.389511e+000
6.517291e+002,4.970749e+000
6.526933e+002,3.324722e+000
6.536575e+002,1.623688e+000
6.546218e+002,3.132019e-001
6.555860e+002,3.035889e-001
6.565502e+002,2.501114e+000
6.575145e+002,4.138214e+000
6.584787e+002,5.140594e+000
6.594429e+002,5.748123e+000
6.604072e+002,6.126328e+000
6.613714e+002,6.300674e+000
6.623356e+002,6.230072e+000
6.632999e+002,5.633652e+000
6.642641e+002,4.906952e+000
6.652283e+002,4.431091e+000
6.661926e+002,4.170059e+000
6.671568e+002,3.626343e+000
6.681210e+002,1.813873e+000
6.690853e+002,-3.834076e-001
6.700495e+002,-5.159454e-001
6.710137e+002,1.354065e+000
6.719780e+002,3.747787e+000
6.729422e+002,5.155624e+000
6.739064e+002,5.470856e+000
6.748707e+002,4.986099e+000
6.758349e+002,2.959915e+000
6.767991e+002,1.193405e+000
6.777634e+002,6.884613e-001
6.787276e+002,1.337936e+000
6.796918e+002,1.830002e+000
6.806561e+002,1.091370e+000
6.816203e+002,6.509399e-001
6.825845e+002,1.420166e+000
6.835488e+002,2.835556e+000
6.845130e+002,3.901093e+000
6.854772e+002,3.854675e+000
6.864415e+002,3.338226e+000
6.874057e+002,3.721542e+000
6.883699e+002,4.653900e+000
6.893342e+002,5.606171e+000
6.902984e+002,6.357742e+000
6.912626e+002,6.841690e+000
6.922269e+002,6.417511e+000
6.931911e+002,3.560226e+000
6.941553e+002,2.159470e+000
6.951196e+002,3.810287e+000
6.960838e+002,6.508911e+000
6.970480e+002,6.758224e+000
6.980123e+002,2.484650e+000
6.989765e+002,-5.958099e-001
6.999407e+002,3.556366e-001
7.009050e+002,2.757904e+000
7.018692e+002,4.978928e+000
7.028334e+002,6.258377e+000
7.037977e+002,6.579956e+000
7.047619e+002,5.461258e+000
7.057261e+002,3.579117e+000
7.066904e+002,2.005768e+000
7.076546e+002,9.170990e-001
7.086188e+002,5.473022e-001
7.095831e+002,1.402771e+000
7.105473e+002,4.255157e+000
7.115115e+002,5.636688e+000
7.124758e+002,4.967728e+000
7.134400e+002,3.705627e+000
7.144042e+002,2.376282e+000
7.153685e+002,1.105865e+000
7.163327e+002,6.707764e-001
7.172969e+002,2.873611e+000
7.182612e+002,4.681625e+000
7.192254e+002,4.385818e+000
7.201896e+002,2.661682e+000
7.211539e+002,1.097946e+000
7.221181e+002,1.033493e+000
7.230823e+002,1.963593e+000
7.240466e+002,2.635803e+000
7.250108e+002,3.103256e+000
7.259750e+002,3.030807e+000
7.269393e+002,1.996277e+000
7.279035e+002,1.528778e-001
7.288677e+002,-5.178528e-001
7.298320e+002,1.684937e+000
7.307962e+002,3.318558e+000
7.317604e+002,3.811798e+000
7.327247e+002,3.779938e+000
7.336889e+002,4.064392e+000
7.346531e+002,4.890411e+000
7.356174e+002,5.417755e+000
7.365816e+002,5.726959e+000
7.375458e+002,5.548630e+000
7.385101e+002,4.106934e+000
7.394743e+002,1.553207e+000
7.404385e+002,-7.371216e-001
7.414028e+002,-4.020081e-001
7.423670e+002,1.803696e+000
7.433312e+002,2.701843e+000
7.442955e+002,2.109924e+000
7.452597e+002,1.303757e+000
7.462239e+002,1.782974e+000
7.471882e+002,3.989731e+000
7.481524e+002,5.379181e+000
7.491166e+002,5.606384e+000
7.500809e+002,5.351898e+000
7.510451e+002,4.685196e+000
7.520093e+002,3.726639e+000
7.529736e+002,2.726974e+000
7.539378e+002,1.656906e+000
7.549020e+002,1.077301e+000
7.558663e+002,1.584747e+000
7.568306e+002,2.597641e+000
7.577948e+002,3.208313e+000
7.587590e+002,2.881821e+000
7.597233e+002,2.081451e+000
7.606875e+002,2.655991e+000
7.616517e+002,4.448898e+000
7.626160e+002,5.400864e+000
7.635802e+002,4.720306e+000
7.645444e+002,3.234970e+000
7.655087e+002,2.691727e+000
7.664729e+002,3.647018e+000
7.674371e+002,4.318268e+000
7.684014e+002,4.576187e+000
7.693656e+002,4.575836e+000
7.703298e+002,4.089264e+000
7.712941e+002,3.262848e+000
7.722583e+002,3.168320e+000
7.732225e+002,5.482224e+000
7.741868e+002,7.997940e+000
7.751510e+002,8.862289e+000
7.761152e+002,8.411880e+000
7.770795e+002,7.810272e+000
7.780437e+002,8.075745e+000
7.790079e+002,8.987091e+000
7.799722e+002,8.616714e+000
7.809364e+002,6.927490e+000
7.819006e+002,5.226746e+000
7.828649e+002,3.858337e+000
7.838291e+002,2.925385e+000
7.847933e+002,2.722961e+000
7.857576e+002,3.847549e+000
7.867218e+002,4.453766e+000
7.876860e+002,3.707016e+000
7.886503e+002,2.900330e+000
7.896145e+002,3.412064e+000
7.905787e+002,5.480576e+000
7.915430e+002,7.445801e+000
7.925072e+002,6.990005e+000
7.934714e+002,5.599289e+000
7.944357e+002,4.882538e+000
7.953999e+002,5.036743e+000
7.963641e+002,5.705078e+000
7.973284e+002,6.483109e+000
7.982926e+002,7.389297e+000
7.992568e+002,7.980286e+000
8.002211e+002,8.160141e+000
8.011853e+002,7.952988e+000
8.021495e+002,7.472534e+000
8.031138e+002,6.842285e+000
8.040780e+002,6.025208e+000
8.050422e+002,4.320267e+000
8.060065e+002,3.415176e+000
8.069707e+002,4.687485e+000
8.079349e+002,6.305878e+000
8.088992e+002,6.176041e+000
8.098634e+002,3.763367e+000
8.108276e+002,1.032120e+000
8.117919e+002,8.665314e-001
8.127561e+002,2.261520e+000
8.137203e+002,3.669174e+000
8.146846e+002,4.965683e+000
8.156488e+002,5.921692e+000
8.166130e+002,6.160110e+000
8.175773e+002,5.539093e+000
8.185415e+002,4.878052e+000
8.195057e+002,3.855194e+000
8.204700e+002,3.029495e+000
8.214342e+002,2.626297e+000
8.223984e+002,2.572586e+000
8.233627e+002,2.703903e+000
8.243269e+002,3.152176e+000
8.252911e+002,3.462601e+000
8.262554e+002,3.172424e+000
8.272196e+002,2.741302e+000
8.281838e+002,2.700012e+000
8.291481e+002,3.194443e+000
8.301123e+002,3.867386e+000
8.310765e+002,4.101028e+000
8.320408e+002,3.877258e+000
8.330050e+002,3.572586e+000
8.339692e+002,3.188797e+000
8.349335e+002,2.843597e+000
8.358977e+002,2.715393e+000
8.368619e+002,2.887558e+000
8.378262e+002,2.998917e+000
8.387904e+002,2.519852e+000
8.397546e+002,2.452423e+000
8.407189e+002,3.372818e+000
8.416831e+002,4.815704e+000
8.426473e+002,5.941315e+000
8.436116e+002,6.332153e+000
8.445758e+002,6.591904e+000
8.455400e+002,7.413467e+000
8.465043e+002,8.291992e+000
8.474685e+002,8.708694e+000
8.484327e+002,8.611557e+000
8.493970e+002,8.395370e+000
8.503612e+002,8.657318e+000
8.513254e+002,9.538239e+000
8.522897e+002,9.190033e+000
8.532539e+002,6.347473e+000
8.542181e+002,3.942078e+000
8.551824e+002,4.325867e+000
8.561466e+002,7.164108e+000
8.571108e+002,8.851379e+000
8.580751e+002,6.655960e+000
8.590393e+002,5.554611e+000
8.600035e+002,8.709290e+000
8.609678e+002,1.307800e+001
8.619320e+002,1.482663e+001
8.628962e+002,1.254445e+001
8.638605e+002,9.023758e+000
8.648247e+002,8.451904e+000
8.657889e+002,9.846619e+000
8.667532e+002,1.143814e+001
8.677174e+002,1.299043e+001
8.686816e+002,1.414384e+001
8.696459e+002,1.442073e+001
8.706101e+002,1.369777e+001
8.715743e+002,1.334836e+001
8.725386e+002,1.329947e+001
8.735028e+002,1.367465e+001
8.744670e+002,1.463249e+001
8.754313e+002,1.589655e+001
8.763955e+002,1.713509e+001
8.773597e+002,1.839551e+001
8.783240e+002,1.923308e+001
8.792882e+002,1.882211e+001
8.802524e+002,1.815544e+001
8.812167e+002,1.820258e+001
8.821809e+002,1.908211e+001
8.831451e+002,2.022542e+001
8.841094e+002,2.092999e+001
8.850736e+002,2.123460e+001
8.860378e+002,2.123439e+001
8.870021e+002,2.077000e+001
8.879663e+002,2.040788e+001
8.889305e+002,2.042644e+001
8.898948e+002,2.075716e+001
8.908590e+002,2.119716e+001
8.918232e+002,2.188777e+001
8.927875e+002,2.259299e+001
8.937517e+002,2.347533e+001
8.947159e+002,2.421016e+001
8.956802e+002,2.431851e+001
8.966444e+002,2.375725e+001
8.976086e+002,2.311418e+001
8.985729e+002,2.293832e+001
8.995371e+002,2.333630e+001
9.005013e+002,2.466537e+001
9.014656e+002,2.668565e+001
9.024298e+002,2.810548e+001
9.033940e+002,2.780534e+001
9.043583e+002,2.600987e+001
9.053225e+002,2.507806e+001
9.062867e+002,2.554814e+001
9.072510e+002,2.618013e+001
9.082152e+002,2.753871e+001
9.091794e+002,2.884686e+001
9.101437e+002,2.925331e+001
9.111079e+002,2.860825e+001
9.120721e+002,2.764703e+001
9.130364e+002,2.611842e+001
9.140006e+002,2.484386e+001
9.149648e+002,2.430901e+001
9.159291e+002,2.455061e+001
9.168933e+002,2.572025e+001
9.178575e+002,2.784193e+001
9.188218e+002,3.019928e+001
9.197860e+002,3.008342e+001
9.207502e+002,2.739343e+001
9.217145e+002,2.538786e+001
9.226787e+002,2.485423e+001
9.236429e+002,2.527173e+001
9.246072e+002,2.625433e+001
9.255714e+002,2.811174e+001
9.265356e+002,2.852264e+001
9.274999e+002,2.535797e+001
9.284641e+002,2.253320e+001
9.294283e+002,2.176273e+001
9.303926e+002,2.228079e+001
9.313568e+002,2.250737e+001
9.323210e+002,2.162428e+001
9.332853e+002,2.017926e+001
9.342495e+002,1.856770e+001
9.352137e+002,1.708023e+001
9.361780e+002,1.654698e+001
9.371422e+002,1.717918e+001
9.381064e+002,1.822289e+001
9.390707e+002,1.859401e+001
9.400349e+002,1.811221e+001
9.409991e+002,1.758379e+001
9.419634e+002,1.636203e+001
9.429276e+002,1.586343e+001
9.438918e+002,1.742226e+001
9.448561e+002,1.966205e+001
9.458203e+002,2.000369e+001
9.467845e+002,1.738571e+001
9.477488e+002,1.478946e+001
9.487130e+002,1.433315e+001
9.496772e+002,1.487494e+001
9.506415e+002,1.603116e+001
9.516057e+002,1.743689e+001
9.525699e+002,1.847763e+001
9.535342e+002,1.854138e+001
9.544984e+002,1.771059e+001
9.554626e+002,1.691490e+001
9.564269e+002,1.625418e+001
9.573911e+002,1.570393e+001
9.583553e+002,1.494699e+001
9.593196e+002,1.438510e+001
9.602838e+002,1.503468e+001
9.612480e+002,1.746936e+001
9.622123e+002,1.867482e+001
9.631765e+002,1.691731e+001
9.641407e+002,1.470441e+001
9.651050e+002,1.253784e+001
9.660692e+002,1.087691e+001
9.670334e+002,1.042134e+001
9.679977e+002,1.167647e+001
9.689619e+002,1.384673e+001
9.699261e+002,1.509450e+001
9.708904e+002,1.566397e+001
9.718546e+002,1.638368e+001
9.728188e+002,1.742134e+001
9.737831e+002,1.857097e+001
9.747473e+002,1.962305e+001
9.757115e+002,2.060623e+001
9.766758e+002,2.147972e+001
9.776400e+002,2.236137e+001
9.786042e+002,2.312463e+001
9.795685e+002,2.447675e+001
9.805327e+002,2.524969e+001
9.814969e+002,2.336322e+001
9.824612e+002,1.815387e+001
9.834254e+002,1.309727e+001
9.843896e+002,1.214996e+001
9.853539e+002,1.275993e+001
9.863181e+002,1.236732e+001
9.872823e+002,1.080638e+001
9.882466e+002,8.854401e+000
9.892108e+002,7.225571e+000
9.901750e+002,6.032837e+000
9.911393e+002,5.426712e+000
9.921035e+002,5.811340e+000
9.930677e+002,5.716888e+000
9.940320e+002,4.585815e+000
9.949962e+002,3.490402e+000
9.959604e+002,3.410202e+000
9.969247e+002,4.416916e+000
9.978889e+002,5.959518e+000
9.988531e+002,8.471008e+000
9.998174e+002,1.034882e+001
1.000782e+003,1.028728e+001
1.001746e+003,9.267838e+000
1.002710e+003,8.762222e+000
1.003674e+003,9.363144e+000
1.004639e+003,1.040205e+001
1.005603e+003,1.078078e+001
1.006567e+003,1.038165e+001
1.007531e+003,8.737915e+000
1.008495e+003,4.931641e+000
1.009460e+003,1.751663e+000
1.010424e+003,1.257980e+000
1.011388e+003,2.836472e+000
1.012352e+003,4.002884e+000
1.013317e+003,4.504166e+000
1.014281e+003,4.355606e+000
1.015245e+003,2.854050e+000
1.016209e+003,1.402344e+000
1.017174e+003,1.177979e+000
1.018138e+003,2.116669e+000
1.019102e+003,3.414230e+000
1.020066e+003,4.556961e+000
1.021031e+003,5.236908e+000
1.021995e+003,3.857330e+000
1.022959e+003,8.337097e-001
1.023923e+003,-1.392860e+000
1.024887e+003,-2.003822e+000
1.025852e+003,-1.538879e+000
1.026816e+003,-5.813293e-001
1.027780e+003,1.203781e+000
1.028744e+003,2.139366e+000
1.029709e+003,1.363464e+000
1.030673e+003,5.692139e-001
1.031637e+003,3.541718e-001
1.032601e+003,3.309402e-001
1.033566e+003,-1.883469e-001
1.034530e+003,-1.403252e+000
1.035494e+003,-2.530846e+000
1.036458e+003,-2.665154e+000
1.037422e+003,-2.212006e+000
1.038387e+003,-1.978676e+000
1.039351e+003,-1.932518e+000
1.040315e+003,-1.243080e+000
1.041279e+003,9.636459e-001
1.042244e+003,4.076782e+000
1.043208e+003,4.773422e+000
1.044172e+003,7.088699e-001
1.045136e+003,-1.970085e+000
1.046101e+003,-2.543900e+000
1.047065e+003,-2.324287e+000
1.048029e+003,-1.911102e+000
1.048993e+003,-1.459763e+000
1.049958e+003,-1.142471e+000
1.050922e+003,-1.154739e+000
1.051886e+003,-8.793716e-001
1.052850e+003,9.215240e-001
1.053814e+003,3.058548e+000
1.054779e+003,3.827286e+000
1.055743e+003,2.932724e+000
1.056707e+003,1.389732e+000
1.057671e+003,4.038544e-001
1.058636e+003,-3.598785e-002
1.059600e+003,-4.184647e-001
1.060564e+003,-6.398773e-001
1.061528e+003,-7.841034e-001
1.062493e+003,-9.619217e-001
1.063457e+003,-1.132843e+000
1.064421e+003,-1.023399e+000
1.065385e+003,-6.040878e-001
1.066349e+003,-7.681961e-001
1.067314e+003,-2.843987e+000
1.068278e+003,-4.551979e+000
1.069242e+003,-3.875725e+000
1.070206e+003,-1.890892e+000
1.071171e+003,-3.191147e-001
1.072135e+003,6.573486e-002
1.073099e+003,-2.925186e-001
1.074063e+003,-6.566391e-001
1.075028e+003,-1.052696e+000
1.075992e+003,-3.714142e-001
1.076956e+003,2.230576e+000
1.077920e+003,4.213730e+000
1.078885e+003,4.718048e+000
1.079849e+003,4.090965e+000
1.080813e+003,2.626656e+000
1.081777e+003,1.213379e-001
1.082741e+003,-1.794800e+000
1.083706e+003,-2.471291e+000
1.084670e+003,-2.252037e+000
1.085634e+003,-3.950500e-001
1.086598e+003,2.095222e+000
1.087563e+003,3.450966e+000
1.088527e+003,2.754845e+000
1.089491e+003,8.370590e-001
1.090455e+003,-8.803177e-001
1.091420e+003,-2.426712e+000
1.092384e+003,-3.410828e+000
1.093348e+003,-3.789413e+000
1.094312e+003,-3.825111e+000
1.095276e+003,-3.375122e+000
1.096241e+003,-2.626274e+000
1.097205e+003,-2.307724e+000
1.098169e+003,-2.673607e+000
1.099133e+003,-3.137184e+000
1.100098e+003,-3.764496e+000
1.101062e+003,-4.095123e+000
1.102026e+003,-3.882256e+000
1.102990e+003,-3.102867e+000
1.103955e+003,-1.512291e+000
1.104919e+003,9.870911e-001
1.105883e+003,3.370209e+000
1.106847e+003,3.319160e+000
1.107812e+003,7.372284e-001
1.108776e+003,-1.594879e+000
1.109740e+003,-3.630074e+000
1.110704e+003,-5.282455e+000
1.111668e+003,-6.535515e+000
1.112633e+003,-7.295036e+000
1.113597e+003,-7.207375e+000
1.114561e+003,-5.918495e+000
1.115525e+003,-4.640106e+000
1.116490e+003,-3.839195e+000
1.117454e+003,-3.116501e+000
1.118418e+003,-1.762878e+000
1.119382e+003,-2.144470e-001
1.120347e+003,2.632828e-001
1.121311e+003,-1.153038e+000
1.122275e+003,-3.602913e+000
1.123239e+003,-5.352318e+000
1.124203e+003,-6.270081e+000
1.125168e+003,-6.250969e+000
1.126132e+003,-4.952484e+000
1.127096e+003,-3.511795e+000
1.128060e+003,-2.809212e+000
1.129025e+003,-2.739883e+000
1.129989e+003,-2.788551e+000
1.130953e+003,-3.248543e+000
1.131917e+003,-3.109032e+000
1.132882e+003,-1.469315e+000
1.133846e+003,1.971512e-001
1.134810e+003,1.084419e+000
1.135774e+003,1.231186e+000
1.136739e+003,9.346619e-001
1.137703e+003,3.695450e-001
1.138667e+003,-3.239288e-001
1.139631e+003,-9.805984e-001
1.140595e+003,-1.534668e+000
1.141560e+003,-1.535439e+000
1.142524e+003,-8.020477e-001
1.143488e+003,1.088486e-001
1.144452e+003,8.417587e-001
1.145417e+003,1.426224e+000
1.146381e+003,1.949799e+000
1.147345e+003,2.259521e+000
1.148309e+003,2.855133e+000
1.149274e+003,3.631866e+000
1.150238e+003,4.970909e+000
1.151202e+003,7.623962e+000
1.152166e+003,1.091054e+001
1.153130e+003,1.369395e+001
1.154095e+003,1.536831e+001
1.155059e+003,1.604829e+001
1.156023e+003,1.592262e+001
1.156987e+003,1.503204e+001
1.157952e+003,1.374438e+001
1.158916e+003,1.210065e+001
1.159880e+003,1.045418e+001
1.160844e+003,8.757065e+000
1.161809e+003,7.061348e+000
1.162773e+003,5.782326e+000
1.163737e+003,5.131897e+000
1.164701e+003,3.976357e+000
1.165666e+003,7.568436e-001
1.166630e+003,-1.586937e+000
1.167594e+003,-1.105370e+000
1.168558e+003,5.367279e-001
1.169522e+003,9.002457e-001
1.170487e+003,-6.366196e-001
1.171451e+003,-2.488998e+000
1.172415e+003,-2.915062e+000
1.173379e+003,-2.141365e+000
1.174344e+003,-1.003151e+000
1.175308e+003,6.836624e-001
1.176272e+003,1.091789e+000
1.177236e+003,-1.450073e+000
1.178201e+003,-4.688576e+000
1.179165e+003,-5.443123e+000
1.180129e+003,-3.722961e+000
1.181093e+003,-2.983826e+000
1.182057e+003,-4.720375e+000
1.183022e+003,-6.281342e+000
1.183986e+003,-6.982147e+000
1.184950e+003,-6.856346e+000
1.185914e+003,-5.466202e+000
1.186879e+003,-3.195236e+000
1.187843e+003,-1.209618e+000
1.188807e+003,-4.627686e-001
1.189771e+003,-8.829498e-001
1.190736e+003,-2.551376e+000
1.191700e+003,-5.727997e+000
1.192664e+003,-7.209488e+000
1.193628e+003,-5.312523e+000
1.194593e+003,-3.436485e+000
1.195557e+003,-4.448967e+000
1.196521e+003,-7.484863e+000
1.197485e+003,-9.469597e+000
1.198449e+003,-9.817711e+000
1.199414e+003,-9.476608e+000
1.200378e+003,-8.209015e+000
1.201342e+003,-6.996803e+000
1.202306e+003,-6.556038e+000
1.203271e+003,-6.697350e+000
1.204235e+003,-6.781906e+000
1.205199e+003,-6.525024e+000
1.206163e+003,-6.437767e+000
1.207128e+003,-7.477303e+000
1.208092e+003,-9.727737e+000
1.209056e+003,-1.092102e+001
1.210020e+003,-1.068047e+001
1.210984e+003,-1.035383e+001
1.211949e+003,-1.015604e+001
1.212913e+003,-1.020415e+001
1.213877e+003,-1.068953e+001
1.214841e+003,-1.159435e+001
1.215806e+003,-1.260494e+001
1.216770e+003,-1.389983e+001
1.217734e+003,-1.480011e+001
1.218698e+003,-1.452983e+001
1.219663e+003,-1.390647e+001
1.220627e+003,-1.413701e+001
1.221591e+003,-1.524492e+001
1.222555e+003,-1.603056e+001
1.223520e+003,-1.533622e+001
1.224484e+003,-1.362016e+001
1.225448e+003,-1.320795e+001
1.226412e+003,-1.511761e+001
1.227376e+003,-1.609860e+001
1.228341e+003,-1.551008e+001
1.229305e+003,-1.478934e+001
1.230269e+003,-1.465822e+001
1.231233e+003,-1.496806e+001
1.232198e+003,-1.551811e+001
1.233162e+003,-1.628168e+001
1.234126e+003,-1.636508e+001
1.235090e+003,-1.434713e+001
1.236055e+003,-1.216176e+001
1.237019e+003,-1.205961e+001
1.237983e+003,-1.349696e+001
1.238947e+003,-1.489131e+001
1.239911e+003,-1.555067e+001
1.240876e+003,-1.590200e+001
1.241840e+003,-1.666314e+001
1.242804e+003,-1.788854e+001
1.243768e+003,-1.846712e+001
1.244733e+003,-1.800299e+001
1.245697e+003,-1.733839e+001
1.246661e+003,-1.642126e+001
1.247625e+003,-1.552209e+001
1.248590e+003,-1.473662e+001
1.249554e+003,-1.407973e+001
1.250518e+003,-1.362591e+001
1.251482e+003,-1.344595e+001
1.252447e+003,-1.340938e+001
1.253411e+003,-1.332269e+001
1.254375e+003,-1.320688e+001
1.255339e+003,-1.321484e+001
1.256303e+003,-1.331377e+001
1.257268e+003,-1.321156e+001
1.258232e+003,-1.274089e+001
1.259196e+003,-1.210532e+001
1.260160e+003,-1.163081e+001
1.261125e+003,-1.130066e+001
1.262089e+003,-1.094051e+001
1.263053e+003,-1.044737e+001
1.264017e+003,-1.015296e+001
1.264982e+003,-1.043543e+001
1.265946e+003,-1.068716e+001
1.266910e+003,-9.848900e+000
1.267874e+003,-8.351036e+000
1.268839e+003,-8.053612e+000
1.269803e+003,-1.020950e+001
1.270767e+003,-1.342528e+001
1.271731e+003,-1.509086e+001
1.272695e+003,-1.513747e+001
1.273660e+003,-1.461238e+001
1.274624e+003,-1.332819e+001
1.275588e+003,-1.227278e+001
1.276552e+003,-1.201183e+001
1.277517e+003,-1.222295e+001
1.278481e+003,-1.235274e+001
1.279445e+003,-1.237199e+001
1.280409e+003,-1.257526e+001
1.281374e+003,-1.322652e+001
1.282338e+003,-1.383500e+001
1.283302e+003,-1.424729e+001
1.284266e+003,-1.443758e+001
1.285230e+003,-1.438175e+001
1.286195e+003,-1.408594e+001
1.287159e+003,-1.350184e+001
1.288123e+003,-1.256628e+001
1.289087e+003,-1.143541e+001
1.290052e+003,-1.067639e+001
1.291016e+003,-1.031539e+001
1.291980e+003,-1.049963e+001
1.292944e+003,-1.164767e+001
1.293909e+003,-1.283763e+001
1.294873e+003,-1.378745e+001
1.295837e+003,-1.445344e+001
1.296801e+003,-1.467764e+001
1.297766e+003,-1.449228e+001
1.298730e+003,-1.453365e+001
1.299694e+003,-1.548952e+001
1.300658e+003,-1.619117e+001
1.301622e+003,-1.473170e+001
1.302587e+003,-1.237214e+001
1.303551e+003,-1.137122e+001
1.304515e+003,-1.198315e+001
1.305479e+003,-1.236985e+001
1.306444e+003,-1.088856e+001
1.307408e+003,-8.401901e+000
1.308372e+003,-7.879471e+000
1.309336e+003,-1.001440e+001
1.310301e+003,-1.201891e+001
1.311265e+003,-1.457770e+001
1.312229e+003,-1.591195e+001
1.313193e+003,-1.449024e+001
1.314157e+003,-1.225358e+001
1.315122e+003,-1.119505e+001
1.316086e+003,-1.154194e+001
1.317050e+003,-1.242982e+001
1.318014e+003,-1.333571e+001
1.318979e+003,-1.389188e+001
1.319943e+003,-1.326057e+001
1.320907e+003,-1.158992e+001
1.321871e+003,-1.045865e+001
1.322836e+003,-9.952972e+000
1.323800e+003,-1.013935e+001
1.324764e+003,-1.177919e+001
1.325728e+003,-1.374451e+001
1.326693e+003,-1.371939e+001
1.327657e+003,-1.162538e+001
1.328621e+003,-1.073675e+001
1.329585e+003,-1.287968e+001
1.330549e+003,-1.439816e+001
1.331514e+003,-1.267336e+001
1.332478e+003,-1.031099e+001
1.333442e+003,-9.974106e+000
1.334406e+003,-1.141055e+001
1.335371e+003,-1.262056e+001
1.336335e+003,-1.239583e+001
1.337299e+003,-1.147100e+001
1.338263e+003,-1.127059e+001
1.339228e+003,-1.189940e+001
1.340192e+003,-1.224696e+001
1.341156e+003,-1.244588e+001
1.342120e+003,-1.220505e+001
1.343084e+003,-1.135533e+001
1.344049e+003,-1.025723e+001
1.345013e+003,-8.712059e+000
1.345977e+003,-7.129974e+000
1.346941e+003,-6.793762e+000
1.347906e+003,-8.227936e+000
1.348870e+003,-9.997063e+000
1.349834e+003,-1.092435e+001
1.350798e+003,-1.124045e+001
1.351763e+003,-1.145610e+001
1.352727e+003,-1.152930e+001
1.353691e+003,-1.124814e+001
1.354655e+003,-1.047292e+001
1.355620e+003,-9.515312e+000
1.356584e+003,-8.629295e+000
1.357548e+003,-7.825058e+000
1.358512e+003,-7.323692e+000
1.359476e+003,-7.063538e+000
1.360441e+003,-7.490410e+000
1.361405e+003,-9.763687e+000
1.362369e+003,-1.154703e+001
1.363333e+003,-1.142722e+001
1.364298e+003,-1.021693e+001
1.365262e+003,-8.989136e+000
1.366226e+003,-8.126366e+000
1.367190e+003,-7.512756e+000
1.368155e+003,-7.041672e+000
1.369119e+003,-6.774055e+000
1.370083e+003,-6.921173e+000
1.371047e+003,-7.606117e+000
1.372011e+003,-8.084297e+000
1.372976e+003,-8.342171e+000
1.373940e+003,-8.539101e+000
1.374904e+003,-8.797646e+000
1.375868e+003,-8.940407e+000
1.376833e+003,-8.527626e+000
1.377797e+003,-7.698997e+000
1.378761e+003,-7.536118e+000
1.379725e+003,-8.666771e+000
1.380690e+003,-9.990707e+000
1.381654e+003,-1.071890e+001
1.382618e+003,-1.071442e+001
1.383582e+003,-9.039719e+000
1.384547e+003,-6.085327e+000
1.385511e+003,-4.756577e+000
1.386475e+003,-6.951736e+000
1.387439e+003,-1.002321e+001
1.388403e+003,-9.270042e+000
1.389368e+003,-4.717262e+000
1.390332e+003,-2.966568e+000
1.391296e+003,-5.936363e+000
1.392260e+003,-8.128349e+000
1.393225e+003,-7.872078e+000
1.394189e+003,-7.093239e+000
1.395153e+003,-6.459686e+000
1.396117e+003,-6.203285e+000
1.397082e+003,-6.768005e+000
1.398046e+003,-8.008575e+000
1.399010e+003,-8.835884e+000
1.399974e+003,-8.260841e+000
1.400938e+003,-6.792389e+000
1.401903e+003,-5.848610e+000
1.402867e+003,-5.394646e+000
1.403831e+003,-5.092171e+000
1.404795e+003,-5.029823e+000
1.405760e+003,-5.122818e+000
1.406724e+003,-5.643097e+000
1.407688e+003,-6.273476e+000
1.408652e+003,-6.536087e+000
1.409617e+003,-6.381119e+000
1.410581e+003,-5.969833e+000
1.411545e+003,-5.258835e+000
1.412509e+003,-4.891106e+000
1.413474e+003,-5.803513e+000
1.414438e+003,-7.367409e+000
1.415402e+003,-8.603630e+000
1.416366e+003,-9.394066e+000
1.417330e+003,-9.504013e+000
1.418295e+003,-8.787849e+000
1.419259e+003,-7.559128e+000
1.420223e+003,-5.893867e+000
1.421187e+003,-4.004326e+000
1.422152e+003,-3.139221e+000
1.423116e+003,-3.606735e+000
1.424080e+003,-3.951012e+000
1.425044e+003,-3.654274e+000
1.426009e+003,-3.407402e+000
1.426973e+003,-3.367378e+000
1.427937e+003,-3.617538e+000
1.428901e+003,-4.631470e+000
1.429865e+003,-6.037376e+000
1.430830e+003,-6.375908e+000
1.431794e+003,-4.747314e+000
1.432758e+003,-2.405579e+000
1.433722e+003,-1.800148e+000
1.434687e+003,-3.002411e+000
1.435651e+003,-3.900932e+000
1.436615e+003,-4.850266e+000
1.437579e+003,-5.331314e+000
1.438544e+003,-4.732391e+000
1.439508e+003,-4.172806e+000
1.440472e+003,-4.587807e+000
1.441436e+003,-5.457458e+000
1.442401e+003,-5.819939e+000
1.443365e+003,-5.444298e+000
1.444329e+003,-4.532104e+000
1.445293e+003,-3.046204e+000
1.446257e+003,-1.560661e+000
1.447222e+003,-1.407791e+000
1.448186e+003,-2.330101e+000
1.449150e+003,-2.905563e+000
1.450114e+003,-2.973892e+000
1.451079e+003,-2.945801e+000
1.452043e+003,-2.796768e+000
1.453007e+003,-2.755013e+000
1.453971e+003,-3.378883e+000
1.454936e+003,-4.554031e+000
1.455900e+003,-5.157936e+000
1.456864e+003,-4.745102e+000
1.457828e+003,-4.412292e+000
1.458792e+003,-5.421043e+000
1.459757e+003,-6.242752e+000
1.460721e+003,-4.819839e+000
1.461685e+003,-2.459976e+000
1.462649e+003,-2.274345e+000
1.463614e+003,-4.825745e+000
1.464578e+003,-7.108833e+000
1.465542e+003,-6.338295e+000
1.466506e+003,-3.695290e+000
1.467471e+003,-2.668327e+000
1.468435e+003,-3.581802e+000
1.469399e+003,-4.138985e+000
1.470363e+003,-3.996872e+000
1.471328e+003,-3.945213e+000
1.472292e+003,-4.630585e+000
1.473256e+003,-5.121056e+000
1.474220e+003,-4.210304e+000
1.475184e+003,-2.633621e+000
1.476149e+003,-1.981667e+000
1.477113e+003,-2.742485e+000
1.478077e+003,-4.088402e+000
1.479041e+003,-5.208656e+000
1.480006e+003,-5.935646e+000
1.480970e+003,-5.759155e+000
1.481934e+003,-4.490631e+000
1.482898e+003,-3.300461e+000
1.483863e+003,-1.431290e+000
1.484827e+003,-7.126236e-001
1.485791e+003,-2.711433e+000
1.486755e+003,-5.037468e+000
1.487719e+003,-5.494789e+000
1.488684e+003,-4.452896e+000
1.489648e+003,-3.284492e+000
1.490612e+003,-2.426582e+000
1.491576e+003,-1.758034e+000
1.492541e+003,-1.268723e+000
1.493505e+003,-8.063583e-001
1.494469e+003,1.828003e-001
1.495433e+003,1.492393e+000
1.496398e+003,2.062546e+000
1.497362e+003,1.708359e+000
1.498326e+003,1.104492e+000
1.499290e+003,1.809006e-001
1.500255e+003,-5.198212e-001
1.501219e+003,-1.678772e-001
1.502183e+003,1.100792e+000
1.503147e+003,2.569778e+000
1.504111e+003,4.164314e+000
1.505076e+003,5.543831e+000
1.506040e+003,6.609337e+000
1.507004e+003,7.255592e+000
1.507968e+003,7.169601e+000
1.508933e+003,6.705833e+000
1.509897e+003,6.346092e+000
1.510861e+003,6.321747e+000
1.511825e+003,7.581322e+000
1.512790e+003,1.107684e+001
1.513754e+003,1.554413e+001
1.514718e+003,1.859821e+001
1.515682e+003,2.020510e+001
1.516646e+003,2.191712e+001
1.517611e+003,2.422385e+001
1.518575e+003,2.587986e+001
1.519539e+003,2.594601e+001
1.520503e+003,2.592599e+001
1.521468e+003,2.680298e+001
1.522432e+003,2.792027e+001
1.523396e+003,2.827584e+001
1.524360e+003,2.779207e+001
1.525325e+003,2.723847e+001
1.526289e+003,2.713752e+001
1.527253e+003,2.687221e+001
1.528217e+003,2.523559e+001
1.529182e+003,2.224358e+001
1.530146e+003,1.949972e+001
1.531110e+003,1.675052e+001
1.532074e+003,1.468456e+001
1.533039e+003,1.376402e+001
1.534003e+003,1.274356e+001
1.534967e+003,1.115258e+001
1.535931e+003,9.302559e+000
1.536896e+003,7.285324e+000
1.537860e+003,5.384399e+000
1.538824e+003,4.392258e+000
1.539788e+003,4.593193e+000
1.540752e+003,4.611061e+000
1.541717e+003,2.516090e+000
1.542681e+003,-1.014053e+000
1.543645e+003,-1.757835e+000
1.544609e+003,2.141159e+000
1.545573e+003,4.235680e+000
1.546538e+003,2.725311e+000
1.547502e+003,1.684631e+000
1.548466e+003,3.366547e+000
1.549430e+003,5.720284e+000
1.550395e+003,6.492073e+000
1.551359e+003,5.940125e+000
1.552323e+003,5.737167e+000
1.553287e+003,6.419037e+000
1.554252e+003,6.571121e+000
1.555216e+003,4.804337e+000
1.556180e+003,2.062790e+000
1.557144e+003,5.795822e-001
1.558109e+003,4.371109e-001
1.559073e+003,3.895569e-002
1.560037e+003,-1.215530e+000
1.561001e+003,-1.683281e+000
1.561966e+003,-6.771088e-002
1.562930e+003,1.995140e+000
1.563894e+003,2.989792e+000
1.564858e+003,3.161415e+000
1.565823e+003,3.267509e+000
1.566787e+003,3.462738e+000
1.567751e+003,3.701683e+000
1.568715e+003,4.074059e+000
1.569679e+003,4.182747e+000
1.570644e+003,3.057129e+000
1.571608e+003,1.355209e+000
1.572572e+003,1.236786e+000
1.573536e+003,2.835686e+000
1.574500e+003,4.225815e+000
1.575465e+003,4.792160e+000
1.576429e+003,4.908905e+000
1.577393e+003,4.546021e+000
1.578357e+003,4.038269e+000
1.579322e+003,4.341476e+000
1.580286e+003,5.413925e+000
1.581250e+003,5.529060e+000
1.582214e+003,3.758240e+000
1.583179e+003,2.499062e+000
1.584143e+003,4.232994e+000
1.585107e+003,6.731148e+000
1.586071e+003,6.681572e+000
1.587036e+003,5.009460e+000
1.588000e+003,4.578247e+000
1.588964e+003,6.032433e+000
1.589928e+003,7.479507e+000
1.590893e+003,7.529968e+000
1.591857e+003,7.029114e+000
1.592821e+003,7.230301e+000
1.593785e+003,8.043190e+000
1.594750e+003,9.092415e+000
1.595714e+003,1.050549e+001
1.596678e+003,1.073283e+001
1.597642e+003,8.102043e+000
1.598606e+003,5.677795e+000
1.599571e+003,6.201523e+000
1.600535e+003,8.205315e+000
1.601499e+003,1.011480e+001
1.602463e+003,1.167503e+001
1.603427e+003,1.274541e+001
1.604392e+003,1.327195e+001
1.605356e+003,1.337305e+001
1.606320e+003,1.318325e+001
1.607284e+003,1.266800e+001
1.608249e+003,1.151788e+001
1.609213e+003,9.700516e+000
1.610177e+003,8.375725e+000
1.611141e+003,7.610649e+000
1.612106e+003,7.661980e+000
1.613070e+003,9.653824e+000
1.614034e+003,1.158819e+001
1.614998e+003,1.181870e+001
1.615963e+003,1.106924e+001
1.616927e+003,1.045723e+001
1.617891e+003,1.024374e+001
1.618855e+003,1.053147e+001
1.619820e+003,1.145074e+001
1.620784e+003,1.237172e+001
1.621748e+003,1.218995e+001
1.622712e+003,1.128433e+001
1.623677e+003,1.184799e+001
1.624641e+003,1.431432e+001
1.625605e+003,1.575396e+001
1.626569e+003,1.471414e+001
1.627533e+003,1.365974e+001
1.628498e+003,1.403600e+001
1.629462e+003,1.481582e+001
1.630426e+003,1.521070e+001
1.631390e+003,1.525893e+001
1.632354e+003,1.504792e+001
1.633319e+003,1.469186e+001
1.634283e+003,1.493880e+001
1.635247e+003,1.660009e+001
1.636211e+003,1.834012e+001
1.637176e+003,1.710593e+001
1.638140e+003,1.325484e+001
1.639104e+003,1.231599e+001
1.640068e+003,1.550837e+001
1.641033e+003,1.732019e+001
1.641997e+003,1.504856e+001
1.642961e+003,1.312960e+001
1.643925e+003,1.461893e+001
1.644890e+003,1.679043e+001
1.645854e+003,1.650075e+001
1.646818e+003,1.459893e+001
1.647782e+003,1.406284e+001
1.648747e+003,1.572347e+001
1.649711e+003,1.752201e+001
1.650675e+003,1.782125e+001
1.651639e+003,1.715852e+001
1.652604e+003,1.637924e+001
1.653568e+003,1.547041e+001
1.654532e+003,1.512698e+001
1.655496e+003,1.567158e+001
1.656460e+003,1.572634e+001
1.657425e+003,1.419099e+001
1.658389e+003,1.310215e+001
1.659353e+003,1.430742e+001
1.660317e+003,1.591215e+001
1.661281e+003,1.554517e+001
1.662246e+003,1.374631e+001
1.663210e+003,1.275068e+001
1.664174e+003,1.328764e+001
1.665138e+003,1.407597e+001
1.666103e+003,1.410924e+001
1.667067e+003,1.349615e+001
1.668031e+003,1.214173e+001
1.668995e+003,1.018317e+001
1.669960e+003,9.651520e+000
1.670924e+003,1.125780e+001
1.671888e+003,1.186189e+001
1.672852e+003,9.379265e+000
1.673817e+003,7.240395e+000
1.674781e+003,8.532433e+000
1.675745e+003,1.059986e+001
1.676709e+003,1.018250e+001
1.677674e+003,7.919434e+000
1.678638e+003,6.538025e+000
1.679602e+003,6.887833e+000
1.680566e+003,7.666443e+000
1.681531e+003,8.051605e+000
1.682495e+003,8.096687e+000
1.683459e+003,7.580971e+000
1.684423e+003,6.656380e+000
1.685387e+003,6.728081e+000
1.686352e+003,8.149055e+000
1.687316e+003,8.755989e+000
1.688280e+003,7.454811e+000
1.689244e+003,5.942711e+000
1.690208e+003,5.121567e+000
1.691173e+003,4.982666e+000
1.692137e+003,6.151817e+000
1.693101e+003,8.069283e+000
1.694065e+003,8.696388e+000
1.695030e+003,7.442566e+000
1.695994e+003,6.251656e+000
1.696958e+003,6.567390e+000
1.697922e+003,7.309464e+000
1.698887e+003,7.010742e+000
1.699851e+003,6.061386e+000
1.700815e+003,5.692741e+000
1.701779e+003,5.971458e+000
1.702744e+003,6.001694e+000
1.703708e+003,5.543457e+000
1.704672e+003,4.835342e+000
1.705636e+003,3.722221e+000
1.706601e+003,2.656708e+000
1.707565e+003,2.472023e+000
1.708529e+003,2.981827e+000
1.709493e+003,3.646332e+000
1.710458e+003,4.466866e+000
1.711422e+003,4.770142e+000
1.712386e+003,3.946381e+000
1.713350e+003,2.989723e+000
1.714314e+003,2.810112e+000
1.715279e+003,2.857407e+000
1.716243e+003,1.738754e+000
1.717207e+003,-9.999084e-002
1.718171e+003,1.797028e-001
1.719135e+003,3.364395e+000
1.720100e+003,5.938637e+000
1.721064e+003,5.364243e+000
1.722028e+003,3.529877e+000
1.722992e+003,3.167374e+000
1.723957e+003,4.021515e+000
1.724921e+003,4.241409e+000
1.725885e+003,3.587395e+000
1.726849e+003,3.328796e+000
1.727814e+003,4.249634e+000
1.728778e+003,4.981499e+000
1.729742e+003,4.784302e+000
1.730706e+003,4.240463e+000
1.731671e+003,3.618385e+000
1.732635e+003,3.121887e+000
1.733599e+003,3.385582e+000
1.734563e+003,4.352005e+000
1.735528e+003,4.774529e+000
1.736492e+003,3.980843e+000
1.737456e+003,3.260345e+000
1.738420e+003,4.282921e+000
1.739385e+003,6.235939e+000
1.740349e+003,6.169189e+000
1.741313e+003,3.534737e+000
1.742277e+003,1.853806e+000
1.743241e+003,1.680901e+000
1.744206e+003,1.596085e+000
1.745170e+003,1.070114e+000
1.746134e+003,9.558868e-001
1.747098e+003,2.209778e+000
1.748063e+003,3.760986e+000
1.749027e+003,4.436531e+000
1.749991e+003,4.256874e+000
1.750955e+003,3.661209e+000
1.751919e+003,2.889854e+000
1.752884e+003,2.152214e+000
1.753848e+003,1.617233e+000
1.754812e+003,1.372345e+000
1.755776e+003,1.744041e+000
1.756741e+003,2.728844e+000
1.757705e+003,2.682632e+000
1.758669e+003,9.102020e-001
1.759633e+003,6.399536e-002
1.760598e+003,1.453392e+000
1.761562e+003,2.207779e+000
1.762526e+003,6.218948e-001
1.763490e+003,-9.169846e-001
1.764455e+003,-2.578812e-001
1.765419e+003,1.354050e+000
1.766383e+003,1.411354e+000
1.767347e+003,4.762268e-002
1.768312e+003,4.324341e-002
1.769276e+003,2.733719e+000
1.770240e+003,5.514076e+000
1.771204e+003,5.762749e+000
1.772168e+003,4.259315e+000
1.773133e+003,2.328590e+000
1.774097e+003,7.406616e-002
1.775061e+003,-1.418259e+000
1.776025e+003,-2.082634e+000
1.776990e+003,-1.922791e+000
1.777954e+003,-4.189377e-001
1.778918e+003,8.923798e-001
1.779882e+003,4.341965e-001
1.780846e+003,-5.414429e-001
1.781811e+003,-1.566772e-001
1.782775e+003,1.194016e+000
1.783739e+003,2.235901e+000
1.784703e+003,2.831268e+000
1.785668e+003,2.844963e+000
1.786632e+003,1.507210e+000
1.787596e+003,4.130630e-001
1.788560e+003,1.269257e+000
1.789525e+003,2.809158e+000
1.790489e+003,3.133347e+000
1.791453e+003,2.472755e+000
1.792417e+003,1.957657e+000
1.793382e+003,1.856552e+000
1.794346e+003,1.994331e+000
1.795310e+003,2.290947e+000
1.796274e+003,2.550240e+000
1.797239e+003,2.583694e+000
1.798203e+003,2.450729e+000
1.799167e+003,2.050262e+000
1.800131e+003,1.057953e+000
1.801095e+003,1.365387e+000
1.802060e+003,4.623070e+000
1.803024e+003,6.590775e+000
1.803988e+003,6.098969e+000
1.804952e+003,5.118263e+000
1.805917e+003,4.330475e+000
1.806881e+003,3.709343e+000
1.807845e+003,3.338684e+000
1.808809e+003,3.021362e+000
1.809773e+003,2.097198e+000
1.810738e+003,6.961212e-001
1.811702e+003,2.483063e-001
1.812666e+003,1.604485e+000
1.813630e+003,3.287102e+000
1.814595e+003,3.254677e+000
1.815559e+003,1.946503e+000
1.816523e+003,1.133835e+000
1.817487e+003,8.331451e-001
1.818452e+003,1.073662e+000
1.819416e+003,2.171844e+000
1.820380e+003,2.996040e+000
1.821344e+003,2.892502e+000
1.822309e+003,2.853722e+000
1.823273e+003,3.672668e+000
1.824237e+003,4.739967e+000
1.825201e+003,5.738235e+000
1.826166e+003,6.367386e+000
1.827130e+003,5.585762e+000
1.828094e+003,3.282043e+000
1.829058e+003,1.993988e+000
1.830022e+003,3.323616e+000
1.830987e+003,5.233498e+000
1.831951e+003,6.287544e+000
1.832915e+003,6.719505e+000
1.833879e+003,7.011902e+000
1.834844e+003,6.954422e+000
1.835808e+003,5.320313e+000
1.836772e+003,2.263397e+000
1.837736e+003,7.612381e-001
1.838700e+003,2.143532e+000
1.839665e+003,4.031334e+000
1.840629e+003,4.288208e+000
1.841593e+003,3.622849e+000
1.842557e+003,3.509079e+000
1.843522e+003,3.933289e+000
1.844486e+003,4.004402e+000
1.845450e+003,3.404640e+000
1.846414e+003,3.183250e+000
1.847379e+003,3.652405e+000
1.848343e+003,3.917610e+000
1.849307e+003,3.485840e+000
1.850271e+003,3.057213e+000
1.851236e+003,3.327072e+000
1.852200e+003,3.844688e+000
1.853164e+003,3.722534e+000
1.854128e+003,3.110138e+000
1.855093e+003,3.151024e+000
1.856057e+003,4.183846e+000
1.857021e+003,4.742249e+000
1.857985e+003,3.423027e+000
1.858949e+003,1.659698e+000
1.859914e+003,2.367012e+000
1.860878e+003,4.942390e+000
1.861842e+003,5.724243e+000
1.862806e+003,4.631348e+000
1.863771e+003,3.763863e+000
1.864735e+003,3.420219e+000
1.865699e+003,3.435394e+000
1.866663e+003,3.935028e+000
1.867627e+003,4.470932e+000
1.868592e+003,4.527641e+000
1.869556e+003,4.352989e+000
1.870520e+003,4.540154e+000
1.871484e+003,5.015427e+000
1.872449e+003,5.365799e+000
1.873413e+003,5.761421e+000
1.874377e+003,5.751259e+000
1.875341e+003,4.146545e+000
1.876306e+003,3.245781e+000
1.877270e+003,5.202934e+000
1.878234e+003,7.575706e+000
1.879198e+003,7.729485e+000
1.880163e+003,6.537392e+000
1.881127e+003,5.955650e+000
1.882091e+003,6.128387e+000
1.883055e+003,5.753448e+000
1.884020e+003,4.406967e+000
1.884984e+003,3.646973e+000
1.885948e+003,4.941605e+000
1.886912e+003,7.047440e+000
1.887876e+003,7.398964e+000
1.888841e+003,6.175560e+000
1.889805e+003,5.507645e+000
1.890769e+003,5.463364e+000
1.891733e+003,5.631844e+000
1.892698e+003,6.042831e+000
1.893662e+003,6.417061e+000
1.894626e+003,6.704346e+000
1.895590e+003,6.900055e+000
1.896554e+003,7.026428e+000
1.897519e+003,7.090836e+000
1.898483e+003,6.977341e+000
1.899447e+003,6.738335e+000
1.900411e+003,6.710297e+000
1.901376e+003,6.980057e+000
1.902340e+003,7.163933e+000
1.903304e+003,6.939636e+000
1.904268e+003,6.858421e+000
1.905233e+003,7.503288e+000
1.906197e+003,8.253883e+000
1.907161e+003,8.599968e+000
1.908125e+003,8.532135e+000
1.909090e+003,7.965897e+000
1.910054e+003,6.986115e+000
1.911018e+003,5.711334e+000
1.911982e+003,4.348335e+000
1.912947e+003,3.728310e+000
1.913911e+003,4.444046e+000
1.914875e+003,6.234154e+000
1.915839e+003,8.915161e+000
1.916803e+003,1.188483e+001
1.917768e+003,1.180036e+001
1.918732e+003,7.903038e+000
1.919696e+003,6.360489e+000
1.920660e+003,8.499947e+000
1.921625e+003,9.446877e+000
1.922589e+003,7.006836e+000
1.923553e+003,5.012154e+000
1.924517e+003,6.086128e+000
1.925481e+003,7.953438e+000
1.926446e+003,8.650482e+000
1.927410e+003,8.685722e+000
1.928374e+003,9.363678e+000
1.929338e+003,1.061513e+001
1.930303e+003,1.061008e+001
1.931267e+003,8.305481e+000
1.932231e+003,6.837883e+000
1.933195e+003,8.597054e+000
1.934160e+003,1.041374e+001
1.935124e+003,9.470276e+000
1.936088e+003,7.666862e+000
1.937052e+003,7.363396e+000
1.938017e+003,8.251595e+000
1.938981e+003,9.390770e+000
1.939945e+003,1.034972e+001
1.940909e+003,1.056746e+001
1.941874e+003,9.841225e+000
1.942838e+003,8.765327e+000
1.943802e+003,7.876167e+000
1.944766e+003,7.528740e+000
1.945730e+003,8.595390e+000
1.946695e+003,1.075660e+001
1.947659e+003,1.144778e+001
1.948623e+003,1.049323e+001
1.949587e+003,1.005476e+001
1.950552e+003,1.062933e+001
1.951516e+003,1.062849e+001
1.952480e+003,9.117935e+000
1.953444e+003,7.803452e+000
1.954408e+003,8.172623e+000
1.955373e+003,9.037575e+000
1.956337e+003,8.616051e+000
1.957301e+003,7.380737e+000
1.958265e+003,6.807762e+000
1.959230e+003,6.966652e+000
1.960194e+003,7.545326e+000
1.961158e+003,8.839264e+000
1.962122e+003,9.885895e+000
1.963087e+003,1.039935e+001
1.964051e+003,1.066958e+001
1.965015e+003,1.058157e+001
1.965979e+003,1.066174e+001
1.966944e+003,1.207287e+001
1.967908e+003,1.365333e+001
1.968872e+003,1.283323e+001
1.969836e+003,9.935249e+000
1.970801e+003,7.922714e+000
1.971765e+003,8.044434e+000
1.972729e+003,8.968826e+000
1.973693e+003,9.647209e+000
1.974657e+003,1.025753e+001
1.975622e+003,1.112003e+001
1.976586e+003,1.207697e+001
1.977550e+003,1.283621e+001
1.978514e+003,1.336723e+001
1.979479e+003,1.335705e+001
1.980443e+003,1.279649e+001
1.981407e+003,1.252867e+001
1.982371e+003,1.291005e+001
1.983335e+003,1.306257e+001
1.984300e+003,1.221839e+001
1.985264e+003,1.116062e+001
1.986228e+003,1.114662e+001
1.987192e+003,1.199090e+001
1.988157e+003,1.278115e+001
1.989121e+003,1.364777e+001
1.990085e+003,1.385202e+001
1.991049e+003,1.318272e+001
1.992014e+003,1.232166e+001
1.992978e+003,1.046630e+001
1.993942e+003,9.598595e+000
1.994906e+003,1.154365e+001
1.995871e+003,1.352780e+001
1.996835e+003,1.277165e+001
1.997799e+003,1.123855e+001
1.998763e+003,1.245717e+001
1.999728e+003,1.572642e+001
