5.003444e+002,4.506250e+001
5.013087e+002,4.504694e+001
5.022729e+002,4.271545e+001
5.032371e+002,3.920325e+001
5.042014e+002,3.606201e+001
5.051656e+002,3.346979e+001
5.061298e+002,3.219720e+001
5.070941e+002,3.301263e+001
5.080583e+002,3.628839e+001
5.090225e+002,3.764020e+001
5.099868e+002,3.627209e+001
5.109510e+002,3.446710e+001
5.119152e+002,3.327441e+001
5.128795e+002,3.281030e+001
5.138437e+002,3.279877e+001
5.148079e+002,3.414783e+001
5.157722e+002,3.530121e+001
5.167364e+002,3.545618e+001
5.177006e+002,3.433716e+001
5.186649e+002,3.203723e+001
5.196291e+002,2.738068e+001
5.205933e+002,2.380957e+001
5.215576e+002,2.562201e+001
5.225218e+002,3.220129e+001
5.234860e+002,3.974921e+001
5.244503e+002,4.206183e+001
5.254145e+002,3.787543e+001
5.263787e+002,3.491016e+001
5.273430e+002,3.409961e+001
5.283072e+002,3.387720e+001
5.292714e+002,3.156372e+001
5.302357e+002,2.441797e+001
5.311999e+002,1.944263e+001
5.321641e+002,1.866461e+001
5.331284e+002,2.019867e+001
5.340926e+002,2.294672e+001
5.350568e+002,2.636884e+001
5.360211e+002,2.850250e+001
5.369853e+002,2.805896e+001
5.379495e+002,2.654376e+001
5.389138e+002,2.463800e+001
5.398780e+002,2.261182e+001
5.408422e+002,2.030951e+001
5.418065e+002,1.662256e+001
5.427707e+002,1.206134e+001
5.437349e+002,1.200104e+001
5.446992e+002,1.928546e+001
5.456634e+002,3.098846e+001
5.466276e+002,3.699164e+001
5.475919e+002,3.146851e+001
5.485561e+002,2.712201e+001
5.495203e+002,2.459229e+001
5.504846e+002,2.299487e+001
5.514488e+002,2.123053e+001
5.524130e+002,1.920972e+001
5.533773e+002,1.732080e+001
5.543415e+002,1.513873e+001
5.553057e+002,1.341827e+001
5.562700e+002,1.309723e+001
5.572342e+002,1.465472e+001
5.581984e+002,1.691473e+001
5.591627e+002,1.752960e+001
5.601269e+002,1.732617e+001
5.610911e+002,1.710016e+001
5.620554e+002,1.705682e+001
5.630196e+002,1.698706e+001
5.639838e+002,1.705505e+001
5.649481e+002,1.834735e+001
5.659123e+002,1.830054e+001
5.668765e+002,1.581885e+001
5.678408e+002,1.240717e+001
5.688050e+002,1.164539e+001
5.697692e+002,1.620428e+001
5.707335e+002,1.921753e+001
5.716977e+002,1.825647e+001
5.726619e+002,1.517993e+001
5.736262e+002,1.249811e+001
5.745904e+002,1.197687e+001
5.755546e+002,1.268878e+001
5.765189e+002,1.236884e+001
5.774831e+002,1.117572e+001
5.784473e+002,1.012457e+001
5.794116e+002,1.014423e+001
5.803758e+002,1.152936e+001
5.813400e+002,1.322369e+001
5.823043e+002,1.495471e+001
5.832685e+002,1.546405e+001
5.842327e+002,1.419104e+001
5.851970e+002,1.186804e+001
5.861612e+002,1.085614e+001
5.871254e+002,1.225226e+001
5.880897e+002,1.332849e+001
5.890539e+002,1.322119e+001
5.900181e+002,1.218628e+001
5.909824e+002,1.082745e+001
5.919466e+002,9.494202e+000
5.929108e+002,8.665283e+000
5.938751e+002,8.891663e+000
5.948393e+002,9.686768e+000
5.958035e+002,1.030804e+001
5.967678e+002,1.031219e+001
5.977320e+002,1.009784e+001
5.986962e+002,1.176312e+001
5.996605e+002,1.502997e+001
6.006247e+002,1.600171e+001
6.015889e+002,1.086578e+001
6.025532e+002,4.381714e-001
6.035174e+002,-4.329834e+000
6.044816e+002,5.182861e+000
6.054459e+002,1.154456e+001
6.064101e+002,1.026880e+001
6.073743e+002,4.412415e+000
6.083386e+002,2.923584e-002
6.093028e+002,9.714355e-001
6.102670e+002,2.889099e+000
6.112313e+002,9.605103e-001
6.121955e+002,-2.135620e+000
6.131597e+002,-2.197937e+000
6.141240e+002,3.513367e+000
6.150882e+002,1.263995e+001
6.160524e+002,1.504205e+001
6.170167e+002,1.221375e+001
6.179809e+002,8.422424e+000
6.189451e+002,4.505920e+000
6.199094e+002,5.504761e-001
6.208736e+002,-6.249390e-001
6.218378e+002,6.686646e+000
6.228021e+002,1.146631e+001
6.237663e+002,1.185382e+001
6.247305e+002,9.564575e+000
6.256948e+002,6.701538e+000
6.266590e+002,2.338196e+000
6.276232e+002,2.489624e-001
6.285875e+002,5.234741e+000
6.295517e+002,1.251508e+001
6.305159e+002,1.660187e+001
6.314802e+002,1.445374e+001
6.324444e+002,8.506104e+000
6.334086e+002,6.224792e+000
6.343729e+002,6.816589e+000
6.353371e+002,6.954651e+000
6.363013e+002,5.096741e+000
6.372656e+002,1.998169e+000
6.382298e+002,9.172974e-001
6.391940e+002,4.627441e+000
6.401583e+002,6.325378e+000
6.411225e+002,6.399902e+000
6.420867e+002,5.448181e+000
6.430510e+002,3.143982e+000
6.440152e+002,-2.020935e+000
6.449794e+002,-5.800354e+000
6.459437e+002,-4.910522e+000
6.469079e+002,-2.780457e+000
6.478721e+002,-2.024841e+000
6.488364e+002,-3.334534e+000
6.498006e+002,-4.919617e+000
6.507648e+002,-3.379089e+000
6.517291e+002,-1.207275e-001
6.526933e+002,1.819397e+000
6.536575e+002,1.800537e+000
6.546218e+002,6.138916e-001
6.555860e+002,-2.040405e-001
6.565502e+002,-6.000366e-001
6.575145e+002,-8.170166e-001
6.584787e+002,-7.378540e-001
6.594429e+002,-5.125732e-001
6.604072e+002,-4.218750e-001
6.613714e+002,-5.631714e-001
6.623356e+002,9.918213e-002
6.632999e+002,3.754456e+000
6.642641e+002,6.146790e+000
6.652283e+002,4.025330e+000
6.661926e+002,-1.524292e+000
6.671568e+002,-5.986328e+000
6.681210e+002,-3.404419e+000
6.690853e+002,2.932983e+000
6.700495e+002,4.357910e+000
6.710137e+002,9.997559e-001
6.719780e+002,-3.055420e+000
6.729422e+002,-3.440796e+000
6.739064e+002,5.772705e-001
6.748707e+002,2.666443e+000
6.758349e+002,2.126221e+000
6.767991e+002,8.625488e-001
6.777634e+002,2.587280e-001
6.787276e+002,5.176392e-001
6.796918e+002,2.753296e-001
6.806561e+002,-2.880371e+000
6.816203e+002,-5.626770e+000
6.825845e+002,-6.710388e+000
6.835488e+002,-6.448853e+000
6.845130e+002,-5.251221e+000
6.854772e+002,-3.180115e+000
6.864415e+002,-5.671997e-001
6.874057e+002,1.173401e+000
6.883699e+002,1.567932e+000
6.893342e+002,4.213257e-001
6.902984e+002,-2.370728e+000
6.912626e+002,-6.209045e+000
6.922269e+002,-8.184937e+000
6.931911e+002,-5.736511e+000
6.941553e+002,-3.187622e+000
6.951196e+002,-1.489746e+000
6.960838e+002,-6.549072e-001
6.970480e+002,-3.622437e-001
6.980123e+002,-6.010132e-001
6.989765e+002,-4.046021e-001
6.999407e+002,1.203369e+000
7.009050e+002,2.723083e+000
7.018692e+002,2.613281e+000
7.028334e+002,4.642944e-001
7.037977e+002,-2.443481e+000
7.047619e+002,-3.878967e+000
7.057261e+002,-3.831482e+000
7.066904e+002,-2.670288e+000
7.076546e+002,-5.000000e-001
7.086188e+002,1.277527e+000
7.095831e+002,2.044678e-001
7.105473e+002,-5.713989e+000
7.115115e+002,-9.089783e+000
7.124758e+002,-9.171875e+000
7.134400e+002,-8.445313e+000
7.144042e+002,-7.876526e+000
7.153685e+002,-7.350037e+000
7.163327e+002,-6.903381e+000
7.172969e+002,-7.242004e+000
7.182612e+002,-6.835693e+000
7.192254e+002,-4.817627e+000
7.201896e+002,-1.850281e+000
7.211539e+002,1.041382e+000
7.221181e+002,3.193359e+000
7.230823e+002,4.314941e+000
7.240466e+002,3.599487e+000
7.250108e+002,1.921021e+000
7.259750e+002,8.007813e-001
7.269393e+002,7.005615e-001
7.279035e+002,8.205566e-001
7.288677e+002,-4.501953e-001
7.298320e+002,-3.508911e+000
7.307962e+002,-5.050720e+000
7.317604e+002,-4.324463e+000
7.327247e+002,-2.022949e+000
7.336889e+002,7.541504e-001
7.346531e+002,3.301147e+000
7.356174e+002,3.924927e+000
7.365816e+002,1.862793e+000
7.375458e+002,-1.965332e-001
7.385101e+002,2.034912e-001
7.394743e+002,3.307983e+000
7.404385e+002,6.737793e+000
7.414028e+002,6.027588e+000
7.423670e+002,1.391479e+000
7.433312e+002,6.140137e-002
7.442955e+002,3.684326e+000
7.452597e+002,9.069580e+000
7.462239e+002,1.213037e+001
7.471882e+002,1.186328e+001
7.481524e+002,1.220801e+001
7.491166e+002,1.226794e+001
7.500809e+002,1.210193e+001
7.510451e+002,1.210779e+001
7.520093e+002,1.203113e+001
7.529736e+002,1.115125e+001
7.539378e+002,9.937500e+000
7.549020e+002,7.980713e+000
7.558663e+002,3.644653e+000
7.568306e+002,-1.194946e+000
7.577948e+002,-4.282227e+000
7.587590e+002,-4.437866e+000
7.597233e+002,-2.511719e+000
7.606875e+002,1.528809e+000
7.616517e+002,7.665039e+000
7.626160e+002,1.061145e+001
7.635802e+002,8.335449e+000
7.645444e+002,3.085938e+000
7.655087e+002,-8.511963e-001
7.664729e+002,-3.817749e+000
7.674371e+002,-4.739014e+000
7.684014e+002,-1.286621e+000
7.693656e+002,1.653076e+000
7.703298e+002,-1.875000e-001
7.712941e+002,-6.591431e+000
7.722583e+002,-1.132935e+001
7.732225e+002,-8.475830e+000
7.741868e+002,-3.317261e+000
7.751510e+002,7.658691e-001
7.761152e+002,3.525757e+000
7.770795e+002,5.129150e+000
7.780437e+002,5.615234e+000
7.790079e+002,5.076538e+000
7.799722e+002,6.197388e+000
7.809364e+002,9.146851e+000
7.819006e+002,1.139392e+001
7.828649e+002,1.258350e+001
7.838291e+002,1.298816e+001
7.847933e+002,1.240454e+001
7.857576e+002,9.336304e+000
7.867218e+002,5.836060e+000
7.876860e+002,2.401855e+000
7.886503e+002,-2.098389e-001
7.896145e+002,-1.563110e+000
7.905787e+002,-1.526855e+000
7.915430e+002,-6.701660e-002
7.925072e+002,3.956787e+000
7.934714e+002,7.665039e+000
7.944357e+002,8.272217e+000
7.953999e+002,6.246094e+000
7.963641e+002,3.592407e+000
7.973284e+002,2.286377e+000
7.982926e+002,2.410034e+000
7.992568e+002,2.832764e+000
8.002211e+002,2.372314e+000
8.011853e+002,1.368530e+000
8.021495e+002,1.317505e+000
8.031138e+002,2.574097e+000
8.040780e+002,3.488037e+000
8.050422e+002,1.874268e+000
8.060065e+002,1.291870e+000
8.069707e+002,2.377075e+000
8.079349e+002,4.423828e+000
8.088992e+002,7.748779e+000
8.098634e+002,1.236853e+001
8.108276e+002,1.662500e+001
8.117919e+002,1.716431e+001
8.127561e+002,1.424695e+001
8.137203e+002,1.005017e+001
8.146846e+002,5.534180e+000
8.156488e+002,1.801025e+000
8.166130e+002,-2.636719e-001
8.175773e+002,-7.625732e-001
8.185415e+002,8.422852e-002
8.195057e+002,1.782593e+000
8.204700e+002,3.952271e+000
8.214342e+002,7.229492e+000
8.223984e+002,1.090918e+001
8.233627e+002,1.324170e+001
8.243269e+002,1.368677e+001
8.252911e+002,1.294421e+001
8.262554e+002,1.151636e+001
8.272196e+002,9.347534e+000
8.281838e+002,5.398193e+000
8.291481e+002,-1.744385e-001
8.301123e+002,-5.031128e+000
8.310765e+002,-4.436646e+000
8.320408e+002,1.011353e+000
8.330050e+002,3.805908e+000
8.339692e+002,2.870361e+000
8.349335e+002,1.910522e+000
8.358977e+002,6.087158e+000
8.368619e+002,1.718066e+001
8.378262e+002,2.285535e+001
8.387904e+002,1.618591e+001
8.397546e+002,1.065540e+001
8.407189e+002,1.075000e+001
8.416831e+002,1.405225e+001
8.426473e+002,1.560999e+001
8.436116e+002,1.289270e+001
8.445758e+002,9.941528e+000
8.455400e+002,1.076440e+001
8.465043e+002,1.263708e+001
8.474685e+002,1.309888e+001
8.484327e+002,1.209827e+001
8.493970e+002,1.176538e+001
8.503612e+002,1.507776e+001
8.513254e+002,2.278516e+001
8.522897e+002,2.576660e+001
8.532539e+002,2.096350e+001
8.542181e+002,1.526306e+001
8.551824e+002,1.338232e+001
8.561466e+002,1.550513e+001
8.571108e+002,1.806433e+001
8.580751e+002,1.883606e+001
8.590393e+002,1.882874e+001
8.600035e+002,1.911365e+001
8.609678e+002,1.955908e+001
8.619320e+002,1.947620e+001
8.628962e+002,1.862073e+001
8.638605e+002,1.810547e+001
8.648247e+002,2.024854e+001
8.657889e+002,2.382007e+001
8.667532e+002,2.693054e+001
8.677174e+002,2.930688e+001
8.686816e+002,3.000024e+001
8.696459e+002,2.756592e+001
8.706101e+002,2.152405e+001
8.715743e+002,1.868152e+001
8.725386e+002,2.077734e+001
8.735028e+002,2.360291e+001
8.744670e+002,2.604749e+001
8.754313e+002,2.767529e+001
8.763955e+002,2.817065e+001
8.773597e+002,2.728918e+001
8.783240e+002,2.703638e+001
8.792882e+002,2.968628e+001
8.802524e+002,3.249414e+001
8.812167e+002,3.273938e+001
8.821809e+002,3.024683e+001
8.831451e+002,2.706812e+001
8.841094e+002,2.592603e+001
8.850736e+002,2.729749e+001
8.860378e+002,2.985437e+001
8.870021e+002,3.367334e+001
8.879663e+002,3.695337e+001
8.889305e+002,3.871375e+001
8.898948e+002,3.878760e+001
8.908590e+002,3.709290e+001
8.918232e+002,3.241992e+001
8.927875e+002,2.900281e+001
8.937517e+002,2.766821e+001
8.947159e+002,2.783545e+001
8.956802e+002,2.900537e+001
8.966444e+002,3.055994e+001
8.976086e+002,3.176257e+001
8.985729e+002,3.266516e+001
8.995371e+002,3.326086e+001
9.005013e+002,3.253027e+001
9.014656e+002,3.104761e+001
9.024298e+002,3.030420e+001
9.033940e+002,3.109875e+001
9.043583e+002,3.280981e+001
9.053225e+002,3.422400e+001
9.062867e+002,3.349854e+001
9.072510e+002,3.414099e+001
9.082152e+002,4.012561e+001
9.091794e+002,4.625134e+001
9.101437e+002,4.539709e+001
9.111079e+002,3.626306e+001
9.120721e+002,3.015491e+001
9.130364e+002,3.775952e+001
9.140006e+002,4.590588e+001
9.149648e+002,4.657263e+001
9.159291e+002,4.245398e+001
9.168933e+002,4.006299e+001
9.178575e+002,4.363770e+001
9.188218e+002,5.055420e+001
9.197860e+002,5.275818e+001
9.207502e+002,5.001782e+001
9.217145e+002,4.544946e+001
9.226787e+002,3.809827e+001
9.236429e+002,3.195630e+001
9.246072e+002,3.358411e+001
9.255714e+002,4.506763e+001
9.265356e+002,5.074060e+001
9.274999e+002,4.170154e+001
9.284641e+002,3.287122e+001
9.294283e+002,2.961145e+001
9.303926e+002,3.066467e+001
9.313568e+002,3.315576e+001
9.323210e+002,3.574634e+001
9.332853e+002,3.712610e+001
9.342495e+002,3.351428e+001
9.352137e+002,2.746045e+001
9.361780e+002,2.338879e+001
9.371422e+002,2.269604e+001
9.381064e+002,2.384839e+001
9.390707e+002,2.406628e+001
9.400349e+002,2.219495e+001
9.409991e+002,2.300525e+001
9.419634e+002,2.768140e+001
9.429276e+002,3.277405e+001
9.438918e+002,3.895239e+001
9.448561e+002,4.474768e+001
9.458203e+002,4.755994e+001
9.467845e+002,4.646179e+001
9.477488e+002,4.453723e+001
9.487130e+002,4.290552e+001
9.496772e+002,4.198694e+001
9.506415e+002,4.250342e+001
9.516057e+002,4.422681e+001
9.525699e+002,4.619678e+001
9.535342e+002,4.741125e+001
9.544984e+002,4.768933e+001
9.554626e+002,4.746301e+001
9.564269e+002,4.743237e+001
9.573911e+002,4.804736e+001
9.583553e+002,4.932813e+001
9.593196e+002,5.096887e+001
9.602838e+002,5.295203e+001
9.612480e+002,5.564771e+001
9.622123e+002,5.607092e+001
9.631765e+002,5.084888e+001
9.641407e+002,4.617078e+001
9.651050e+002,4.515283e+001
9.660692e+002,4.656677e+001
9.670334e+002,4.775574e+001
9.679977e+002,4.742529e+001
9.689619e+002,4.675696e+001
9.699261e+002,4.751526e+001
9.708904e+002,4.853064e+001
9.718546e+002,4.718372e+001
9.728188e+002,4.217065e+001
9.737831e+002,3.643848e+001
9.747473e+002,3.435803e+001
9.757115e+002,3.695056e+001
9.766758e+002,3.887427e+001
9.776400e+002,4.048535e+001
9.786042e+002,4.199609e+001
9.795685e+002,4.288452e+001
9.805327e+002,4.308875e+001
9.814969e+002,4.301050e+001
9.824612e+002,4.317114e+001
9.834254e+002,4.367651e+001
9.843896e+002,4.388049e+001
9.853539e+002,4.386450e+001
9.863181e+002,4.370789e+001
9.872823e+002,4.319226e+001
9.882466e+002,4.269897e+001
9.892108e+002,4.313416e+001
9.901750e+002,4.533801e+001
9.911393e+002,4.910522e+001
9.921035e+002,5.305493e+001
9.930677e+002,5.741016e+001
9.940320e+002,6.357556e+001
9.949962e+002,7.033813e+001
9.959604e+002,7.635168e+001
9.969247e+002,8.168372e+001
9.978889e+002,8.780640e+001
9.988531e+002,9.586023e+001
9.998174e+002,1.021730e+002
1.000782e+003,1.051200e+002
1.001746e+003,1.059397e+002
1.002710e+003,1.060469e+002
1.003674e+003,1.060354e+002
1.004639e+003,1.054589e+002
1.005603e+003,1.033221e+002
1.006567e+003,9.921594e+001
1.007531e+003,9.873486e+001
1.008495e+003,1.040624e+002
1.009460e+003,1.087358e+002
1.010424e+003,1.081437e+002
1.011388e+003,1.038894e+002
1.012352e+003,1.019634e+002
1.013317e+003,1.037081e+002
1.014281e+003,1.057838e+002
1.015245e+003,1.095450e+002
1.016209e+003,1.106343e+002
1.017174e+003,1.047914e+002
1.018138e+003,9.307629e+001
1.019102e+003,8.048499e+001
1.020066e+003,7.114209e+001
1.021031e+003,6.449597e+001
1.021995e+003,5.699683e+001
1.022959e+003,4.849915e+001
1.023923e+003,4.358508e+001
1.024887e+003,4.492981e+001
1.025852e+003,4.817957e+001
1.026816e+003,4.595618e+001
1.027780e+003,3.686340e+001
1.028744e+003,3.140820e+001
1.029709e+003,3.379321e+001
1.030673e+003,3.555823e+001
1.031637e+003,3.341919e+001
1.032601e+003,2.908704e+001
1.033566e+003,2.528406e+001
1.034530e+003,2.317603e+001
1.035494e+003,2.223132e+001
1.036458e+003,2.185693e+001
1.037422e+003,2.178687e+001
1.038387e+003,2.169128e+001
1.039351e+003,2.146008e+001
1.040315e+003,2.147473e+001
1.041279e+003,2.217969e+001
1.042244e+003,2.388916e+001
1.043208e+003,2.708032e+001
1.044172e+003,3.389685e+001
1.045136e+003,3.686670e+001
1.046101e+003,3.419824e+001
1.047065e+003,3.023474e+001
1.048029e+003,2.698438e+001
1.048993e+003,2.456995e+001
1.049958e+003,2.270325e+001
1.050922e+003,2.136877e+001
1.051886e+003,2.143738e+001
1.052850e+003,2.486890e+001
1.053814e+003,2.931653e+001
1.054779e+003,3.163977e+001
1.055743e+003,3.111987e+001
1.056707e+003,2.905054e+001
1.057671e+003,2.691980e+001
1.058636e+003,2.459204e+001
1.059600e+003,2.359595e+001
1.060564e+003,2.623047e+001
1.061528e+003,2.843323e+001
1.062493e+003,2.853882e+001
1.063457e+003,2.746240e+001
1.064421e+003,2.652637e+001
1.065385e+003,2.615991e+001
1.066349e+003,2.618811e+001
1.067314e+003,2.731946e+001
1.068278e+003,2.787988e+001
1.069242e+003,2.616101e+001
1.070206e+003,2.364233e+001
1.071171e+003,2.230981e+001
1.072135e+003,2.274243e+001
1.073099e+003,2.391821e+001
1.074063e+003,2.457776e+001
1.075028e+003,2.483459e+001
1.075992e+003,2.702124e+001
1.076956e+003,3.289893e+001
1.077920e+003,3.647363e+001
1.078885e+003,3.568530e+001
1.079849e+003,3.206042e+001
1.080813e+003,2.688013e+001
1.081777e+003,1.949609e+001
1.082741e+003,1.569873e+001
1.083706e+003,2.139014e+001
1.084670e+003,2.773083e+001
1.085634e+003,3.041919e+001
1.086598e+003,2.987244e+001
1.087563e+003,2.782349e+001
1.088527e+003,2.565295e+001
1.089491e+003,2.394214e+001
1.090455e+003,2.273328e+001
1.091420e+003,2.155737e+001
1.092384e+003,2.281348e+001
1.093348e+003,2.825317e+001
1.094312e+003,3.197681e+001
1.095276e+003,2.978247e+001
1.096241e+003,2.405396e+001
1.097205e+003,2.089417e+001
1.098169e+003,2.094348e+001
1.099133e+003,2.224683e+001
1.100098e+003,2.521790e+001
1.101062e+003,2.860742e+001
1.102026e+003,3.207849e+001
1.102990e+003,3.534216e+001
1.103955e+003,3.782947e+001
1.104919e+003,3.910071e+001
1.105883e+003,3.947791e+001
1.106847e+003,4.007056e+001
1.107812e+003,4.074670e+001
1.108776e+003,4.050623e+001
1.109740e+003,3.893298e+001
1.110704e+003,3.724377e+001
1.111668e+003,3.623108e+001
1.112633e+003,3.652209e+001
1.113597e+003,3.951147e+001
1.114561e+003,4.651306e+001
1.115525e+003,5.207935e+001
1.116490e+003,5.396802e+001
1.117454e+003,5.446228e+001
1.118418e+003,5.491711e+001
1.119382e+003,5.603833e+001
1.120347e+003,5.830835e+001
1.121311e+003,6.148181e+001
1.122275e+003,6.336279e+001
1.123239e+003,6.029175e+001
1.124203e+003,5.373718e+001
1.125168e+003,5.146021e+001
1.126132e+003,5.524146e+001
1.127096e+003,6.071301e+001
1.128060e+003,6.413171e+001
1.129025e+003,6.590381e+001
1.129989e+003,6.922498e+001
1.130953e+003,7.498047e+001
1.131917e+003,8.003979e+001
1.132882e+003,8.359326e+001
1.133846e+003,8.684937e+001
1.134810e+003,9.056494e+001
1.135774e+003,9.471252e+001
1.136739e+003,9.856946e+001
1.137703e+003,1.017094e+002
1.138667e+003,1.051582e+002
1.139631e+003,1.107706e+002
1.140595e+003,1.185540e+002
1.141560e+003,1.285244e+002
1.142524e+003,1.414120e+002
1.143488e+003,1.558787e+002
1.144452e+003,1.700875e+002
1.145417e+003,1.848654e+002
1.146381e+003,2.036208e+002
1.147345e+003,2.274135e+002
1.148309e+003,2.519741e+002
1.149274e+003,2.769554e+002
1.150238e+003,3.023169e+002
1.151202e+003,3.290796e+002
1.152166e+003,3.566143e+002
1.153130e+003,3.850188e+002
1.154095e+003,4.131639e+002
1.155059e+003,4.350590e+002
1.156023e+003,4.427838e+002
1.156987e+003,4.370333e+002
1.157952e+003,4.269196e+002
1.158916e+003,4.133936e+002
1.159880e+003,3.977145e+002
1.160844e+003,3.791129e+002
1.161809e+003,3.569587e+002
1.162773e+003,3.305226e+002
1.163737e+003,2.979467e+002
1.164701e+003,2.700328e+002
1.165666e+003,2.543153e+002
1.166630e+003,2.397365e+002
1.167594e+003,2.209183e+002
1.168558e+003,2.011870e+002
1.169522e+003,1.849900e+002
1.170487e+003,1.740092e+002
1.171451e+003,1.679956e+002
1.172415e+003,1.671863e+002
1.173379e+003,1.700493e+002
1.174344e+003,1.691301e+002
1.175308e+003,1.645255e+002
1.176272e+003,1.604684e+002
1.177236e+003,1.592582e+002
1.178201e+003,1.589806e+002
1.179165e+003,1.564844e+002
1.180129e+003,1.512576e+002
1.181093e+003,1.463018e+002
1.182057e+003,1.429502e+002
1.183022e+003,1.395802e+002
1.183986e+003,1.352461e+002
1.184950e+003,1.309445e+002
1.185914e+003,1.271570e+002
1.186879e+003,1.245713e+002
1.187843e+003,1.247142e+002
1.188807e+003,1.287261e+002
1.189771e+003,1.344762e+002
1.190736e+003,1.359507e+002
1.191700e+003,1.324703e+002
1.192664e+003,1.310446e+002
1.193628e+003,1.342762e+002
1.194593e+003,1.378861e+002
1.195557e+003,1.390940e+002
1.196521e+003,1.380073e+002
1.197485e+003,1.351846e+002
1.198449e+003,1.305033e+002
1.199414e+003,1.250917e+002
1.200378e+003,1.177603e+002
1.201342e+003,1.115059e+002
1.202306e+003,1.091479e+002
1.203271e+003,1.088789e+002
1.204235e+003,1.067761e+002
1.205199e+003,1.012039e+002
1.206163e+003,9.471814e+001
1.207128e+003,9.154968e+001
1.208092e+003,9.201465e+001
1.209056e+003,9.042554e+001
1.210020e+003,8.731799e+001
1.210984e+003,8.182251e+001
1.211949e+003,7.136084e+001
1.212913e+003,5.950635e+001
1.213877e+003,5.079626e+001
1.214841e+003,4.575500e+001
1.215806e+003,4.353894e+001
1.216770e+003,4.619214e+001
1.217734e+003,4.747888e+001
1.218698e+003,4.077002e+001
1.219663e+003,3.131396e+001
1.220627e+003,2.578223e+001
1.221591e+003,2.520691e+001
1.222555e+003,2.637805e+001
1.223520e+003,2.650024e+001
1.224484e+003,2.593201e+001
1.225448e+003,2.515173e+001
1.226412e+003,2.426953e+001
1.227376e+003,2.241565e+001
1.228341e+003,1.713721e+001
1.229305e+003,1.319958e+001
1.230269e+003,1.434424e+001
1.231233e+003,1.827283e+001
1.232198e+003,2.047583e+001
1.233162e+003,2.005298e+001
1.234126e+003,1.916748e+001
1.235090e+003,1.872668e+001
1.236055e+003,1.824219e+001
1.237019e+003,1.677234e+001
1.237983e+003,1.478186e+001
1.238947e+003,1.436145e+001
1.239911e+003,1.666040e+001
1.240876e+003,1.982422e+001
1.241840e+003,2.071692e+001
1.242804e+003,1.924463e+001
1.243768e+003,1.798962e+001
1.244733e+003,1.678516e+001
1.245697e+003,1.614087e+001
1.246661e+003,1.448230e+001
1.247625e+003,1.363513e+001
1.248590e+003,1.619946e+001
1.249554e+003,2.157458e+001
1.250518e+003,2.695154e+001
1.251482e+003,3.084326e+001
1.252447e+003,3.286133e+001
1.253411e+003,3.249463e+001
1.254375e+003,3.084631e+001
1.255339e+003,2.940796e+001
1.256303e+003,2.858484e+001
1.257268e+003,2.886743e+001
1.258232e+003,2.985449e+001
1.259196e+003,3.149988e+001
1.260160e+003,3.537915e+001
1.261125e+003,4.276294e+001
1.262089e+003,4.792908e+001
1.263053e+003,4.727991e+001
1.264017e+003,4.675708e+001
1.264982e+003,4.861609e+001
1.265946e+003,5.107410e+001
1.266910e+003,5.224890e+001
1.267874e+003,5.219556e+001
1.268839e+003,5.277197e+001
1.269803e+003,5.529126e+001
1.270767e+003,5.749036e+001
1.271731e+003,5.424438e+001
1.272695e+003,4.611230e+001
1.273660e+003,4.180774e+001
1.274624e+003,4.192273e+001
1.275588e+003,4.208459e+001
1.276552e+003,4.079480e+001
1.277517e+003,3.878027e+001
1.278481e+003,3.641699e+001
1.279445e+003,3.344995e+001
1.280409e+003,3.102942e+001
1.281374e+003,2.975635e+001
1.282338e+003,2.906775e+001
1.283302e+003,2.924133e+001
1.284266e+003,2.926941e+001
1.285230e+003,2.755029e+001
1.286195e+003,2.422925e+001
1.287159e+003,2.140991e+001
1.288123e+003,2.109558e+001
1.289087e+003,2.257898e+001
1.290052e+003,2.241565e+001
1.291016e+003,1.927551e+001
1.291980e+003,1.751782e+001
1.292944e+003,1.728320e+001
1.293909e+003,1.697754e+001
1.294873e+003,1.672009e+001
1.295837e+003,1.662439e+001
1.296801e+003,1.666711e+001
1.297766e+003,1.681946e+001
1.298730e+003,1.659253e+001
1.299694e+003,1.495410e+001
1.300658e+003,1.332458e+001
1.301622e+003,1.473157e+001
1.302587e+003,1.721399e+001
1.303551e+003,1.683423e+001
1.304515e+003,1.336475e+001
1.305479e+003,1.002466e+001
1.306444e+003,8.782471e+000
1.307408e+003,9.514771e+000
1.308372e+003,1.359412e+001
1.309336e+003,2.377124e+001
1.310301e+003,2.847351e+001
1.311265e+003,2.255615e+001
1.312229e+003,1.763574e+001
1.313193e+003,1.780396e+001
1.314157e+003,1.984131e+001
1.315122e+003,2.029346e+001
1.316086e+003,1.853564e+001
1.317050e+003,1.579163e+001
1.318014e+003,1.304248e+001
1.318979e+003,1.089038e+001
1.319943e+003,9.956543e+000
1.320907e+003,1.052307e+001
1.321871e+003,1.221277e+001
1.322836e+003,1.456531e+001
1.323800e+003,1.665845e+001
1.324764e+003,1.837927e+001
1.325728e+003,1.959912e+001
1.326693e+003,1.947522e+001
1.327657e+003,1.761633e+001
1.328621e+003,1.629053e+001
1.329585e+003,1.848242e+001
1.330549e+003,2.078674e+001
1.331514e+003,1.894116e+001
1.332478e+003,1.564355e+001
1.333442e+003,1.385913e+001
1.334406e+003,1.403577e+001
1.335371e+003,1.537170e+001
1.336335e+003,1.727930e+001
1.337299e+003,1.912585e+001
1.338263e+003,1.944958e+001
1.339228e+003,1.807068e+001
1.340192e+003,1.711011e+001
1.341156e+003,1.605225e+001
1.342120e+003,1.605774e+001
1.343084e+003,1.721716e+001
1.344049e+003,1.844202e+001
1.345013e+003,2.028552e+001
1.345977e+003,2.222705e+001
1.346941e+003,2.163135e+001
1.347906e+003,1.732336e+001
1.348870e+003,1.300391e+001
1.349834e+003,1.166357e+001
1.350798e+003,1.245581e+001
1.351763e+003,1.535022e+001
1.352727e+003,1.970129e+001
1.353691e+003,2.026135e+001
1.354655e+003,1.416846e+001
1.355620e+003,7.399292e+000
1.356584e+003,8.352173e+000
1.357548e+003,1.602551e+001
1.358512e+003,1.901050e+001
1.359476e+003,1.400269e+001
1.360441e+003,9.789307e+000
1.361405e+003,8.892090e+000
1.362369e+003,9.608276e+000
1.363333e+003,1.268738e+001
1.364298e+003,1.618677e+001
1.365262e+003,1.733167e+001
1.366226e+003,1.576538e+001
1.367190e+003,1.367395e+001
1.368155e+003,1.299927e+001
1.369119e+003,1.332178e+001
1.370083e+003,1.350818e+001
1.371047e+003,1.396228e+001
1.372011e+003,1.384375e+001
1.372976e+003,9.888550e+000
1.373940e+003,8.262939e+000
1.374904e+003,1.459338e+001
1.375868e+003,2.287439e+001
1.376833e+003,2.461096e+001
1.377797e+003,1.969568e+001
1.378761e+003,1.458569e+001
1.379725e+003,1.178735e+001
1.380690e+003,1.081104e+001
1.381654e+003,1.186682e+001
1.382618e+003,1.442578e+001
1.383582e+003,1.876868e+001
1.384547e+003,2.427014e+001
1.385511e+003,2.704138e+001
1.386475e+003,2.432495e+001
1.387439e+003,1.963782e+001
1.388403e+003,1.891394e+001
1.389368e+003,2.207068e+001
1.390332e+003,2.325757e+001
1.391296e+003,2.141235e+001
1.392260e+003,2.031860e+001
1.393225e+003,2.177563e+001
1.394189e+003,2.282300e+001
1.395153e+003,2.095044e+001
1.396117e+003,1.795483e+001
1.397082e+003,1.732251e+001
1.398046e+003,1.964673e+001
1.399010e+003,2.160254e+001
1.399974e+003,1.968164e+001
1.400938e+003,1.496606e+001
1.401903e+003,1.306409e+001
1.402867e+003,1.663989e+001
1.403831e+003,1.939111e+001
1.404795e+003,1.762427e+001
1.405760e+003,1.837463e+001
1.406724e+003,2.730676e+001
1.407688e+003,3.559558e+001
1.408652e+003,3.167004e+001
1.409617e+003,1.807239e+001
1.410581e+003,9.204346e+000
1.411545e+003,1.108252e+001
1.412509e+003,1.688342e+001
1.413474e+003,2.129553e+001
1.414438e+003,2.357617e+001
1.415402e+003,2.307861e+001
1.416366e+003,2.089392e+001
1.417330e+003,2.047168e+001
1.418295e+003,2.373999e+001
1.419259e+003,2.703479e+001
1.420223e+003,2.436523e+001
1.421187e+003,1.681213e+001
1.422152e+003,1.431616e+001
1.423116e+003,1.956189e+001
1.424080e+003,2.413147e+001
1.425044e+003,2.447791e+001
1.426009e+003,2.371716e+001
1.426973e+003,2.256421e+001
1.427937e+003,2.125574e+001
1.428901e+003,1.996155e+001
1.429865e+003,1.915466e+001
1.430830e+003,1.933313e+001
1.431794e+003,2.053796e+001
1.432758e+003,2.261584e+001
1.433722e+003,2.611584e+001
1.434687e+003,3.206958e+001
1.435651e+003,3.893982e+001
1.436615e+003,4.678149e+001
1.437579e+003,5.097241e+001
1.438544e+003,5.027771e+001
1.439508e+003,4.723230e+001
1.440472e+003,4.235156e+001
1.441436e+003,3.762219e+001
1.442401e+003,3.626831e+001
1.443365e+003,3.850916e+001
1.444329e+003,4.041907e+001
1.445293e+003,3.904346e+001
1.446257e+003,3.673303e+001
1.447222e+003,3.827441e+001
1.448186e+003,4.260339e+001
1.449150e+003,4.409021e+001
1.450114e+003,4.150159e+001
1.451079e+003,3.825598e+001
1.452043e+003,3.642468e+001
1.453007e+003,3.555432e+001
1.453971e+003,3.458984e+001
1.454936e+003,3.328430e+001
1.455900e+003,3.187903e+001
1.456864e+003,3.052698e+001
1.457828e+003,2.998413e+001
1.458792e+003,3.044397e+001
1.459757e+003,3.130420e+001
1.460721e+003,3.269141e+001
1.461685e+003,3.396326e+001
1.462649e+003,3.385950e+001
1.463614e+003,3.243921e+001
1.464578e+003,3.126794e+001
1.465542e+003,3.147156e+001
1.466506e+003,3.249316e+001
1.467471e+003,3.371484e+001
1.468435e+003,3.618530e+001
1.469399e+003,3.744788e+001
1.470363e+003,3.392957e+001
1.471328e+003,3.254895e+001
1.472292e+003,3.557080e+001
1.473256e+003,3.913403e+001
1.474220e+003,4.213281e+001
1.475184e+003,4.444189e+001
1.476149e+003,4.541479e+001
1.477113e+003,4.464063e+001
1.478077e+003,4.288928e+001
1.479041e+003,4.141650e+001
1.480006e+003,4.060168e+001
1.480970e+003,4.021716e+001
1.481934e+003,3.899512e+001
1.482898e+003,4.090051e+001
1.483863e+003,4.927014e+001
1.484827e+003,5.538330e+001
1.485791e+003,5.563623e+001
1.486755e+003,5.494226e+001
1.487719e+003,5.776294e+001
1.488684e+003,6.278870e+001
1.489648e+003,6.627954e+001
1.490612e+003,6.736157e+001
1.491576e+003,6.769165e+001
1.492541e+003,6.774365e+001
1.493505e+003,6.851697e+001
1.494469e+003,7.329639e+001
1.495433e+003,8.062622e+001
1.496398e+003,8.591663e+001
1.497362e+003,8.899487e+001
1.498326e+003,9.255481e+001
1.499290e+003,9.735217e+001
1.500255e+003,1.036110e+002
1.501219e+003,1.121720e+002
1.502183e+003,1.223181e+002
1.503147e+003,1.301188e+002
1.504111e+003,1.334705e+002
1.505076e+003,1.410963e+002
1.506040e+003,1.610511e+002
1.507004e+003,1.847681e+002
1.507968e+003,2.027909e+002
1.508933e+003,2.180780e+002
1.509897e+003,2.368303e+002
1.510861e+003,2.611482e+002
1.511825e+003,2.895765e+002
1.512790e+003,3.208274e+002
1.513754e+003,3.536937e+002
1.514718e+003,3.872008e+002
1.515682e+003,4.207766e+002
1.516646e+003,4.536290e+002
1.517611e+003,4.878621e+002
1.518575e+003,5.181819e+002
1.519539e+003,5.429270e+002
1.520503e+003,5.645945e+002
1.521468e+003,5.859669e+002
1.522432e+003,6.035546e+002
1.523396e+003,6.133870e+002
1.524360e+003,6.143009e+002
1.525325e+003,6.063856e+002
1.526289e+003,5.898835e+002
1.527253e+003,5.671581e+002
1.528217e+003,5.419628e+002
1.529182e+003,5.148191e+002
1.530146e+003,4.843301e+002
1.531110e+003,4.481251e+002
1.532074e+003,4.117889e+002
1.533039e+003,3.753210e+002
1.534003e+003,3.364137e+002
1.534967e+003,2.927469e+002
1.535931e+003,2.495847e+002
1.536896e+003,2.112482e+002
1.537860e+003,1.790916e+002
1.538824e+003,1.533389e+002
1.539788e+003,1.336299e+002
1.540752e+003,1.185363e+002
1.541717e+003,1.069456e+002
1.542681e+003,9.868323e+001
1.543645e+003,9.033606e+001
1.544609e+003,8.263013e+001
1.545573e+003,7.486670e+001
1.546538e+003,6.403650e+001
1.547502e+003,5.509387e+001
1.548466e+003,5.091443e+001
1.549430e+003,5.031458e+001
1.550395e+003,5.331909e+001
1.551359e+003,5.765723e+001
1.552323e+003,5.828406e+001
1.553287e+003,5.377136e+001
1.554252e+003,4.859692e+001
1.555216e+003,4.654163e+001
1.556180e+003,4.648755e+001
1.557144e+003,4.620752e+001
1.558109e+003,4.594409e+001
1.559073e+003,4.506689e+001
1.560037e+003,4.166357e+001
1.561001e+003,3.940198e+001
1.561966e+003,4.273621e+001
1.562930e+003,4.658813e+001
1.563894e+003,4.435413e+001
1.564858e+003,3.846448e+001
1.565823e+003,3.611670e+001
1.566787e+003,3.845154e+001
1.567751e+003,4.060950e+001
1.568715e+003,4.004773e+001
1.569679e+003,3.861450e+001
1.570644e+003,3.816028e+001
1.571608e+003,3.798938e+001
1.572572e+003,3.754260e+001
1.573536e+003,3.726294e+001
1.574500e+003,3.658740e+001
1.575465e+003,3.450378e+001
1.576429e+003,3.271704e+001
1.577393e+003,3.251782e+001
1.578357e+003,3.317395e+001
1.579322e+003,3.368970e+001
1.580286e+003,3.425598e+001
1.581250e+003,3.584241e+001
1.582214e+003,3.908545e+001
1.583179e+003,4.201465e+001
1.584143e+003,4.264612e+001
1.585107e+003,4.191077e+001
1.586071e+003,4.189551e+001
1.587036e+003,4.306677e+001
1.588000e+003,4.497363e+001
1.588964e+003,4.718799e+001
1.589928e+003,4.718994e+001
1.590893e+003,4.128894e+001
1.591857e+003,3.445825e+001
1.592821e+003,3.552661e+001
1.593785e+003,4.299182e+001
1.594750e+003,4.677637e+001
1.595714e+003,4.461169e+001
1.596678e+003,4.371167e+001
1.597642e+003,4.853052e+001
1.598606e+003,5.330896e+001
1.599571e+003,5.313330e+001
1.600535e+003,5.083423e+001
1.601499e+003,4.895337e+001
1.602463e+003,4.797949e+001
1.603427e+003,4.970154e+001
1.604392e+003,5.531873e+001
1.605356e+003,6.044385e+001
1.606320e+003,6.022900e+001
1.607284e+003,5.630884e+001
1.608249e+003,5.324585e+001
1.609213e+003,5.110474e+001
1.610177e+003,4.797766e+001
1.611141e+003,4.273804e+001
1.612106e+003,3.859644e+001
1.613070e+003,3.833423e+001
1.614034e+003,3.848132e+001
1.614998e+003,3.516321e+001
1.615963e+003,3.114636e+001
1.616927e+003,3.195239e+001
1.617891e+003,3.759570e+001
1.618855e+003,4.227478e+001
1.619820e+003,4.223621e+001
1.620784e+003,3.919031e+001
1.621748e+003,3.647717e+001
1.622712e+003,3.483398e+001
1.623677e+003,3.267822e+001
1.624641e+003,2.964221e+001
1.625605e+003,2.883630e+001
1.626569e+003,3.079749e+001
1.627533e+003,3.188513e+001
1.628498e+003,3.039880e+001
1.629462e+003,2.881689e+001
1.630426e+003,2.917712e+001
1.631390e+003,3.080029e+001
1.632354e+003,3.223499e+001
1.633319e+003,3.299170e+001
1.634283e+003,3.311194e+001
1.635247e+003,3.251990e+001
1.636211e+003,3.121655e+001
1.637176e+003,2.905249e+001
1.638140e+003,2.649182e+001
1.639104e+003,2.667578e+001
1.640068e+003,3.079602e+001
1.641033e+003,3.191663e+001
1.641997e+003,2.461365e+001
1.642961e+003,2.003638e+001
1.643925e+003,2.812634e+001
1.644890e+003,3.768225e+001
1.645854e+003,3.529297e+001
1.646818e+003,2.491040e+001
1.647782e+003,1.949170e+001
1.648747e+003,2.282190e+001
1.649711e+003,2.798901e+001
1.650675e+003,2.971753e+001
1.651639e+003,3.000464e+001
1.652604e+003,3.240125e+001
1.653568e+003,3.642993e+001
1.654532e+003,3.847485e+001
1.655496e+003,3.771765e+001
1.656460e+003,3.737720e+001
1.657425e+003,4.039404e+001
1.658389e+003,4.174304e+001
1.659353e+003,3.695581e+001
1.660317e+003,3.049524e+001
1.661281e+003,2.655542e+001
1.662246e+003,2.510461e+001
1.663210e+003,2.541125e+001
1.664174e+003,2.734302e+001
1.665138e+003,2.906628e+001
1.666103e+003,2.857935e+001
1.667067e+003,2.675464e+001
1.668031e+003,2.589160e+001
1.668995e+003,2.605383e+001
1.669960e+003,2.569690e+001
1.670924e+003,2.468835e+001
1.671888e+003,2.407788e+001
1.672852e+003,2.389929e+001
1.673817e+003,2.387793e+001
1.674781e+003,2.373364e+001
1.675745e+003,2.360107e+001
1.676709e+003,2.398572e+001
1.677674e+003,2.444849e+001
1.678638e+003,2.338403e+001
1.679602e+003,2.033972e+001
1.680566e+003,1.776404e+001
1.681531e+003,1.860132e+001
1.682495e+003,2.049072e+001
1.683459e+003,1.743298e+001
1.684423e+003,1.034778e+001
1.685387e+003,8.590942e+000
1.686352e+003,1.415234e+001
1.687316e+003,1.687268e+001
1.688280e+003,1.137085e+001
1.689244e+003,6.316650e+000
1.690208e+003,1.065894e+001
1.691173e+003,1.673035e+001
1.692137e+003,1.532373e+001
1.693101e+003,9.046997e+000
1.694065e+003,5.853027e+000
1.695030e+003,7.138184e+000
1.695994e+003,9.168823e+000
1.696958e+003,1.064160e+001
1.697922e+003,1.119067e+001
1.698887e+003,9.775024e+000
1.699851e+003,7.326538e+000
1.700815e+003,6.215820e+000
1.701779e+003,6.319092e+000
1.702744e+003,6.007324e+000
1.703708e+003,5.106445e+000
1.704672e+003,5.469116e+000
1.705636e+003,8.246216e+000
1.706601e+003,1.134265e+001
1.707565e+003,1.354297e+001
1.708529e+003,1.485376e+001
1.709493e+003,1.288525e+001
1.710458e+003,6.775757e+000
1.711422e+003,1.965820e+000
1.712386e+003,7.873535e-001
1.713350e+003,2.583008e+000
1.714314e+003,8.061646e+000
1.715279e+003,1.428162e+001
1.716243e+003,1.668799e+001
1.717207e+003,1.567786e+001
1.718171e+003,1.477051e+001
1.719135e+003,1.508569e+001
1.720100e+003,1.474890e+001
1.721064e+003,1.205359e+001
1.722028e+003,8.380859e+000
1.722992e+003,6.141602e+000
1.723957e+003,5.863647e+000
1.724921e+003,6.809082e+000
1.725885e+003,8.259521e+000
1.726849e+003,8.177002e+000
1.727814e+003,6.401978e+000
1.728778e+003,5.286865e+000
1.729742e+003,5.207520e+000
1.730706e+003,6.322876e+000
1.731671e+003,9.796265e+000
1.732635e+003,1.296228e+001
1.733599e+003,1.137512e+001
1.734563e+003,5.556519e+000
1.735528e+003,-2.568359e-001
1.736492e+003,-4.128784e+000
1.737456e+003,-5.894653e+000
1.738420e+003,-5.214355e+000
1.739385e+003,-2.961304e+000
1.740349e+003,-2.685547e-001
1.741313e+003,3.736450e+000
1.742277e+003,6.208252e+000
1.743241e+003,7.665894e+000
1.744206e+003,8.018555e+000
1.745170e+003,5.490234e+000
1.746134e+003,3.162598e+000
1.747098e+003,2.747681e+000
1.748063e+003,3.317017e+000
1.749027e+003,4.227051e+000
1.749991e+003,5.105835e+000
1.750955e+003,5.341309e+000
1.751919e+003,4.636230e+000
1.752884e+003,3.148071e+000
1.753848e+003,9.819336e-001
1.754812e+003,-1.353149e+000
1.755776e+003,-2.340088e+000
1.756741e+003,-1.437866e+000
1.757705e+003,2.465820e-001
1.758669e+003,2.815308e+000
1.759633e+003,4.272095e+000
1.760598e+003,4.142212e+000
1.761562e+003,2.160522e+000
1.762526e+003,-2.800415e+000
1.763490e+003,-7.255493e+000
1.764455e+003,-9.712402e+000
1.765419e+003,-9.378052e+000
1.766383e+003,-4.411499e+000
1.767347e+003,3.783691e+000
1.768312e+003,1.048804e+001
1.769276e+003,1.334204e+001
1.770240e+003,1.237683e+001
1.771204e+003,7.189941e+000
1.772168e+003,6.436768e-001
1.773133e+003,-1.729492e+000
1.774097e+003,-4.261475e-001
1.775061e+003,-5.926514e-001
1.776025e+003,-3.863281e+000
1.776990e+003,-4.838623e+000
1.777954e+003,3.096924e-001
1.778918e+003,5.850342e+000
1.779882e+003,6.470459e+000
1.780846e+003,4.879395e+000
1.781811e+003,6.071167e+000
1.782775e+003,9.003540e+000
1.783739e+003,9.099487e+000
1.784703e+003,5.604492e+000
1.785668e+003,3.431519e+000
1.786632e+003,4.873779e+000
1.787596e+003,6.226807e+000
1.788560e+003,5.287964e+000
1.789525e+003,4.034180e+000
1.790489e+003,4.882446e+000
1.791453e+003,6.652344e+000
1.792417e+003,5.765381e+000
1.793382e+003,1.868286e+000
1.794346e+003,-1.078857e+000
1.795310e+003,-1.037842e+000
1.796274e+003,1.619873e-001
1.797239e+003,1.018555e+000
1.798203e+003,2.151123e+000
1.799167e+003,2.960938e+000
1.800131e+003,2.065063e+000
1.801095e+003,5.932617e-001
1.802060e+003,-2.580566e-001
1.803024e+003,-9.147949e-001
1.803988e+003,-2.396729e+000
1.804952e+003,-3.445190e+000
1.805917e+003,-2.744995e+000
1.806881e+003,-1.977661e+000
1.807845e+003,-3.271484e+000
1.808809e+003,-5.263062e+000
1.809773e+003,-4.462891e+000
1.810738e+003,-8.902588e-001
1.811702e+003,7.427979e-001
1.812666e+003,-2.470947e+000
1.813630e+003,-6.125488e+000
1.814595e+003,-3.758911e+000
1.815559e+003,2.259766e+000
1.816523e+003,1.930420e+000
1.817487e+003,-5.585449e+000
1.818452e+003,-7.534668e+000
1.819416e+003,7.202148e-003
1.820380e+003,5.217285e+000
1.821344e+003,2.467896e+000
1.822309e+003,-1.232666e+000
1.823273e+003,-1.262695e+000
1.824237e+003,3.730469e-001
1.825201e+003,1.141113e+000
1.826166e+003,1.326538e+000
1.827130e+003,2.811157e+000
1.828094e+003,5.609497e+000
1.829058e+003,7.040283e+000
1.830022e+003,6.102051e+000
1.830987e+003,4.006592e+000
1.831951e+003,8.471680e-001
1.832915e+003,-2.179688e+000
1.833879e+003,-2.786011e+000
1.834844e+003,-1.905396e+000
1.835808e+003,-3.123901e+000
1.836772e+003,-6.511963e+000
1.837736e+003,-7.904907e+000
1.838700e+003,-5.762085e+000
1.839665e+003,-2.667969e+000
1.840629e+003,-5.767822e-001
1.841593e+003,1.077393e+000
1.842557e+003,3.201294e+000
1.843522e+003,5.725342e+000
1.844486e+003,6.004517e+000
1.845450e+003,3.236694e+000
1.846414e+003,1.415894e+000
1.847379e+003,-2.274170e-001
1.848343e+003,-2.088867e+000
1.849307e+003,-4.303223e+000
1.850271e+003,-5.986816e+000
1.851236e+003,-6.535889e+000
1.852200e+003,-5.518188e+000
1.853164e+003,-2.007324e+000
1.854128e+003,2.203979e+000
1.855093e+003,3.277588e+000
1.856057e+003,6.363525e-001
1.857021e+003,-1.894409e+000
1.857985e+003,-1.322266e+000
1.858949e+003,-1.297607e-001
1.859914e+003,-3.739990e+000
1.860878e+003,-1.037427e+001
1.861842e+003,-9.816772e+000
1.862806e+003,-2.028809e+000
1.863771e+003,2.687622e+000
1.864735e+003,2.182739e+000
1.865699e+003,-1.193237e+000
1.866663e+003,-8.646484e+000
1.867627e+003,-1.303296e+001
1.868592e+003,-5.011353e+000
1.869556e+003,7.050171e+000
1.870520e+003,6.726196e+000
1.871484e+003,-3.773926e+000
1.872449e+003,-8.667480e+000
1.873413e+003,-2.997559e+000
1.874377e+003,2.524780e+000
1.875341e+003,2.104858e+000
1.876306e+003,1.073608e+000
1.877270e+003,2.299194e+000
1.878234e+003,3.800537e+000
1.879198e+003,4.427979e+000
1.880163e+003,3.861328e+000
1.881127e+003,9.697266e-001
1.882091e+003,-3.309814e+000
1.883055e+003,-5.520874e+000
1.884020e+003,-4.484253e+000
1.884984e+003,-3.235840e+000
1.885948e+003,-4.586548e+000
1.886912e+003,-6.201538e+000
1.887876e+003,-2.779053e+000
1.888841e+003,5.111084e+000
1.889805e+003,9.329224e+000
1.890769e+003,9.550659e+000
1.891733e+003,7.490845e+000
1.892698e+003,1.135376e+000
1.893662e+003,-3.477661e+000
1.894626e+003,-3.087402e+000
1.895590e+003,-1.427856e+000
1.896554e+003,-9.326172e-002
1.897519e+003,1.072876e+000
1.898483e+003,1.260254e+000
1.899447e+003,3.793945e-001
1.900411e+003,3.536377e-001
1.901376e+003,1.849487e+000
1.902340e+003,2.121460e+000
1.903304e+003,-1.163940e+000
1.904268e+003,-4.131592e+000
1.905233e+003,-3.344116e+000
1.906197e+003,-1.610229e+000
1.907161e+003,-1.765137e+000
1.908125e+003,-2.871216e+000
1.909090e+003,-3.952148e+000
1.910054e+003,-4.867798e+000
1.911018e+003,-4.475708e+000
1.911982e+003,-2.363892e+000
1.912947e+003,-7.946777e-001
1.913911e+003,-1.623291e+000
1.914875e+003,-2.511963e+000
1.915839e+003,1.154785e-001
1.916803e+003,4.940552e+000
1.917768e+003,8.258667e+000
1.918732e+003,1.084253e+001
1.919696e+003,9.401367e+000
1.920660e+003,1.556396e+000
1.921625e+003,-2.232300e+000
1.922589e+003,2.453247e+000
1.923553e+003,7.061523e+000
1.924517e+003,5.567017e+000
1.925481e+003,3.627197e+000
1.926446e+003,8.410400e+000
1.927410e+003,1.559192e+001
1.928374e+003,1.495215e+001
1.929338e+003,6.250488e+000
1.930303e+003,1.096313e+000
1.931267e+003,4.417236e+000
1.932231e+003,8.182495e+000
1.933195e+003,8.359253e+000
1.934160e+003,6.794434e+000
1.935124e+003,3.919434e+000
1.936088e+003,4.177246e-001
1.937052e+003,-2.934692e+000
1.938017e+003,-5.155884e+000
1.938981e+003,-4.531006e+000
1.939945e+003,-1.638550e+000
1.940909e+003,2.889404e-001
1.941874e+003,-2.542725e-001
1.942838e+003,-9.790039e-001
1.943802e+003,9.044189e-001
1.944766e+003,4.130493e+000
1.945730e+003,4.677246e+000
1.946695e+003,2.485718e+000
1.947659e+003,6.080322e-001
1.948623e+003,-1.252197e+000
1.949587e+003,-8.966064e-001
1.950552e+003,3.411499e+000
1.951516e+003,5.047852e+000
1.952480e+003,4.765625e-001
1.953444e+003,-4.569580e+000
1.954408e+003,-7.350098e+000
1.955373e+003,-7.994141e+000
1.956337e+003,-3.390503e+000
1.957301e+003,4.442383e+000
1.958265e+003,4.493408e+000
1.959230e+003,-4.862305e+000
1.960194e+003,-9.134277e+000
1.961158e+003,-4.306152e+000
1.962122e+003,3.753662e-001
1.963087e+003,4.304688e+000
1.964051e+003,5.723999e+000
1.965015e+003,2.232788e+000
1.965979e+003,-1.765625e+000
1.966944e+003,-2.149292e+000
1.967908e+003,-7.714844e-001
1.968872e+003,-1.647583e+000
1.969836e+003,-4.483887e+000
1.970801e+003,-5.170044e+000
1.971765e+003,-2.041382e+000
1.972729e+003,1.555420e+000
1.973693e+003,2.839844e+000
1.974657e+003,2.694580e+000
1.975622e+003,1.932617e+000
1.976586e+003,5.004883e-001
1.977550e+003,-1.674072e+000
1.978514e+003,-3.832642e+000
1.979479e+003,-2.167236e+000
1.980443e+003,3.328247e+000
1.981407e+003,5.157837e+000
1.982371e+003,5.776367e-001
1.983335e+003,-3.549438e+000
1.984300e+003,-2.418701e+000
1.985264e+003,1.343994e+000
1.986228e+003,4.527344e+000
1.987192e+003,6.824585e+000
1.988157e+003,6.568481e+000
1.989121e+003,3.386963e+000
1.990085e+003,9.268799e-001
1.991049e+003,-6.373291e-001
1.992014e+003,-1.026367e+000
1.992978e+003,5.612793e-001
1.993942e+003,1.520386e+000
1.994906e+003,1.662598e-001
1.995871e+003,-1.247559e+000
1.996835e+003,-2.596436e-001
1.997799e+003,1.669556e+000
1.998763e+003,1.106934e+000
1.999728e+003,-1.382080e+000
