5.003444e+002,3.986621e+001
5.013087e+002,4.335947e+001
5.022729e+002,4.281879e+001
5.032371e+002,3.949759e+001
5.042014e+002,3.738980e+001
5.051656e+002,3.637091e+001
5.061298e+002,3.557095e+001
5.070941e+002,3.410699e+001
5.080583e+002,3.159055e+001
5.090225e+002,2.991956e+001
5.099868e+002,2.878387e+001
5.109510e+002,2.843033e+001
5.119152e+002,2.920621e+001
5.128795e+002,3.120099e+001
5.138437e+002,3.336832e+001
5.148079e+002,3.705310e+001
5.157722e+002,3.945624e+001
5.167364e+002,3.856998e+001
5.177006e+002,3.455869e+001
5.186649e+002,2.966464e+001
5.196291e+002,2.621478e+001
5.205933e+002,2.426648e+001
5.215576e+002,2.378751e+001
5.225218e+002,2.447055e+001
5.234860e+002,2.585202e+001
5.244503e+002,2.745438e+001
5.254145e+002,2.985687e+001
5.263787e+002,3.030353e+001
5.273430e+002,2.715613e+001
5.283072e+002,2.316022e+001
5.292714e+002,2.236603e+001
5.302357e+002,2.691165e+001
5.311999e+002,2.924765e+001
5.321641e+002,2.750449e+001
5.331284e+002,2.492642e+001
5.340926e+002,2.425003e+001
5.350568e+002,2.650504e+001
5.360211e+002,2.816748e+001
5.369853e+002,2.505576e+001
5.379495e+002,2.090393e+001
5.389138e+002,1.879413e+001
5.398780e+002,1.980246e+001
5.408422e+002,2.261099e+001
5.418065e+002,2.402393e+001
5.427707e+002,2.414679e+001
5.437349e+002,2.303696e+001
5.446992e+002,2.010214e+001
5.456634e+002,1.621417e+001
5.466276e+002,1.456110e+001
5.475919e+002,1.803009e+001
5.485561e+002,2.058340e+001
5.495203e+002,2.176044e+001
5.504846e+002,2.178226e+001
5.514488e+002,2.095541e+001
5.524130e+002,1.908759e+001
5.533773e+002,1.736508e+001
5.543415e+002,1.623306e+001
5.553057e+002,1.559021e+001
5.562700e+002,1.541653e+001
5.572342e+002,1.565848e+001
5.581984e+002,1.597873e+001
5.591627e+002,1.554797e+001
5.601269e+002,1.483972e+001
5.610911e+002,1.469934e+001
5.620554e+002,1.554916e+001
5.630196e+002,1.709207e+001
5.639838e+002,1.744781e+001
5.649481e+002,1.562738e+001
5.659123e+002,1.410144e+001
5.668765e+002,1.397858e+001
5.678408e+002,1.479361e+001
5.688050e+002,1.472321e+001
5.697692e+002,1.173349e+001
5.707335e+002,9.307373e+000
5.716977e+002,8.763214e+000
5.726619e+002,9.464539e+000
5.736262e+002,1.077292e+001
5.745904e+002,1.251709e+001
5.755546e+002,1.380246e+001
5.765189e+002,1.276767e+001
5.774831e+002,1.017178e+001
5.784473e+002,7.525482e+000
5.794116e+002,5.965393e+000
5.803758e+002,5.541534e+000
5.813400e+002,4.979340e+000
5.823043e+002,3.707214e+000
5.832685e+002,2.812164e+000
5.842327e+002,3.150665e+000
5.851970e+002,4.654724e+000
5.861612e+002,5.872894e+000
5.871254e+002,5.854614e+000
5.880897e+002,6.046783e+000
5.890539e+002,6.928894e+000
5.900181e+002,8.030121e+000
5.909824e+002,8.644104e+000
5.919466e+002,8.402863e+000
5.929108e+002,7.537842e+000
5.938751e+002,5.865662e+000
5.948393e+002,4.009186e+000
5.958035e+002,3.023315e+000
5.967678e+002,3.699219e+000
5.977320e+002,5.885254e+000
5.986962e+002,8.054779e+000
5.996605e+002,1.010471e+001
6.006247e+002,1.122662e+001
6.015889e+002,1.065472e+001
6.025532e+002,8.565826e+000
6.035174e+002,7.190643e+000
6.044816e+002,7.559021e+000
6.054459e+002,7.659912e+000
6.064101e+002,6.953857e+000
6.073743e+002,5.802856e+000
6.083386e+002,4.982574e+000
6.093028e+002,5.136536e+000
6.102670e+002,5.350739e+000
6.112313e+002,4.673553e+000
6.121955e+002,3.608307e+000
6.131597e+002,2.643036e+000
6.141240e+002,2.132111e+000
6.150882e+002,2.202240e+000
6.160524e+002,4.542480e+000
6.170167e+002,8.831360e+000
6.179809e+002,1.135855e+001
6.189451e+002,9.586548e+000
6.199094e+002,4.205139e+000
6.208736e+002,1.446381e+000
6.218378e+002,5.246033e+000
6.228021e+002,7.785889e+000
6.237663e+002,7.814423e+000
6.247305e+002,6.409973e+000
6.256948e+002,5.257813e+000
6.266590e+002,4.813629e+000
6.276232e+002,4.521149e+000
6.285875e+002,4.581604e+000
6.295517e+002,4.636139e+000
6.305159e+002,3.948608e+000
6.314802e+002,2.136993e+000
6.324444e+002,-9.844971e-002
6.334086e+002,-1.358643e-001
6.343729e+002,1.502869e+000
6.353371e+002,3.312378e+000
6.363013e+002,4.857361e+000
6.372656e+002,5.881622e+000
6.382298e+002,5.635529e+000
6.391940e+002,2.482086e+000
6.401583e+002,-5.923462e-002
6.411225e+002,-1.536041e+000
6.420867e+002,-2.122589e+000
6.430510e+002,-2.169189e+000
6.440152e+002,-1.904785e+000
6.449794e+002,-1.383331e+000
6.459437e+002,-2.196960e-001
6.469079e+002,8.744507e-001
6.478721e+002,1.411346e+000
6.488364e+002,1.270325e+000
6.498006e+002,7.551880e-001
6.507648e+002,1.958313e-001
6.517291e+002,-5.067444e-001
6.526933e+002,-1.550262e+000
6.536575e+002,-3.028381e+000
6.546218e+002,-4.511627e+000
6.555860e+002,-5.161682e+000
6.565502e+002,-4.627747e+000
6.575145e+002,-3.901306e+000
6.584787e+002,-2.733398e+000
6.594429e+002,-1.560425e+000
6.604072e+002,-7.650146e-001
6.613714e+002,-4.240723e-001
6.623356e+002,-5.133057e-002
6.632999e+002,1.028839e+000
6.642641e+002,1.533020e+000
6.652283e+002,4.717102e-001
6.661926e+002,-1.777344e+000
6.671568e+002,-3.880920e+000
6.681210e+002,-4.424347e+000
6.690853e+002,-3.676636e+000
6.700495e+002,-2.221985e+000
6.710137e+002,-1.384277e-001
6.719780e+002,1.898468e+000
6.729422e+002,3.224884e+000
6.739064e+002,3.822174e+000
6.748707e+002,2.973694e+000
6.758349e+002,-6.043701e-001
6.767991e+002,-3.806580e+000
6.777634e+002,-5.031708e+000
6.787276e+002,-4.316711e+000
6.796918e+002,-3.241455e+000
6.806561e+002,-2.206390e+000
6.816203e+002,-1.543427e+000
6.825845e+002,-1.875061e+000
6.835488e+002,-2.545929e+000
6.845130e+002,-2.428680e+000
6.854772e+002,-5.688477e-001
6.864415e+002,2.339233e+000
6.874057e+002,4.827789e+000
6.883699e+002,6.541046e+000
6.893342e+002,6.697052e+000
6.902984e+002,4.781799e+000
6.912626e+002,1.291809e+000
6.922269e+002,-8.405151e-001
6.931911e+002,-3.262329e-002
6.941553e+002,6.709290e-001
6.951196e+002,7.893372e-001
6.960838e+002,3.663025e-001
6.970480e+002,-5.661926e-001
6.980123e+002,-2.467468e+000
6.989765e+002,-3.253052e+000
6.999407e+002,-1.364960e+000
7.009050e+002,1.106232e+000
7.018692e+002,2.581360e+000
7.028334e+002,2.465485e+000
7.037977e+002,1.292938e+000
7.047619e+002,-5.068054e-001
7.057261e+002,-2.297058e+000
7.066904e+002,-3.098480e+000
7.076546e+002,-2.759613e+000
7.086188e+002,-1.595764e+000
7.095831e+002,-1.739502e-002
7.105473e+002,2.273590e+000
7.115115e+002,3.485657e+000
7.124758e+002,3.174774e+000
7.134400e+002,2.339905e+000
7.144042e+002,1.480499e+000
7.153685e+002,7.379150e-001
7.163327e+002,3.479919e-001
7.172969e+002,1.094666e+000
7.182612e+002,1.642029e+000
7.192254e+002,9.360657e-001
7.201896e+002,-5.109253e-001
7.211539e+002,-1.421570e+000
7.221181e+002,-5.938721e-001
7.230823e+002,1.062439e+000
7.240466e+002,6.567688e-001
7.250108e+002,-1.069641e+000
7.259750e+002,-1.583771e+000
7.269393e+002,7.756958e-001
7.279035e+002,5.081573e+000
7.288677e+002,5.589783e+000
7.298320e+002,-2.994965e+000
7.307962e+002,-7.819946e+000
7.317604e+002,-5.886566e+000
7.327247e+002,-5.357056e-001
7.336889e+002,3.612274e+000
7.346531e+002,5.030304e+000
7.356174e+002,4.956482e+000
7.365816e+002,4.051880e+000
7.375458e+002,3.080383e+000
7.385101e+002,2.631042e+000
7.394743e+002,2.802277e+000
7.404385e+002,3.118958e+000
7.414028e+002,2.589508e+000
7.423670e+002,1.146667e+000
7.433312e+002,7.776184e-001
7.442955e+002,2.059082e+000
7.452597e+002,3.945984e+000
7.462239e+002,5.010040e+000
7.471882e+002,4.778687e+000
7.481524e+002,5.288940e+000
7.491166e+002,7.738556e+000
7.500809e+002,8.805298e+000
7.510451e+002,6.033386e+000
7.520093e+002,6.395569e-001
7.529736e+002,-2.858337e+000
7.539378e+002,-6.886292e-001
7.549020e+002,1.934998e+000
7.558663e+002,1.158112e+000
7.568306e+002,-1.251801e+000
7.577948e+002,-2.897156e+000
7.587590e+002,-2.414429e+000
7.597233e+002,-6.193848e-001
7.606875e+002,1.029572e+000
7.616517e+002,2.637512e+000
7.626160e+002,2.514648e+000
7.635802e+002,-7.207031e-001
7.645444e+002,-4.872162e+000
7.655087e+002,-4.914703e+000
7.664729e+002,2.470917e+000
7.674371e+002,6.452484e+000
7.684014e+002,4.234467e+000
7.693656e+002,9.799805e-001
7.703298e+002,7.772827e-002
7.712941e+002,1.884460e+000
7.722583e+002,3.884308e+000
7.732225e+002,4.091888e+000
7.741868e+002,3.892975e+000
7.751510e+002,4.531494e+000
7.761152e+002,5.744324e+000
7.770795e+002,6.640991e+000
7.780437e+002,6.397064e+000
7.790079e+002,5.117004e+000
7.799722e+002,4.342499e+000
7.809364e+002,4.218994e+000
7.819006e+002,3.531097e+000
7.828649e+002,1.268738e+000
7.838291e+002,-1.700684e+000
7.847933e+002,-2.742462e+000
7.857576e+002,-8.354492e-001
7.867218e+002,8.536072e-001
7.876860e+002,2.255951e+000
7.886503e+002,3.342468e+000
7.896145e+002,4.111664e+000
7.905787e+002,4.552063e+000
7.915430e+002,4.535797e+000
7.925072e+002,2.570435e+000
7.934714e+002,5.776672e-001
7.944357e+002,2.059479e+000
7.953999e+002,6.631927e+000
7.963641e+002,1.056094e+001
7.973284e+002,9.405579e+000
7.982926e+002,2.689484e+000
7.992568e+002,2.872314e-001
8.002211e+002,3.694580e+000
8.011853e+002,6.500336e+000
8.021495e+002,6.418976e+000
8.031138e+002,4.496674e+000
8.040780e+002,3.478973e+000
8.050422e+002,4.041504e+000
8.060065e+002,4.540253e+000
8.069707e+002,3.896240e+000
8.079349e+002,2.968201e+000
8.088992e+002,2.847565e+000
8.098634e+002,3.944550e+000
8.108276e+002,5.493866e+000
8.117919e+002,6.192474e+000
8.127561e+002,6.011688e+000
8.137203e+002,5.788269e+000
8.146846e+002,5.852234e+000
8.156488e+002,5.778473e+000
8.166130e+002,4.726868e+000
8.175773e+002,2.195160e+000
8.185415e+002,1.364502e+000
8.195057e+002,2.737518e+000
8.204700e+002,4.365448e+000
8.214342e+002,5.958557e+000
8.223984e+002,7.324493e+000
8.233627e+002,7.977173e+000
8.243269e+002,7.400208e+000
8.252911e+002,6.995178e+000
8.262554e+002,7.500061e+000
8.272196e+002,8.518463e+000
8.281838e+002,9.880981e+000
8.291481e+002,1.135999e+001
8.301123e+002,1.247833e+001
8.310765e+002,1.225638e+001
8.320408e+002,1.071313e+001
8.330050e+002,9.546112e+000
8.339692e+002,8.994293e+000
8.349335e+002,8.555542e+000
8.358977e+002,7.863281e+000
8.368619e+002,7.054474e+000
8.378262e+002,5.963593e+000
8.387904e+002,3.555054e+000
8.397546e+002,1.677887e+000
8.407189e+002,3.255615e-001
8.416831e+002,-2.124023e-002
8.426473e+002,1.830841e+000
8.436116e+002,7.004822e+000
8.445758e+002,1.210800e+001
8.455400e+002,1.284647e+001
8.465043e+002,1.136084e+001
8.474685e+002,1.032483e+001
8.484327e+002,1.060703e+001
8.493970e+002,1.102011e+001
8.503612e+002,9.131195e+000
8.513254e+002,4.097809e+000
8.522897e+002,2.897919e+000
8.532539e+002,7.957581e+000
8.542181e+002,1.288354e+001
8.551824e+002,1.364352e+001
8.561466e+002,1.103134e+001
8.571108e+002,9.846039e+000
8.580751e+002,1.151730e+001
8.590393e+002,1.298959e+001
8.600035e+002,1.365915e+001
8.609678e+002,1.385007e+001
8.619320e+002,1.380869e+001
8.628962e+002,1.364517e+001
8.638605e+002,1.349634e+001
8.648247e+002,1.347241e+001
8.657889e+002,1.368060e+001
8.667532e+002,1.457596e+001
8.677174e+002,1.621344e+001
8.686816e+002,1.817313e+001
8.696459e+002,2.016257e+001
8.706101e+002,2.243445e+001
8.715743e+002,2.363190e+001
8.725386e+002,2.327185e+001
8.735028e+002,2.264136e+001
8.744670e+002,2.107385e+001
8.754313e+002,1.932758e+001
8.763955e+002,1.926596e+001
8.773597e+002,2.218167e+001
8.783240e+002,2.491812e+001
8.792882e+002,2.481363e+001
8.802524e+002,2.356961e+001
8.812167e+002,2.204950e+001
8.821809e+002,2.087897e+001
8.831451e+002,2.108704e+001
8.841094e+002,2.427396e+001
8.850736e+002,3.032346e+001
8.860378e+002,3.303232e+001
8.870021e+002,3.171689e+001
8.879663e+002,2.965851e+001
8.889305e+002,2.833441e+001
8.898948e+002,2.756134e+001
8.908590e+002,2.676245e+001
8.918232e+002,2.563437e+001
8.927875e+002,2.544720e+001
8.937517e+002,2.708536e+001
8.947159e+002,2.920633e+001
8.956802e+002,3.042523e+001
8.966444e+002,3.042056e+001
8.976086e+002,3.029242e+001
8.985729e+002,3.183911e+001
8.995371e+002,3.374078e+001
9.005013e+002,3.287970e+001
9.014656e+002,2.994406e+001
9.024298e+002,2.808960e+001
9.033940e+002,2.970801e+001
9.043583e+002,3.405856e+001
9.053225e+002,3.665482e+001
9.062867e+002,3.485052e+001
9.072510e+002,3.433896e+001
9.082152e+002,3.740353e+001
9.091794e+002,4.089694e+001
9.101437e+002,4.093073e+001
9.111079e+002,3.681906e+001
9.120721e+002,3.369836e+001
9.130364e+002,3.619247e+001
9.140006e+002,3.876877e+001
9.149648e+002,3.789713e+001
9.159291e+002,3.485706e+001
9.168933e+002,3.259119e+001
9.178575e+002,3.304477e+001
9.188218e+002,3.523746e+001
9.197860e+002,3.628329e+001
9.207502e+002,3.608044e+001
9.217145e+002,3.558652e+001
9.226787e+002,3.527536e+001
9.236429e+002,3.501523e+001
9.246072e+002,3.433261e+001
9.255714e+002,3.292981e+001
9.265356e+002,3.171814e+001
9.274999e+002,3.105457e+001
9.284641e+002,3.017535e+001
9.294283e+002,2.833472e+001
9.303926e+002,2.637979e+001
9.313568e+002,2.592841e+001
9.323210e+002,2.788477e+001
9.332853e+002,3.052078e+001
9.342495e+002,3.119992e+001
9.352137e+002,3.057922e+001
9.361780e+002,2.934045e+001
9.371422e+002,2.784830e+001
9.381064e+002,2.680313e+001
9.390707e+002,2.703006e+001
9.400349e+002,2.858987e+001
9.409991e+002,2.928903e+001
9.419634e+002,2.850494e+001
9.429276e+002,2.766928e+001
9.438918e+002,2.715964e+001
9.448561e+002,2.692200e+001
9.458203e+002,2.679147e+001
9.467845e+002,2.674994e+001
9.477488e+002,2.707797e+001
9.487130e+002,2.840912e+001
9.496772e+002,2.978604e+001
9.506415e+002,3.048309e+001
9.516057e+002,3.043237e+001
9.525699e+002,2.967490e+001
9.535342e+002,2.816315e+001
9.544984e+002,2.614719e+001
9.554626e+002,2.718863e+001
9.564269e+002,3.243027e+001
9.573911e+002,3.639633e+001
9.583553e+002,3.714563e+001
9.593196e+002,3.584415e+001
9.602838e+002,3.403601e+001
9.612480e+002,3.134076e+001
9.622123e+002,2.969540e+001
9.631765e+002,3.061087e+001
9.641407e+002,3.187390e+001
9.651050e+002,3.275543e+001
9.660692e+002,3.295557e+001
9.670334e+002,3.225006e+001
9.679977e+002,3.060452e+001
9.689619e+002,2.882138e+001
9.699261e+002,2.799097e+001
9.708904e+002,2.785480e+001
9.718546e+002,2.869772e+001
9.728188e+002,3.063776e+001
9.737831e+002,3.291589e+001
9.747473e+002,3.459869e+001
9.757115e+002,3.560956e+001
9.766758e+002,3.688818e+001
9.776400e+002,3.964691e+001
9.786042e+002,4.158817e+001
9.795685e+002,4.161526e+001
9.805327e+002,4.040607e+001
9.814969e+002,3.911896e+001
9.824612e+002,3.829214e+001
9.834254e+002,3.737946e+001
9.843896e+002,3.555923e+001
9.853539e+002,3.303934e+001
9.863181e+002,2.923923e+001
9.872823e+002,2.461899e+001
9.882466e+002,2.157114e+001
9.892108e+002,2.244312e+001
9.901750e+002,2.685110e+001
9.911393e+002,2.957172e+001
9.921035e+002,2.810654e+001
9.930677e+002,2.762656e+001
9.940320e+002,2.932257e+001
9.949962e+002,3.176654e+001
9.959604e+002,3.351959e+001
9.969247e+002,3.456165e+001
9.978889e+002,3.620471e+001
9.988531e+002,3.883496e+001
9.998174e+002,4.184320e+001
1.000782e+003,4.606909e+001
1.001746e+003,5.036084e+001
1.002710e+003,5.260907e+001
1.003674e+003,5.208783e+001
1.004639e+003,5.053232e+001
1.005603e+003,5.107074e+001
1.006567e+003,5.386908e+001
1.007531e+003,5.598636e+001
1.008495e+003,5.774408e+001
1.009460e+003,5.840631e+001
1.010424e+003,5.712878e+001
1.011388e+003,5.442920e+001
1.012352e+003,5.210306e+001
1.013317e+003,5.001950e+001
1.014281e+003,4.878641e+001
1.015245e+003,4.901318e+001
1.016209e+003,4.933435e+001
1.017174e+003,4.945328e+001
1.018138e+003,4.885651e+001
1.019102e+003,4.622177e+001
1.020066e+003,4.015152e+001
1.021031e+003,3.274268e+001
1.021995e+003,3.049576e+001
1.022959e+003,3.202151e+001
1.023923e+003,3.188120e+001
1.024887e+003,2.784045e+001
1.025852e+003,2.204007e+001
1.026816e+003,1.763202e+001
1.027780e+003,1.467184e+001
1.028744e+003,1.382129e+001
1.029709e+003,1.791080e+001
1.030673e+003,2.073706e+001
1.031637e+003,1.954138e+001
1.032601e+003,1.620181e+001
1.033566e+003,1.353989e+001
1.034530e+003,1.261221e+001
1.035494e+003,1.215958e+001
1.036458e+003,1.008997e+001
1.037422e+003,7.932617e+000
1.038387e+003,8.984375e+000
1.039351e+003,1.287286e+001
1.040315e+003,1.615378e+001
1.041279e+003,1.628333e+001
1.042244e+003,1.399643e+001
1.043208e+003,1.239011e+001
1.044172e+003,1.135052e+001
1.045136e+003,1.086465e+001
1.046101e+003,1.173676e+001
1.047065e+003,1.255594e+001
1.048029e+003,1.222116e+001
1.048993e+003,1.089240e+001
1.049958e+003,9.528870e+000
1.050922e+003,8.492249e+000
1.051886e+003,8.186584e+000
1.052850e+003,9.452637e+000
1.053814e+003,1.130682e+001
1.054779e+003,1.247064e+001
1.055743e+003,1.264633e+001
1.056707e+003,1.231183e+001
1.057671e+003,1.200745e+001
1.058636e+003,1.168466e+001
1.059600e+003,1.214322e+001
1.060564e+003,1.486868e+001
1.061528e+003,1.678638e+001
1.062493e+003,1.651431e+001
1.063457e+003,1.542511e+001
1.064421e+003,1.535278e+001
1.065385e+003,1.657037e+001
1.066349e+003,1.739493e+001
1.067314e+003,1.703110e+001
1.068278e+003,1.589291e+001
1.069242e+003,1.373117e+001
1.070206e+003,1.137704e+001
1.071171e+003,9.936310e+000
1.072135e+003,9.789246e+000
1.073099e+003,1.049420e+001
1.074063e+003,1.152658e+001
1.075028e+003,1.301733e+001
1.075992e+003,1.443515e+001
1.076956e+003,1.601712e+001
1.077920e+003,1.682343e+001
1.078885e+003,1.705890e+001
1.079849e+003,1.644754e+001
1.080813e+003,1.342358e+001
1.081777e+003,6.922974e+000
1.082741e+003,3.006592e+000
1.083706e+003,8.104279e+000
1.084670e+003,1.331799e+001
1.085634e+003,1.312500e+001
1.086598e+003,9.304596e+000
1.087563e+003,6.277222e+000
1.088527e+003,6.564362e+000
1.089491e+003,8.507019e+000
1.090455e+003,8.393524e+000
1.091420e+003,5.748474e+000
1.092384e+003,4.851959e+000
1.093348e+003,6.300110e+000
1.094312e+003,7.999176e+000
1.095276e+003,8.830719e+000
1.096241e+003,9.254730e+000
1.097205e+003,1.055542e+001
1.098169e+003,1.357758e+001
1.099133e+003,1.486115e+001
1.100098e+003,1.083060e+001
1.101062e+003,7.099609e+000
1.102026e+003,7.642822e+000
1.102990e+003,1.149564e+001
1.103955e+003,1.582224e+001
1.104919e+003,1.880801e+001
1.105883e+003,2.017044e+001
1.106847e+003,1.895258e+001
1.107812e+003,1.510922e+001
1.108776e+003,1.325067e+001
1.109740e+003,1.418915e+001
1.110704e+003,1.583121e+001
1.111668e+003,1.723230e+001
1.112633e+003,1.843765e+001
1.113597e+003,1.879263e+001
1.114561e+003,1.739514e+001
1.115525e+003,1.666617e+001
1.116490e+003,1.733643e+001
1.117454e+003,1.872937e+001
1.118418e+003,2.155228e+001
1.119382e+003,2.490485e+001
1.120347e+003,2.638556e+001
1.121311e+003,2.435455e+001
1.122275e+003,2.061520e+001
1.123239e+003,1.935049e+001
1.124203e+003,2.079004e+001
1.125168e+003,2.313828e+001
1.126132e+003,2.677625e+001
1.127096e+003,3.022662e+001
1.128060e+003,3.198190e+001
1.129025e+003,3.235654e+001
1.129989e+003,3.336899e+001
1.130953e+003,3.576404e+001
1.131917e+003,3.707312e+001
1.132882e+003,3.542816e+001
1.133846e+003,3.403146e+001
1.134810e+003,3.537506e+001
1.135774e+003,3.860211e+001
1.136739e+003,4.102280e+001
1.137703e+003,4.113428e+001
1.138667e+003,4.074930e+001
1.139631e+003,4.343436e+001
1.140595e+003,4.873602e+001
1.141560e+003,5.226743e+001
1.142524e+003,5.311743e+001
1.143488e+003,5.547348e+001
1.144452e+003,6.257397e+001
1.145417e+003,7.337326e+001
1.146381e+003,8.408759e+001
1.147345e+003,9.439832e+001
1.148309e+003,1.050052e+002
1.149274e+003,1.163314e+002
1.150238e+003,1.279697e+002
1.151202e+003,1.397324e+002
1.152166e+003,1.519148e+002
1.153130e+003,1.657649e+002
1.154095e+003,1.813182e+002
1.155059e+003,1.949509e+002
1.156023e+003,2.015316e+002
1.156987e+003,2.016368e+002
1.157952e+003,2.018989e+002
1.158916e+003,2.032912e+002
1.159880e+003,2.023601e+002
1.160844e+003,1.963124e+002
1.161809e+003,1.861158e+002
1.162773e+003,1.744004e+002
1.163737e+003,1.609090e+002
1.164701e+003,1.472849e+002
1.165666e+003,1.332726e+002
1.166630e+003,1.202838e+002
1.167594e+003,1.082591e+002
1.168558e+003,9.776901e+001
1.169522e+003,8.948230e+001
1.170487e+003,8.361755e+001
1.171451e+003,8.037903e+001
1.172415e+003,8.040244e+001
1.173379e+003,8.259662e+001
1.174344e+003,8.109967e+001
1.175308e+003,7.583734e+001
1.176272e+003,7.132767e+001
1.177236e+003,6.907663e+001
1.178201e+003,6.838913e+001
1.179165e+003,6.894870e+001
1.180129e+003,7.062350e+001
1.181093e+003,6.996799e+001
1.182057e+003,6.491882e+001
1.183022e+003,5.963187e+001
1.183986e+003,5.462064e+001
1.184950e+003,5.086908e+001
1.185914e+003,4.977573e+001
1.186879e+003,5.107773e+001
1.187843e+003,5.302805e+001
1.188807e+003,5.412271e+001
1.189771e+003,5.489761e+001
1.190736e+003,5.764255e+001
1.191700e+003,6.270474e+001
1.192664e+003,6.554492e+001
1.193628e+003,6.524838e+001
1.194593e+003,6.366016e+001
1.195557e+003,6.177405e+001
1.196521e+003,5.955621e+001
1.197485e+003,5.689078e+001
1.198449e+003,5.354788e+001
1.199414e+003,5.060052e+001
1.200378e+003,4.850076e+001
1.201342e+003,4.701328e+001
1.202306e+003,4.658609e+001
1.203271e+003,4.642911e+001
1.204235e+003,4.495303e+001
1.205199e+003,4.155267e+001
1.206163e+003,3.756549e+001
1.207128e+003,3.517484e+001
1.208092e+003,3.450177e+001
1.209056e+003,3.387607e+001
1.210020e+003,3.382306e+001
1.210984e+003,3.286780e+001
1.211949e+003,2.977960e+001
1.212913e+003,2.596069e+001
1.213877e+003,2.346451e+001
1.214841e+003,2.244604e+001
1.215806e+003,2.112573e+001
1.216770e+003,1.856888e+001
1.217734e+003,1.581110e+001
1.218698e+003,1.337451e+001
1.219663e+003,1.111307e+001
1.220627e+003,8.842285e+000
1.221591e+003,6.585205e+000
1.222555e+003,4.556396e+000
1.223520e+003,2.993591e+000
1.224484e+003,1.949310e+000
1.225448e+003,1.227295e+000
1.226412e+003,7.774658e-001
1.227376e+003,7.362671e-001
1.228341e+003,1.519623e+000
1.229305e+003,2.077820e+000
1.230269e+003,1.726105e+000
1.231233e+003,7.515564e-001
1.232198e+003,-2.073364e-001
1.233162e+003,-8.999634e-001
1.234126e+003,-1.278931e+000
1.235090e+003,-1.080658e+000
1.236055e+003,-1.091309e+000
1.237019e+003,-2.381378e+000
1.237983e+003,-4.561127e+000
1.238947e+003,-6.431580e+000
1.239911e+003,-7.386261e+000
1.240876e+003,-7.662689e+000
1.241840e+003,-7.701416e+000
1.242804e+003,-7.490936e+000
1.243768e+003,-7.049774e+000
1.244733e+003,-6.457458e+000
1.245697e+003,-5.453430e+000
1.246661e+003,-3.803192e+000
1.247625e+003,-2.321747e+000
1.248590e+003,-1.464203e+000
1.249554e+003,-1.052490e+000
1.250518e+003,-8.500977e-001
1.251482e+003,-9.113464e-001
1.252447e+003,-8.395691e-001
1.253411e+003,3.201294e-002
1.254375e+003,1.648346e+000
1.255339e+003,4.054321e+000
1.256303e+003,7.243744e+000
1.257268e+003,9.511383e+000
1.258232e+003,9.302887e+000
1.259196e+003,7.891418e+000
1.260160e+003,8.531403e+000
1.261125e+003,1.197137e+001
1.262089e+003,1.399881e+001
1.263053e+003,1.232974e+001
1.264017e+003,1.106747e+001
1.264982e+003,1.167563e+001
1.265946e+003,1.290366e+001
1.266910e+003,1.358545e+001
1.267874e+003,1.363031e+001
1.268839e+003,1.357254e+001
1.269803e+003,1.376825e+001
1.270767e+003,1.428754e+001
1.271731e+003,1.572601e+001
1.272695e+003,1.797055e+001
1.273660e+003,1.725998e+001
1.274624e+003,1.173279e+001
1.275588e+003,7.075348e+000
1.276552e+003,7.825684e+000
1.277517e+003,1.119452e+001
1.278481e+003,1.123834e+001
1.279445e+003,7.270325e+000
1.280409e+003,4.466187e+000
1.281374e+003,5.777588e+000
1.282338e+003,6.913513e+000
1.283302e+003,5.127533e+000
1.284266e+003,2.241211e+000
1.285230e+003,3.607178e-002
1.286195e+003,-9.996033e-001
1.287159e+003,-7.851868e-001
1.288123e+003,8.515015e-001
1.289087e+003,3.181519e+000
1.290052e+003,3.506622e+000
1.291016e+003,8.653259e-001
1.291980e+003,-1.021484e+000
1.292944e+003,-2.507813e+000
1.293909e+003,-3.257172e+000
1.294873e+003,-2.234009e+000
1.295837e+003,-5.729370e-001
1.296801e+003,2.421570e-001
1.297766e+003,-2.990723e-002
1.298730e+003,-1.421021e+000
1.299694e+003,-4.889801e+000
1.300658e+003,-8.046143e+000
1.301622e+003,-7.462402e+000
1.302587e+003,-4.979370e+000
1.303551e+003,-3.673981e+000
1.304515e+003,-3.933868e+000
1.305479e+003,-3.930847e+000
1.306444e+003,-2.142334e+000
1.307408e+003,6.041260e-001
1.308372e+003,1.680298e+000
1.309336e+003,4.264832e-001
1.310301e+003,-5.364380e-001
1.311265e+003,-1.071228e+000
1.312229e+003,-1.074066e+000
1.313193e+003,-1.031189e-001
1.314157e+003,1.061768e+000
1.315122e+003,1.766022e+000
1.316086e+003,1.761719e+000
1.317050e+003,7.331543e-001
1.318014e+003,-1.565308e+000
1.318979e+003,-3.723755e+000
1.319943e+003,-2.981079e+000
1.320907e+003,3.713379e-001
1.321871e+003,2.544769e+000
1.322836e+003,2.948608e+000
1.323800e+003,2.790710e+000
1.324764e+003,2.770416e+000
1.325728e+003,2.637787e+000
1.326693e+003,1.886444e+000
1.327657e+003,3.889160e-001
1.328621e+003,-1.827820e+000
1.329585e+003,-5.480591e+000
1.330549e+003,-7.398010e+000
1.331514e+003,-5.420044e+000
1.332478e+003,-2.530090e+000
1.333442e+003,-1.442932e+000
1.334406e+003,-1.993073e+000
1.335371e+003,-2.458710e+000
1.336335e+003,-1.801788e+000
1.337299e+003,-6.039124e-001
1.338263e+003,-1.150513e-002
1.339228e+003,-3.027344e-002
1.340192e+003,-5.485535e-001
1.341156e+003,-2.482788e+000
1.342120e+003,-3.567108e+000
1.343084e+003,-3.113586e+000
1.344049e+003,-2.390839e+000
1.345013e+003,-2.102234e+000
1.345977e+003,-2.185425e+000
1.346941e+003,-2.712585e+000
1.347906e+003,-3.802979e+000
1.348870e+003,-4.104767e+000
1.349834e+003,-1.614777e+000
1.350798e+003,1.714386e+000
1.351763e+003,2.122253e+000
1.352727e+003,1.303711e-001
1.353691e+003,-1.360748e+000
1.354655e+003,-1.171692e+000
1.355620e+003,-5.221558e-001
1.356584e+003,-8.981018e-001
1.357548e+003,-2.089569e+000
1.358512e+003,-2.852814e+000
1.359476e+003,-3.464752e+000
1.360441e+003,-3.532806e+000
1.361405e+003,-2.326691e+000
1.362369e+003,-1.033661e+000
1.363333e+003,7.977295e-002
1.364298e+003,7.882690e-001
1.365262e+003,6.133423e-001
1.366226e+003,-3.349304e-001
1.367190e+003,-1.135284e+000
1.368155e+003,-9.649353e-001
1.369119e+003,-4.888916e-002
1.370083e+003,1.056274e+000
1.371047e+003,2.857330e+000
1.372011e+003,2.816620e+000
1.372976e+003,-1.695709e+000
1.373940e+003,-4.957489e+000
1.374904e+003,-3.929443e+000
1.375868e+003,-9.408875e-001
1.376833e+003,1.300323e+000
1.377797e+003,2.420715e+000
1.378761e+003,2.912018e+000
1.379725e+003,3.028625e+000
1.380690e+003,2.599792e+000
1.381654e+003,5.722046e-001
1.382618e+003,-1.577606e+000
1.383582e+003,-1.591827e+000
1.384547e+003,4.329834e-001
1.385511e+003,2.831573e+000
1.386475e+003,4.817474e+000
1.387439e+003,6.272095e+000
1.388403e+003,6.966644e+000
1.389368e+003,6.880463e+000
1.390332e+003,6.716766e+000
1.391296e+003,6.916687e+000
1.392260e+003,6.431641e+000
1.393225e+003,3.593475e+000
1.394189e+003,1.489441e+000
1.395153e+003,2.671112e+000
1.396117e+003,5.429565e+000
1.397082e+003,7.002655e+000
1.398046e+003,6.747772e+000
1.399010e+003,6.166229e+000
1.399974e+003,6.515778e+000
1.400938e+003,7.086761e+000
1.401903e+003,6.225098e+000
1.402867e+003,3.873383e+000
1.403831e+003,3.029968e+000
1.404795e+003,3.811127e+000
1.405760e+003,5.307373e+000
1.406724e+003,8.081970e+000
1.407688e+003,1.010019e+001
1.408652e+003,8.490509e+000
1.409617e+003,4.161957e+000
1.410581e+003,1.621918e+000
1.411545e+003,2.788452e+000
1.412509e+003,5.301117e+000
1.413474e+003,7.307251e+000
1.414438e+003,8.589783e+000
1.415402e+003,9.282623e+000
1.416366e+003,9.548676e+000
1.417330e+003,9.130341e+000
1.418295e+003,7.737427e+000
1.419259e+003,6.365875e+000
1.420223e+003,6.313690e+000
1.421187e+003,7.169861e+000
1.422152e+003,7.062866e+000
1.423116e+003,5.799774e+000
1.424080e+003,4.875916e+000
1.425044e+003,4.205658e+000
1.426009e+003,4.095795e+000
1.426973e+003,4.995148e+000
1.427937e+003,6.331757e+000
1.428901e+003,7.725250e+000
1.429865e+003,9.023285e+000
1.430830e+003,9.963165e+000
1.431794e+003,1.028021e+001
1.432758e+003,1.000803e+001
1.433722e+003,9.463440e+000
1.434687e+003,8.928894e+000
1.435651e+003,8.559692e+000
1.436615e+003,6.612793e+000
1.437579e+003,5.993713e+000
1.438544e+003,8.726318e+000
1.439508e+003,1.125198e+001
1.440472e+003,1.066113e+001
1.441436e+003,8.578339e+000
1.442401e+003,8.165100e+000
1.443365e+003,1.007159e+001
1.444329e+003,1.277368e+001
1.445293e+003,1.552451e+001
1.446257e+003,1.764645e+001
1.447222e+003,1.708795e+001
1.448186e+003,1.442041e+001
1.449150e+003,1.290024e+001
1.450114e+003,1.277448e+001
1.451079e+003,1.356824e+001
1.452043e+003,1.658484e+001
1.453007e+003,1.960855e+001
1.453971e+003,1.881412e+001
1.454936e+003,1.462762e+001
1.455900e+003,1.101474e+001
1.456864e+003,8.583954e+000
1.457828e+003,7.960541e+000
1.458792e+003,1.138547e+001
1.459757e+003,1.481885e+001
1.460721e+003,1.417896e+001
1.461685e+003,1.121844e+001
1.462649e+003,1.007068e+001
1.463614e+003,1.173969e+001
1.464578e+003,1.334576e+001
1.465542e+003,1.211200e+001
1.466506e+003,9.121216e+000
1.467471e+003,7.833618e+000
1.468435e+003,8.773926e+000
1.469399e+003,1.001541e+001
1.470363e+003,1.142737e+001
1.471328e+003,1.266663e+001
1.472292e+003,1.341446e+001
1.473256e+003,1.377557e+001
1.474220e+003,1.417664e+001
1.475184e+003,1.463953e+001
1.476149e+003,1.457767e+001
1.477113e+003,1.389319e+001
1.478077e+003,1.383148e+001
1.479041e+003,1.583603e+001
1.480006e+003,1.911304e+001
1.480970e+003,2.048340e+001
1.481934e+003,1.912048e+001
1.482898e+003,1.828592e+001
1.483863e+003,1.883377e+001
1.484827e+003,1.856277e+001
1.485791e+003,1.561804e+001
1.486755e+003,1.308420e+001
1.487719e+003,1.396674e+001
1.488684e+003,1.742496e+001
1.489648e+003,2.116125e+001
1.490612e+003,2.448401e+001
1.491576e+003,2.706046e+001
1.492541e+003,2.831464e+001
1.493505e+003,2.891736e+001
1.494469e+003,3.022980e+001
1.495433e+003,3.199615e+001
1.496398e+003,3.454791e+001
1.497362e+003,3.875504e+001
1.498326e+003,4.229156e+001
1.499290e+003,4.258755e+001
1.500255e+003,4.241650e+001
1.501219e+003,4.597363e+001
1.502183e+003,5.258600e+001
1.503147e+003,5.799680e+001
1.504111e+003,6.095282e+001
1.505076e+003,6.432880e+001
1.506040e+003,6.961557e+001
1.507004e+003,7.643082e+001
1.507968e+003,8.466040e+001
1.508933e+003,9.385303e+001
1.509897e+003,1.027272e+002
1.510861e+003,1.115032e+002
1.511825e+003,1.226791e+002
1.512790e+003,1.383405e+002
1.513754e+003,1.560834e+002
1.514718e+003,1.713116e+002
1.515682e+003,1.838321e+002
1.516646e+003,1.982344e+002
1.517611e+003,2.162866e+002
1.518575e+003,2.334189e+002
1.519539e+003,2.492631e+002
1.520503e+003,2.631684e+002
1.521468e+003,2.752021e+002
1.522432e+003,2.846395e+002
1.523396e+003,2.908517e+002
1.524360e+003,2.935050e+002
1.525325e+003,2.920771e+002
1.526289e+003,2.862831e+002
1.527253e+003,2.777831e+002
1.528217e+003,2.694973e+002
1.529182e+003,2.616458e+002
1.530146e+003,2.514883e+002
1.531110e+003,2.388029e+002
1.532074e+003,2.236139e+002
1.533039e+003,2.056531e+002
1.534003e+003,1.848122e+002
1.534967e+003,1.585310e+002
1.535931e+003,1.320456e+002
1.536896e+003,1.110268e+002
1.537860e+003,9.558597e+001
1.538824e+003,8.216818e+001
1.539788e+003,6.886212e+001
1.540752e+003,5.742621e+001
1.541717e+003,5.045459e+001
1.542681e+003,4.732178e+001
1.543645e+003,4.301767e+001
1.544609e+003,3.675015e+001
1.545573e+003,3.204755e+001
1.546538e+003,2.834915e+001
1.547502e+003,2.623050e+001
1.548466e+003,2.766547e+001
1.549430e+003,2.991867e+001
1.550395e+003,2.995270e+001
1.551359e+003,2.802322e+001
1.552323e+003,2.610065e+001
1.553287e+003,2.490256e+001
1.554252e+003,2.346542e+001
1.555216e+003,2.079980e+001
1.556180e+003,1.762842e+001
1.557144e+003,1.564761e+001
1.558109e+003,1.500696e+001
1.559073e+003,1.492001e+001
1.560037e+003,1.548032e+001
1.561001e+003,1.563373e+001
1.561966e+003,1.518259e+001
1.562930e+003,1.465439e+001
1.563894e+003,1.398462e+001
1.564858e+003,1.347507e+001
1.565823e+003,1.428354e+001
1.566787e+003,1.648178e+001
1.567751e+003,1.802844e+001
1.568715e+003,1.771460e+001
1.569679e+003,1.678662e+001
1.570644e+003,1.692389e+001
1.571608e+003,1.736200e+001
1.572572e+003,1.580722e+001
1.573536e+003,1.226379e+001
1.574500e+003,1.069357e+001
1.575465e+003,1.354538e+001
1.576429e+003,1.673785e+001
1.577393e+003,1.639774e+001
1.578357e+003,1.420728e+001
1.579322e+003,1.356973e+001
1.580286e+003,1.473462e+001
1.581250e+003,1.654922e+001
1.582214e+003,1.890750e+001
1.583179e+003,2.094400e+001
1.584143e+003,2.205582e+001
1.585107e+003,2.219315e+001
1.586071e+003,2.148474e+001
1.587036e+003,2.032153e+001
1.588000e+003,1.904138e+001
1.588964e+003,1.751538e+001
1.589928e+003,1.633151e+001
1.590893e+003,1.596838e+001
1.591857e+003,1.616736e+001
1.592821e+003,1.652029e+001
1.593785e+003,1.712225e+001
1.594750e+003,1.845648e+001
1.595714e+003,2.065552e+001
1.596678e+003,2.239001e+001
1.597642e+003,2.279541e+001
1.598606e+003,2.313333e+001
1.599571e+003,2.466071e+001
1.600535e+003,2.671310e+001
1.601499e+003,2.879211e+001
1.602463e+003,3.051721e+001
1.603427e+003,3.069632e+001
1.604392e+003,2.874985e+001
1.605356e+003,2.608609e+001
1.606320e+003,2.358609e+001
1.607284e+003,2.166003e+001
1.608249e+003,2.208441e+001
1.609213e+003,2.499683e+001
1.610177e+003,2.565906e+001
1.611141e+003,2.245078e+001
1.612106e+003,1.907175e+001
1.613070e+003,1.631732e+001
1.614034e+003,1.496271e+001
1.614998e+003,1.674332e+001
1.615963e+003,1.989355e+001
1.616927e+003,2.115610e+001
1.617891e+003,2.020761e+001
1.618855e+003,1.948026e+001
1.619820e+003,2.043362e+001
1.620784e+003,2.148541e+001
1.621748e+003,2.029156e+001
1.622712e+003,1.767432e+001
1.623677e+003,1.712927e+001
1.624641e+003,1.905035e+001
1.625605e+003,2.106924e+001
1.626569e+003,2.254523e+001
1.627533e+003,2.317786e+001
1.628498e+003,2.281387e+001
1.629462e+003,2.211557e+001
1.630426e+003,2.117130e+001
1.631390e+003,2.035092e+001
1.632354e+003,2.056287e+001
1.633319e+003,2.188519e+001
1.634283e+003,2.313858e+001
1.635247e+003,2.342645e+001
1.636211e+003,2.309113e+001
1.637176e+003,2.290167e+001
1.638140e+003,2.291562e+001
1.639104e+003,2.238733e+001
1.640068e+003,2.089624e+001
1.641033e+003,2.001883e+001
1.641997e+003,2.067627e+001
1.642961e+003,2.149261e+001
1.643925e+003,2.203769e+001
1.644890e+003,2.216260e+001
1.645854e+003,2.145206e+001
1.646818e+003,2.017392e+001
1.647782e+003,1.886508e+001
1.648747e+003,1.774689e+001
1.649711e+003,1.744275e+001
1.650675e+003,1.880661e+001
1.651639e+003,2.096893e+001
1.652604e+003,2.161090e+001
1.653568e+003,2.070740e+001
1.654532e+003,2.106497e+001
1.655496e+003,2.358115e+001
1.656460e+003,2.462048e+001
1.657425e+003,2.231555e+001
1.658389e+003,1.958249e+001
1.659353e+003,1.783731e+001
1.660317e+003,1.658609e+001
1.661281e+003,1.489127e+001
1.662246e+003,1.315848e+001
1.663210e+003,1.312247e+001
1.664174e+003,1.534366e+001
1.665138e+003,1.769925e+001
1.666103e+003,1.838367e+001
1.667067e+003,1.780490e+001
1.668031e+003,1.685178e+001
1.668995e+003,1.558109e+001
1.669960e+003,1.387167e+001
1.670924e+003,1.157153e+001
1.671888e+003,9.662354e+000
1.672852e+003,7.822144e+000
1.673817e+003,7.148529e+000
1.674781e+003,9.379456e+000
1.675745e+003,1.224045e+001
1.676709e+003,1.325659e+001
1.677674e+003,1.262878e+001
1.678638e+003,1.144165e+001
1.679602e+003,1.005646e+001
1.680566e+003,9.194672e+000
1.681531e+003,9.652069e+000
1.682495e+003,1.091928e+001
1.683459e+003,1.236066e+001
1.684423e+003,1.363437e+001
1.685387e+003,1.287650e+001
1.686352e+003,9.613495e+000
1.687316e+003,7.553711e+000
1.688280e+003,8.555847e+000
1.689244e+003,9.714844e+000
1.690208e+003,8.126129e+000
1.691173e+003,5.979462e+000
1.692137e+003,6.157898e+000
1.693101e+003,8.093811e+000
1.694065e+003,9.247406e+000
1.695030e+003,8.826630e+000
1.695994e+003,7.505676e+000
1.696958e+003,5.160736e+000
1.697922e+003,3.016022e+000
1.698887e+003,2.747467e+000
1.699851e+003,3.943420e+000
1.700815e+003,5.469360e+000
1.701779e+003,7.086273e+000
1.702744e+003,7.723206e+000
1.703708e+003,7.137054e+000
1.704672e+003,6.035370e+000
1.705636e+003,4.041962e+000
1.706601e+003,2.152283e+000
1.707565e+003,2.331635e+000
1.708529e+003,4.231689e+000
1.709493e+003,6.699249e+000
1.710458e+003,9.750763e+000
1.711422e+003,1.164886e+001
1.712386e+003,1.166055e+001
1.713350e+003,1.063382e+001
1.714314e+003,7.929932e+000
1.715279e+003,4.991730e+000
1.716243e+003,4.911957e+000
1.717207e+003,7.264618e+000
1.718171e+003,9.025024e+000
1.719135e+003,9.400635e+000
1.720100e+003,8.722046e+000
1.721064e+003,6.909149e+000
1.722028e+003,4.640778e+000
1.722992e+003,2.935333e+000
1.723957e+003,2.003296e+000
1.724921e+003,1.979279e+000
1.725885e+003,2.769470e+000
1.726849e+003,2.780670e+000
1.727814e+003,1.264313e+000
1.728778e+003,3.570862e-001
1.729742e+003,1.619934e+000
1.730706e+003,3.172394e+000
1.731671e+003,2.603729e+000
1.732635e+003,7.004089e-001
1.733599e+003,6.735229e-002
1.734563e+003,1.080292e+000
1.735528e+003,1.535339e+000
1.736492e+003,1.810608e-001
1.737456e+003,-1.598297e+000
1.738420e+003,-2.247620e+000
1.739385e+003,-1.918243e+000
1.740349e+003,-3.950195e-001
1.741313e+003,3.131226e+000
1.742277e+003,4.459137e+000
1.743241e+003,1.593628e+000
1.744206e+003,1.343079e-001
1.745170e+003,2.010468e+000
1.746134e+003,3.808136e+000
1.747098e+003,3.379608e+000
1.748063e+003,2.019989e+000
1.749027e+003,1.428558e+000
1.749991e+003,1.459625e+000
1.750955e+003,6.630249e-001
1.751919e+003,-1.243195e+000
1.752884e+003,-2.422729e+000
1.753848e+003,-1.327209e+000
1.754812e+003,6.991272e-001
1.755776e+003,9.428101e-001
1.756741e+003,-3.261414e-001
1.757705e+003,2.554016e-001
1.758669e+003,3.682495e+000
1.759633e+003,5.530334e+000
1.760598e+003,4.241302e+000
1.761562e+003,2.588776e+000
1.762526e+003,1.007324e+000
1.763490e+003,1.254578e-001
1.764455e+003,1.186493e+000
1.765419e+003,2.867279e+000
1.766383e+003,2.765900e+000
1.767347e+003,8.325500e-001
1.768312e+003,-8.870544e-001
1.769276e+003,-1.484680e+000
1.770240e+003,-1.921661e+000
1.771204e+003,-3.250366e+000
1.772168e+003,-4.483276e+000
1.773133e+003,-3.403534e+000
1.774097e+003,-2.983398e-001
1.775061e+003,1.876648e+000
1.776025e+003,2.484009e+000
1.776990e+003,3.446594e+000
1.777954e+003,6.270630e+000
1.778918e+003,8.335510e+000
1.779882e+003,6.922211e+000
1.780846e+003,3.946228e+000
1.781811e+003,2.023071e+000
1.782775e+003,1.031921e+000
1.783739e+003,6.049805e-001
1.784703e+003,8.668213e-001
1.785668e+003,4.108887e-001
1.786632e+003,-2.541687e+000
1.787596e+003,-5.269287e+000
1.788560e+003,-5.286621e+000
1.789525e+003,-3.708221e+000
1.790489e+003,-1.845917e+000
1.791453e+003,-2.058105e-001
1.792417e+003,4.306335e-001
1.793382e+003,-3.939819e-002
1.794346e+003,-1.011963e+000
1.795310e+003,-2.220703e+000
1.796274e+003,-3.734009e+000
1.797239e+003,-5.755005e+000
1.798203e+003,-7.387573e+000
1.799167e+003,-6.244659e+000
1.800131e+003,-2.006622e+000
1.801095e+003,1.669312e-002
1.802060e+003,-1.690674e+000
1.803024e+003,-2.195984e+000
1.803988e+003,1.423950e-001
1.804952e+003,2.041809e+000
1.805917e+003,1.466919e+000
1.806881e+003,1.031799e-001
1.807845e+003,-2.920532e-001
1.808809e+003,1.082153e-001
1.809773e+003,4.743042e-001
1.810738e+003,5.468445e-001
1.811702e+003,2.815552e-001
1.812666e+003,-3.326416e-001
1.813630e+003,-2.490540e-001
1.814595e+003,2.422211e+000
1.815559e+003,6.291779e+000
1.816523e+003,5.036346e+000
1.817487e+003,-2.024323e+000
1.818452e+003,-5.672607e+000
1.819416e+003,-4.135956e+000
1.820380e+003,-2.517731e+000
1.821344e+003,-2.283539e+000
1.822309e+003,-2.566162e+000
1.823273e+003,-3.190338e+000
1.824237e+003,-3.509430e+000
1.825201e+003,-3.019501e+000
1.826166e+003,-1.830475e+000
1.827130e+003,2.617493e-001
1.828094e+003,3.135071e+000
1.829058e+003,4.503113e+000
1.830022e+003,3.040131e+000
1.830987e+003,6.227417e-001
1.831951e+003,-1.476013e+000
1.832915e+003,-3.374237e+000
1.833879e+003,-5.684113e+000
1.834844e+003,-7.909241e+000
1.835808e+003,-8.269836e+000
1.836772e+003,-6.676331e+000
1.837736e+003,-5.265167e+000
1.838700e+003,-5.069763e+000
1.839665e+003,-4.999817e+000
1.840629e+003,-3.900055e+000
1.841593e+003,-2.381592e+000
1.842557e+003,-1.985748e+000
1.843522e+003,-2.699677e+000
1.844486e+003,-2.577576e+000
1.845450e+003,-9.601440e-001
1.846414e+003,7.562561e-001
1.847379e+003,3.372498e+000
1.848343e+003,4.298920e+000
1.849307e+003,1.450073e+000
1.850271e+003,-1.721558e+000
1.851236e+003,-2.738159e+000
1.852200e+003,-2.322723e+000
1.853164e+003,-1.699402e+000
1.854128e+003,-1.356567e+000
1.855093e+003,-1.327576e+000
1.856057e+003,-1.447601e+000
1.857021e+003,-1.676117e+000
1.857985e+003,-2.156921e+000
1.858949e+003,-2.539398e+000
1.859914e+003,-1.933990e+000
1.860878e+003,-5.322571e-001
1.861842e+003,9.143066e-002
1.862806e+003,-1.724854e-001
1.863771e+003,4.827271e-001
1.864735e+003,2.684235e+000
1.865699e+003,3.797241e+000
1.866663e+003,2.302460e+000
1.867627e+003,4.638062e-001
1.868592e+003,1.798096e-001
1.869556e+003,5.499268e-001
1.870520e+003,2.871399e-001
1.871484e+003,-5.720825e-001
1.872449e+003,-1.876526e+000
1.873413e+003,-3.606903e+000
1.874377e+003,-3.575836e+000
1.875341e+003,2.308044e-001
1.876306e+003,3.173706e+000
1.877270e+003,1.248657e+000
1.878234e+003,-1.447266e+000
1.879198e+003,-3.814697e-003
1.880163e+003,3.596710e+000
1.881127e+003,5.174042e+000
1.882091e+003,4.444763e+000
1.883055e+003,3.626251e+000
1.884020e+003,3.652313e+000
1.884984e+003,3.723419e+000
1.885948e+003,3.130829e+000
1.886912e+003,2.003479e+000
1.887876e+003,4.399109e-001
1.888841e+003,-1.404938e+000
1.889805e+003,-1.717773e+000
1.890769e+003,-2.505188e-001
1.891733e+003,1.528961e+000
1.892698e+003,3.820587e+000
1.893662e+003,5.202209e+000
1.894626e+003,4.966034e+000
1.895590e+003,4.104034e+000
1.896554e+003,3.112366e+000
1.897519e+003,2.220490e+000
1.898483e+003,1.707031e+000
1.899447e+003,1.219055e+000
1.900411e+003,-7.220459e-002
1.901376e+003,-2.302826e+000
1.902340e+003,-3.922363e+000
1.903304e+003,-4.303589e+000
1.904268e+003,-4.095428e+000
1.905233e+003,-3.978088e+000
1.906197e+003,-3.051849e+000
1.907161e+003,6.852112e-001
1.908125e+003,5.452118e+000
1.909090e+003,7.850769e+000
1.910054e+003,7.726624e+000
1.911018e+003,6.735718e+000
1.911982e+003,5.686554e+000
1.912947e+003,4.865112e+000
1.913911e+003,4.419830e+000
1.914875e+003,3.979401e+000
1.915839e+003,2.773651e+000
1.916803e+003,1.073273e+000
1.917768e+003,1.207367e+000
1.918732e+003,3.656189e+000
1.919696e+003,5.859253e+000
1.920660e+003,8.382263e+000
1.921625e+003,9.150269e+000
1.922589e+003,6.207611e+000
1.923553e+003,3.605469e+000
1.924517e+003,4.271515e+000
1.925481e+003,5.548035e+000
1.926446e+003,4.813629e+000
1.927410e+003,3.124939e+000
1.928374e+003,2.642365e+000
1.929338e+003,3.330048e+000
1.930303e+003,3.729279e+000
1.931267e+003,3.535950e+000
1.932231e+003,3.837402e+000
1.933195e+003,5.749176e+000
1.934160e+003,7.154266e+000
1.935124e+003,5.769897e+000
1.936088e+003,3.493195e+000
1.937052e+003,2.935425e+000
1.938017e+003,3.660217e+000
1.938981e+003,4.090729e+000
1.939945e+003,3.887482e+000
1.940909e+003,3.324615e+000
1.941874e+003,2.585724e+000
1.942838e+003,2.541687e+000
1.943802e+003,4.290649e+000
1.944766e+003,6.352600e+000
1.945730e+003,4.888306e+000
1.946695e+003,4.499207e-001
1.947659e+003,-9.972839e-001
1.948623e+003,7.909546e-001
1.949587e+003,2.261261e+000
1.950552e+003,3.255005e+000
1.951516e+003,3.400513e+000
1.952480e+003,1.975189e+000
1.953444e+003,9.411621e-001
1.954408e+003,1.905548e+000
1.955373e+003,3.531006e+000
1.956337e+003,4.223846e+000
1.957301e+003,4.389740e+000
1.958265e+003,4.806763e+000
1.959230e+003,5.586884e+000
1.960194e+003,6.012360e+000
1.961158e+003,5.077972e+000
1.962122e+003,4.502960e+000
1.963087e+003,4.880920e+000
1.964051e+003,5.647308e+000
1.965015e+003,7.261292e+000
1.965979e+003,8.787811e+000
1.966944e+003,9.107513e+000
1.967908e+003,8.355560e+000
1.968872e+003,6.804657e+000
1.969836e+003,4.919067e+000
1.970801e+003,3.610474e+000
1.971765e+003,3.288147e+000
1.972729e+003,3.799042e+000
1.973693e+003,5.221832e+000
1.974657e+003,6.706726e+000
1.975622e+003,6.610779e+000
1.976586e+003,5.571075e+000
1.977550e+003,5.636780e+000
1.978514e+003,6.711273e+000
1.979479e+003,7.836090e+000
1.980443e+003,8.742462e+000
1.981407e+003,8.136536e+000
1.982371e+003,5.502991e+000
1.983335e+003,3.393219e+000
1.984300e+003,3.605682e+000
1.985264e+003,5.371674e+000
1.986228e+003,8.001312e+000
1.987192e+003,1.087814e+001
1.988157e+003,1.060107e+001
1.989121e+003,6.290161e+000
1.990085e+003,3.835358e+000
1.991049e+003,4.475708e+000
1.992014e+003,4.687622e+000
1.992978e+003,3.011047e+000
1.993942e+003,2.076752e+000
1.994906e+003,3.094513e+000
1.995871e+003,4.845093e+000
1.996835e+003,7.016052e+000
1.997799e+003,9.135559e+000
1.998763e+003,1.043292e+001
1.999728e+003,1.089145e+001
