5.003444e+002,2.076348e+002
5.013087e+002,2.041536e+002
5.022729e+002,1.976904e+002
5.032371e+002,1.907159e+002
5.042014e+002,1.885225e+002
5.051656e+002,1.904597e+002
5.061298e+002,1.918781e+002
5.070941e+002,1.879404e+002
5.080583e+002,1.762043e+002
5.090225e+002,1.706271e+002
5.099868e+002,1.749519e+002
5.109510e+002,1.793396e+002
5.119152e+002,1.782937e+002
5.128795e+002,1.712753e+002
5.138437e+002,1.653800e+002
5.148079e+002,1.636451e+002
5.157722e+002,1.633667e+002
5.167364e+002,1.640148e+002
5.177006e+002,1.647584e+002
5.186649e+002,1.643384e+002
5.196291e+002,1.611567e+002
5.205933e+002,1.577787e+002
5.215576e+002,1.560586e+002
5.225218e+002,1.553843e+002
5.234860e+002,1.541403e+002
5.244503e+002,1.502388e+002
5.254145e+002,1.436426e+002
5.263787e+002,1.399417e+002
5.273430e+002,1.405210e+002
5.283072e+002,1.430317e+002
5.292714e+002,1.439656e+002
5.302357e+002,1.413362e+002
5.311999e+002,1.384071e+002
5.321641e+002,1.374530e+002
5.331284e+002,1.370885e+002
5.340926e+002,1.356949e+002
5.350568e+002,1.321749e+002
5.360211e+002,1.274836e+002
5.369853e+002,1.227782e+002
5.379495e+002,1.190450e+002
5.389138e+002,1.170433e+002
5.398780e+002,1.168120e+002
5.408422e+002,1.176179e+002
5.418065e+002,1.180854e+002
5.427707e+002,1.182058e+002
5.437349e+002,1.179009e+002
5.446992e+002,1.171222e+002
5.456634e+002,1.156299e+002
5.466276e+002,1.128293e+002
5.475919e+002,1.059883e+002
5.485561e+002,1.021470e+002
5.495203e+002,1.041661e+002
5.504846e+002,1.077529e+002
5.514488e+002,1.064728e+002
5.524130e+002,9.600134e+001
5.533773e+002,8.667407e+001
5.543415e+002,8.438306e+001
5.553057e+002,8.539478e+001
5.562700e+002,8.559192e+001
5.572342e+002,8.235535e+001
5.581984e+002,7.776172e+001
5.591627e+002,7.875049e+001
5.601269e+002,8.338232e+001
5.610911e+002,8.630005e+001
5.620554e+002,8.435986e+001
5.630196e+002,7.794250e+001
5.639838e+002,7.347766e+001
5.649481e+002,7.296545e+001
5.659123e+002,7.158594e+001
5.668765e+002,6.867676e+001
5.678408e+002,6.547253e+001
5.688050e+002,6.429089e+001
5.697692e+002,6.645300e+001
5.707335e+002,6.695215e+001
5.716977e+002,6.384705e+001
5.726619e+002,5.910425e+001
5.736262e+002,5.543201e+001
5.745904e+002,5.489600e+001
5.755546e+002,5.590857e+001
5.765189e+002,5.460120e+001
5.774831e+002,5.160852e+001
5.784473e+002,4.941797e+001
5.794116e+002,5.006104e+001
5.803758e+002,5.361597e+001
5.813400e+002,5.353491e+001
5.823043e+002,4.718445e+001
5.832685e+002,4.184924e+001
5.842327e+002,4.105200e+001
5.851970e+002,4.475098e+001
5.861612e+002,4.919336e+001
5.871254e+002,5.555273e+001
5.880897e+002,5.944543e+001
5.890539e+002,5.886926e+001
5.900181e+002,5.500085e+001
5.909824e+002,4.973267e+001
5.919466e+002,4.370264e+001
5.929108e+002,3.881042e+001
5.938751e+002,3.655969e+001
5.948393e+002,3.627698e+001
5.958035e+002,3.759070e+001
5.967678e+002,4.028040e+001
5.977320e+002,4.412646e+001
5.986962e+002,4.399097e+001
5.996605e+002,3.890356e+001
6.006247e+002,3.418762e+001
6.015889e+002,3.284583e+001
6.025532e+002,3.467554e+001
6.035174e+002,3.506018e+001
6.044816e+002,3.173730e+001
6.054459e+002,2.967822e+001
6.064101e+002,3.062976e+001
6.073743e+002,3.307581e+001
6.083386e+002,3.420789e+001
6.093028e+002,3.220032e+001
6.102670e+002,2.984607e+001
6.112313e+002,2.861243e+001
6.121955e+002,2.841638e+001
6.131597e+002,2.941907e+001
6.141240e+002,3.165771e+001
6.150882e+002,3.447717e+001
6.160524e+002,3.537720e+001
6.170167e+002,3.509961e+001
6.179809e+002,3.521948e+001
6.189451e+002,3.624023e+001
6.199094e+002,3.753748e+001
6.208736e+002,3.733972e+001
6.218378e+002,3.414368e+001
6.228021e+002,3.294275e+001
6.237663e+002,3.649133e+001
6.247305e+002,4.198645e+001
6.256948e+002,4.441089e+001
6.266590e+002,4.027661e+001
6.276232e+002,3.414026e+001
6.285875e+002,2.822009e+001
6.295517e+002,2.385437e+001
6.305159e+002,2.286816e+001
6.314802e+002,2.580786e+001
6.324444e+002,3.022229e+001
6.334086e+002,2.953772e+001
6.343729e+002,2.610535e+001
6.353371e+002,2.493030e+001
6.363013e+002,2.815527e+001
6.372656e+002,3.362000e+001
6.382298e+002,3.421777e+001
6.391940e+002,2.454602e+001
6.401583e+002,1.593970e+001
6.411225e+002,8.491333e+000
6.420867e+002,3.808838e+000
6.430510e+002,4.111084e+000
6.440152e+002,1.109436e+001
6.449794e+002,1.644336e+001
6.459437e+002,1.515503e+001
6.469079e+002,1.145911e+001
6.478721e+002,8.748047e+000
6.488364e+002,8.368286e+000
6.498006e+002,8.963745e+000
6.507648e+002,7.675293e+000
6.517291e+002,4.810791e+000
6.526933e+002,8.459473e-001
6.536575e+002,-4.411133e+000
6.546218e+002,-8.482056e+000
6.555860e+002,-6.122070e+000
6.565502e+002,8.597412e+000
6.575145e+002,1.649500e+001
6.584787e+002,1.482458e+001
6.594429e+002,9.711182e+000
6.604072e+002,4.862671e+000
6.613714e+002,5.358887e-001
6.623356e+002,-1.045532e+000
6.632999e+002,3.175537e+000
6.642641e+002,7.580688e+000
6.652283e+002,1.047571e+001
6.661926e+002,1.158386e+001
6.671568e+002,1.101721e+001
6.681210e+002,7.472046e+000
6.690853e+002,2.576904e+000
6.700495e+002,1.639160e+000
6.710137e+002,4.609619e+000
6.719780e+002,8.843262e+000
6.729422e+002,1.147095e+001
6.739064e+002,1.184521e+001
6.748707e+002,1.248425e+001
6.758349e+002,1.459656e+001
6.767991e+002,1.525098e+001
6.777634e+002,1.292578e+001
6.787276e+002,8.652344e+000
6.796918e+002,6.286255e+000
6.806561e+002,7.293823e+000
6.816203e+002,9.076050e+000
6.825845e+002,1.170605e+001
6.835488e+002,1.424585e+001
6.845130e+002,1.534705e+001
6.854772e+002,1.402490e+001
6.864415e+002,1.198450e+001
6.874057e+002,1.187061e+001
6.883699e+002,1.235352e+001
6.893342e+002,1.214685e+001
6.902984e+002,1.074255e+001
6.912626e+002,8.560303e+000
6.922269e+002,6.797241e+000
6.931911e+002,7.266846e+000
6.941553e+002,7.966797e+000
6.951196e+002,7.398926e+000
6.960838e+002,6.033203e+000
6.970480e+002,5.131470e+000
6.980123e+002,5.133789e+000
6.989765e+002,6.433105e+000
6.999407e+002,9.975708e+000
7.009050e+002,1.369238e+001
7.018692e+002,1.600500e+001
7.028334e+002,1.624084e+001
7.037977e+002,1.471875e+001
7.047619e+002,1.128967e+001
7.057261e+002,7.746460e+000
7.066904e+002,6.927612e+000
7.076546e+002,9.240479e+000
7.086188e+002,1.284094e+001
7.095831e+002,1.483337e+001
7.105473e+002,1.440125e+001
7.115115e+002,1.320129e+001
7.124758e+002,1.038147e+001
7.134400e+002,7.296265e+000
7.144042e+002,4.811035e+000
7.153685e+002,3.296265e+000
7.163327e+002,3.005249e+000
7.172969e+002,5.969727e+000
7.182612e+002,8.640015e+000
7.192254e+002,9.244873e+000
7.201896e+002,7.957642e+000
7.211539e+002,5.265015e+000
7.221181e+002,1.308105e+000
7.230823e+002,-2.247803e+000
7.240466e+002,-1.119385e-001
7.250108e+002,6.905396e+000
7.259750e+002,1.319019e+001
7.269393e+002,1.468311e+001
7.279035e+002,1.118420e+001
7.288677e+002,7.954956e+000
7.298320e+002,7.022583e+000
7.307962e+002,7.166870e+000
7.317604e+002,8.447510e+000
7.327247e+002,1.092224e+001
7.336889e+002,1.503101e+001
7.346531e+002,2.127075e+001
7.356174e+002,2.234436e+001
7.365816e+002,1.170654e+001
7.375458e+002,-1.182861e-001
7.385101e+002,-4.811035e+000
7.394743e+002,-6.519775e-001
7.404385e+002,7.396484e+000
7.414028e+002,1.216797e+001
7.423670e+002,1.236475e+001
7.433312e+002,1.053271e+001
7.442955e+002,7.802124e+000
7.452597e+002,5.988037e+000
7.462239e+002,6.451660e+000
7.471882e+002,9.033081e+000
7.481524e+002,1.325146e+001
7.491166e+002,2.116040e+001
7.500809e+002,2.587378e+001
7.510451e+002,2.323438e+001
7.520093e+002,1.500659e+001
7.529736e+002,7.578857e+000
7.539378e+002,4.259766e+000
7.549020e+002,4.349609e+000
7.558663e+002,8.265991e+000
7.568306e+002,1.405029e+001
7.577948e+002,1.933630e+001
7.587590e+002,2.233142e+001
7.597233e+002,2.255457e+001
7.606875e+002,1.874231e+001
7.616517e+002,1.211646e+001
7.626160e+002,8.708862e+000
7.635802e+002,1.112817e+001
7.645444e+002,1.685938e+001
7.655087e+002,2.040576e+001
7.664729e+002,2.022412e+001
7.674371e+002,2.052051e+001
7.684014e+002,2.157324e+001
7.693656e+002,2.292029e+001
7.703298e+002,2.479309e+001
7.712941e+002,2.712488e+001
7.722583e+002,2.883435e+001
7.732225e+002,2.886133e+001
7.741868e+002,2.796851e+001
7.751510e+002,2.551306e+001
7.761152e+002,2.272192e+001
7.770795e+002,2.250806e+001
7.780437e+002,2.740759e+001
7.790079e+002,3.605017e+001
7.799722e+002,3.736865e+001
7.809364e+002,3.092468e+001
7.819006e+002,2.511707e+001
7.828649e+002,2.431006e+001
7.838291e+002,2.739343e+001
7.847933e+002,2.929016e+001
7.857576e+002,2.814795e+001
7.867218e+002,2.608997e+001
7.876860e+002,2.423462e+001
7.886503e+002,2.277710e+001
7.896145e+002,2.138965e+001
7.905787e+002,2.010742e+001
7.915430e+002,2.014368e+001
7.925072e+002,2.394153e+001
7.934714e+002,2.765295e+001
7.944357e+002,2.740686e+001
7.953999e+002,2.392419e+001
7.963641e+002,2.024011e+001
7.973284e+002,1.940588e+001
7.982926e+002,2.156165e+001
7.992568e+002,2.492883e+001
8.002211e+002,2.943274e+001
8.011853e+002,3.147864e+001
8.021495e+002,2.989368e+001
8.031138e+002,2.690674e+001
8.040780e+002,2.706311e+001
8.050422e+002,3.194971e+001
8.060065e+002,3.642908e+001
8.069707e+002,3.858374e+001
8.079349e+002,3.879773e+001
8.088992e+002,3.707202e+001
8.098634e+002,3.409021e+001
8.108276e+002,3.223376e+001
8.117919e+002,3.574634e+001
8.127561e+002,4.047668e+001
8.137203e+002,4.007935e+001
8.146846e+002,3.477014e+001
8.156488e+002,2.878455e+001
8.166130e+002,2.675574e+001
8.175773e+002,2.914624e+001
8.185415e+002,3.138184e+001
8.195057e+002,3.240051e+001
8.204700e+002,3.308984e+001
8.214342e+002,3.380054e+001
8.223984e+002,3.444739e+001
8.233627e+002,3.482910e+001
8.243269e+002,3.523352e+001
8.252911e+002,3.525623e+001
8.262554e+002,3.347070e+001
8.272196e+002,3.174365e+001
8.281838e+002,3.262439e+001
8.291481e+002,3.656177e+001
8.301123e+002,4.096326e+001
8.310765e+002,4.096619e+001
8.320408e+002,3.670056e+001
8.330050e+002,3.415784e+001
8.339692e+002,3.417957e+001
8.349335e+002,3.494690e+001
8.358977e+002,3.486755e+001
8.368619e+002,3.422900e+001
8.378262e+002,3.409705e+001
8.387904e+002,3.388708e+001
8.397546e+002,3.358203e+001
8.407189e+002,3.222729e+001
8.416831e+002,3.116748e+001
8.426473e+002,3.290039e+001
8.436116e+002,3.904126e+001
8.445758e+002,4.667480e+001
8.455400e+002,5.275854e+001
8.465043e+002,5.675464e+001
8.474685e+002,5.894897e+001
8.484327e+002,6.003235e+001
8.493970e+002,6.031482e+001
8.503612e+002,5.920435e+001
8.513254e+002,5.594482e+001
8.522897e+002,5.386707e+001
8.532539e+002,5.220483e+001
8.542181e+002,5.141541e+001
8.551824e+002,5.289990e+001
8.561466e+002,5.722644e+001
8.571108e+002,6.269836e+001
8.580751e+002,6.902612e+001
8.590393e+002,7.203503e+001
8.600035e+002,6.879028e+001
8.609678e+002,6.398291e+001
8.619320e+002,6.271143e+001
8.628962e+002,6.684729e+001
8.638605e+002,7.349207e+001
8.648247e+002,7.931348e+001
8.657889e+002,8.399194e+001
8.667532e+002,8.682410e+001
8.677174e+002,8.770569e+001
8.686816e+002,8.814063e+001
8.696459e+002,9.033765e+001
8.706101e+002,9.533667e+001
8.715743e+002,9.732483e+001
8.725386e+002,9.233484e+001
8.735028e+002,8.980322e+001
8.744670e+002,9.260181e+001
8.754313e+002,9.817847e+001
8.763955e+002,1.022876e+002
8.773597e+002,1.036296e+002
8.783240e+002,1.048695e+002
8.792882e+002,1.082085e+002
8.802524e+002,1.114907e+002
8.812167e+002,1.125781e+002
8.821809e+002,1.113850e+002
8.831451e+002,1.097068e+002
8.841094e+002,1.100045e+002
8.850736e+002,1.128422e+002
8.860378e+002,1.160880e+002
8.870021e+002,1.192606e+002
8.879663e+002,1.226202e+002
8.889305e+002,1.263162e+002
8.898948e+002,1.299069e+002
8.908590e+002,1.323612e+002
8.918232e+002,1.339492e+002
8.927875e+002,1.350837e+002
8.937517e+002,1.345870e+002
8.947159e+002,1.346832e+002
8.956802e+002,1.370511e+002
8.966444e+002,1.414303e+002
8.976086e+002,1.459015e+002
8.985729e+002,1.498817e+002
8.995371e+002,1.531466e+002
9.005013e+002,1.536860e+002
9.014656e+002,1.525295e+002
9.024298e+002,1.532930e+002
9.033940e+002,1.585837e+002
9.043583e+002,1.667593e+002
9.053225e+002,1.697562e+002
9.062867e+002,1.605839e+002
9.072510e+002,1.539078e+002
9.082152e+002,1.525394e+002
9.091794e+002,1.539774e+002
9.101437e+002,1.558479e+002
9.111079e+002,1.577085e+002
9.120721e+002,1.594098e+002
9.130364e+002,1.596643e+002
9.140006e+002,1.593204e+002
9.149648e+002,1.596284e+002
9.159291e+002,1.608114e+002
9.168933e+002,1.625077e+002
9.178575e+002,1.640643e+002
9.188218e+002,1.647272e+002
9.197860e+002,1.627959e+002
9.207502e+002,1.578428e+002
9.217145e+002,1.533539e+002
9.226787e+002,1.510509e+002
9.236429e+002,1.503708e+002
9.246072e+002,1.501202e+002
9.255714e+002,1.499220e+002
9.265356e+002,1.488698e+002
9.274999e+002,1.446064e+002
9.284641e+002,1.411666e+002
9.294283e+002,1.415658e+002
9.303926e+002,1.440554e+002
9.313568e+002,1.451176e+002
9.323210e+002,1.428334e+002
9.332853e+002,1.389194e+002
9.342495e+002,1.356953e+002
9.352137e+002,1.326426e+002
9.361780e+002,1.300598e+002
9.371422e+002,1.285505e+002
9.381064e+002,1.272452e+002
9.390707e+002,1.238481e+002
9.400349e+002,1.166145e+002
9.409991e+002,1.134698e+002
9.419634e+002,1.176554e+002
9.429276e+002,1.207701e+002
9.438918e+002,1.204945e+002
9.448561e+002,1.181444e+002
9.458203e+002,1.155159e+002
9.467845e+002,1.128488e+002
9.477488e+002,1.125100e+002
9.487130e+002,1.177283e+002
9.496772e+002,1.245626e+002
9.506415e+002,1.311257e+002
9.516057e+002,1.364332e+002
9.525699e+002,1.389099e+002
9.535342e+002,1.368384e+002
9.544984e+002,1.307148e+002
9.554626e+002,1.278470e+002
9.564269e+002,1.297773e+002
9.573911e+002,1.322051e+002
9.583553e+002,1.343284e+002
9.593196e+002,1.356627e+002
9.602838e+002,1.352023e+002
9.612480e+002,1.321558e+002
9.622123e+002,1.292913e+002
9.631765e+002,1.276520e+002
9.641407e+002,1.266711e+002
9.651050e+002,1.259939e+002
9.660692e+002,1.252357e+002
9.670334e+002,1.243568e+002
9.679977e+002,1.237777e+002
9.689619e+002,1.240043e+002
9.699261e+002,1.237280e+002
9.708904e+002,1.231237e+002
9.718546e+002,1.253923e+002
9.728188e+002,1.311431e+002
9.737831e+002,1.388817e+002
9.747473e+002,1.474835e+002
9.757115e+002,1.576649e+002
9.766758e+002,1.662688e+002
9.776400e+002,1.758170e+002
9.786042e+002,1.820430e+002
9.795685e+002,1.837263e+002
9.805327e+002,1.803521e+002
9.814969e+002,1.703698e+002
9.824612e+002,1.537278e+002
9.834254e+002,1.376741e+002
9.843896e+002,1.285262e+002
9.853539e+002,1.229784e+002
9.863181e+002,1.187252e+002
9.872823e+002,1.147170e+002
9.882466e+002,1.096919e+002
9.892108e+002,1.032020e+002
9.901750e+002,9.715942e+001
9.911393e+002,9.796716e+001
9.921035e+002,1.094053e+002
9.930677e+002,1.173618e+002
9.940320e+002,1.192434e+002
9.949962e+002,1.206290e+002
9.959604e+002,1.275497e+002
9.969247e+002,1.402581e+002
9.978889e+002,1.512090e+002
9.988531e+002,1.539746e+002
9.998174e+002,1.551035e+002
1.000782e+003,1.595411e+002
1.001746e+003,1.661301e+002
1.002710e+003,1.729198e+002
1.003674e+003,1.787108e+002
1.004639e+003,1.831125e+002
1.005603e+003,1.854550e+002
1.006567e+003,1.851890e+002
1.007531e+003,1.837983e+002
1.008495e+003,1.806707e+002
1.009460e+003,1.779581e+002
1.010424e+003,1.775250e+002
1.011388e+003,1.789615e+002
1.012352e+003,1.801179e+002
1.013317e+003,1.814099e+002
1.014281e+003,1.797255e+002
1.015245e+003,1.729742e+002
1.016209e+003,1.639661e+002
1.017174e+003,1.547802e+002
1.018138e+003,1.457874e+002
1.019102e+003,1.361182e+002
1.020066e+003,1.251799e+002
1.021031e+003,1.138607e+002
1.021995e+003,1.019731e+002
1.022959e+003,8.920935e+001
1.023923e+003,8.051392e+001
1.024887e+003,7.853210e+001
1.025852e+003,7.918433e+001
1.026816e+003,7.622974e+001
1.027780e+003,6.943262e+001
1.028744e+003,6.309912e+001
1.029709e+003,5.619897e+001
1.030673e+003,5.099512e+001
1.031637e+003,4.855200e+001
1.032601e+003,4.759680e+001
1.033566e+003,4.683765e+001
1.034530e+003,4.601221e+001
1.035494e+003,4.545288e+001
1.036458e+003,4.541541e+001
1.037422e+003,4.526782e+001
1.038387e+003,4.368713e+001
1.039351e+003,4.075537e+001
1.040315e+003,3.887512e+001
1.041279e+003,4.031677e+001
1.042244e+003,4.454126e+001
1.043208e+003,4.729700e+001
1.044172e+003,4.672754e+001
1.045136e+003,4.615234e+001
1.046101e+003,4.568884e+001
1.047065e+003,4.593250e+001
1.048029e+003,4.809399e+001
1.048993e+003,5.108020e+001
1.049958e+003,5.154736e+001
1.050922e+003,4.761450e+001
1.051886e+003,4.288049e+001
1.052850e+003,3.924744e+001
1.053814e+003,3.754480e+001
1.054779e+003,4.027014e+001
1.055743e+003,4.717590e+001
1.056707e+003,5.409094e+001
1.057671e+003,5.592468e+001
1.058636e+003,5.247913e+001
1.059600e+003,5.105676e+001
1.060564e+003,5.605786e+001
1.061528e+003,5.858069e+001
1.062493e+003,5.431360e+001
1.063457e+003,4.757983e+001
1.064421e+003,4.380664e+001
1.065385e+003,4.388049e+001
1.066349e+003,4.412292e+001
1.067314e+003,4.221008e+001
1.068278e+003,4.062598e+001
1.069242e+003,4.136304e+001
1.070206e+003,4.387817e+001
1.071171e+003,4.724707e+001
1.072135e+003,5.056519e+001
1.073099e+003,5.294214e+001
1.074063e+003,5.348291e+001
1.075028e+003,5.236414e+001
1.075992e+003,5.012720e+001
1.076956e+003,4.479077e+001
1.077920e+003,4.048572e+001
1.078885e+003,4.050269e+001
1.079849e+003,4.294678e+001
1.080813e+003,4.363013e+001
1.081777e+003,4.174451e+001
1.082741e+003,4.026733e+001
1.083706e+003,4.094873e+001
1.084670e+003,4.062195e+001
1.085634e+003,3.573096e+001
1.086598e+003,2.879309e+001
1.087563e+003,2.555579e+001
1.088527e+003,2.925671e+001
1.089491e+003,3.643066e+001
1.090455e+003,3.901733e+001
1.091420e+003,3.576270e+001
1.092384e+003,3.473560e+001
1.093348e+003,3.672437e+001
1.094312e+003,3.830396e+001
1.095276e+003,3.755737e+001
1.096241e+003,3.578821e+001
1.097205e+003,3.602051e+001
1.098169e+003,3.930530e+001
1.099133e+003,4.071021e+001
1.100098e+003,3.677759e+001
1.101062e+003,3.272754e+001
1.102026e+003,3.204443e+001
1.102990e+003,3.410645e+001
1.103955e+003,3.636194e+001
1.104919e+003,3.710535e+001
1.105883e+003,3.690576e+001
1.106847e+003,3.728748e+001
1.107812e+003,3.819568e+001
1.108776e+003,3.982190e+001
1.109740e+003,4.232837e+001
1.110704e+003,4.527490e+001
1.111668e+003,4.942883e+001
1.112633e+003,5.477783e+001
1.113597e+003,5.914648e+001
1.114561e+003,6.184094e+001
1.115525e+003,6.303699e+001
1.116490e+003,6.126465e+001
1.117454e+003,5.948657e+001
1.118418e+003,5.986511e+001
1.119382e+003,6.277942e+001
1.120347e+003,6.789648e+001
1.121311e+003,7.439270e+001
1.122275e+003,7.975818e+001
1.123239e+003,8.034692e+001
1.124203e+003,7.751416e+001
1.125168e+003,7.651208e+001
1.126132e+003,7.811475e+001
1.127096e+003,8.116187e+001
1.128060e+003,8.395325e+001
1.129025e+003,8.674670e+001
1.129989e+003,9.270129e+001
1.130953e+003,1.045234e+002
1.131917e+003,1.128390e+002
1.132882e+003,1.124758e+002
1.133846e+003,1.116492e+002
1.134810e+003,1.157905e+002
1.135774e+003,1.238054e+002
1.136739e+003,1.314539e+002
1.137703e+003,1.362971e+002
1.138667e+003,1.402209e+002
1.139631e+003,1.463402e+002
1.140595e+003,1.547509e+002
1.141560e+003,1.655349e+002
1.142524e+003,1.786123e+002
1.143488e+003,1.966873e+002
1.144452e+003,2.225857e+002
1.145417e+003,2.547163e+002
1.146381e+003,2.872698e+002
1.147345e+003,3.195596e+002
1.148309e+003,3.530813e+002
1.149274e+003,3.897673e+002
1.150238e+003,4.269142e+002
1.151202e+003,4.648802e+002
1.152166e+003,5.026534e+002
1.153130e+003,5.389465e+002
1.154095e+003,5.722378e+002
1.155059e+003,5.999227e+002
1.156023e+003,6.201804e+002
1.156987e+003,6.322882e+002
1.157952e+003,6.344658e+002
1.158916e+003,6.280686e+002
1.159880e+003,6.139607e+002
1.160844e+003,5.887372e+002
1.161809e+003,5.544178e+002
1.162773e+003,5.176464e+002
1.163737e+003,4.783024e+002
1.164701e+003,4.376150e+002
1.165666e+003,3.903275e+002
1.166630e+003,3.488994e+002
1.167594e+003,3.186532e+002
1.168558e+003,2.966348e+002
1.169522e+003,2.787255e+002
1.170487e+003,2.635754e+002
1.171451e+003,2.534489e+002
1.172415e+003,2.512412e+002
1.173379e+003,2.552856e+002
1.174344e+003,2.584114e+002
1.175308e+003,2.611769e+002
1.176272e+003,2.615093e+002
1.177236e+003,2.592043e+002
1.178201e+003,2.543344e+002
1.179165e+003,2.459525e+002
1.180129e+003,2.334213e+002
1.181093e+003,2.195476e+002
1.182057e+003,2.028556e+002
1.183022e+003,1.889023e+002
1.183986e+003,1.792881e+002
1.184950e+003,1.733275e+002
1.185914e+003,1.715542e+002
1.186879e+003,1.731874e+002
1.187843e+003,1.759058e+002
1.188807e+003,1.775952e+002
1.189771e+003,1.784849e+002
1.190736e+003,1.804924e+002
1.191700e+003,1.838293e+002
1.192664e+003,1.848268e+002
1.193628e+003,1.828497e+002
1.194593e+003,1.798698e+002
1.195557e+003,1.770576e+002
1.196521e+003,1.740981e+002
1.197485e+003,1.706216e+002
1.198449e+003,1.673955e+002
1.199414e+003,1.614727e+002
1.200378e+003,1.488673e+002
1.201342e+003,1.357002e+002
1.202306e+003,1.247058e+002
1.203271e+003,1.159973e+002
1.204235e+003,1.093916e+002
1.205199e+003,1.047703e+002
1.206163e+003,1.014661e+002
1.207128e+003,9.834778e+001
1.208092e+003,9.556580e+001
1.209056e+003,9.023096e+001
1.210020e+003,8.241016e+001
1.210984e+003,7.274158e+001
1.211949e+003,5.949658e+001
1.212913e+003,4.531458e+001
1.213877e+003,3.345569e+001
1.214841e+003,2.439246e+001
1.215806e+003,1.842004e+001
1.216770e+003,1.773889e+001
1.217734e+003,1.651990e+001
1.218698e+003,8.503296e+000
1.219663e+003,-1.577759e+000
1.220627e+003,-7.319458e+000
1.221591e+003,-8.002075e+000
1.222555e+003,-7.622437e+000
1.223520e+003,-9.731079e+000
1.224484e+003,-1.359668e+001
1.225448e+003,-1.710547e+001
1.226412e+003,-2.056567e+001
1.227376e+003,-2.317603e+001
1.228341e+003,-2.498438e+001
1.229305e+003,-2.641614e+001
1.230269e+003,-2.772595e+001
1.231233e+003,-2.889087e+001
1.232198e+003,-2.934424e+001
1.233162e+003,-2.856702e+001
1.234126e+003,-2.784778e+001
1.235090e+003,-2.889539e+001
1.236055e+003,-3.068652e+001
1.237019e+003,-3.222717e+001
1.237983e+003,-3.361194e+001
1.238947e+003,-3.470691e+001
1.239911e+003,-3.512341e+001
1.240876e+003,-3.444861e+001
1.241840e+003,-3.207532e+001
1.242804e+003,-2.772803e+001
1.243768e+003,-2.598328e+001
1.244733e+003,-3.121265e+001
1.245697e+003,-3.310278e+001
1.246661e+003,-3.003040e+001
1.247625e+003,-2.543616e+001
1.248590e+003,-2.006897e+001
1.249554e+003,-1.469690e+001
1.250518e+003,-1.186072e+001
1.251482e+003,-1.326904e+001
1.252447e+003,-1.586621e+001
1.253411e+003,-1.551050e+001
1.254375e+003,-1.286877e+001
1.255339e+003,-9.944336e+000
1.256303e+003,-6.549683e+000
1.257268e+003,-2.519287e+000
1.258232e+003,1.943970e+000
1.259196e+003,5.858398e+000
1.260160e+003,7.745728e+000
1.261125e+003,7.455933e+000
1.262089e+003,9.929810e+000
1.263053e+003,1.707043e+001
1.264017e+003,2.405078e+001
1.264982e+003,3.113733e+001
1.265946e+003,3.708691e+001
1.266910e+003,4.068457e+001
1.267874e+003,4.201868e+001
1.268839e+003,4.239429e+001
1.269803e+003,4.274219e+001
1.270767e+003,4.159509e+001
1.271731e+003,3.537439e+001
1.272695e+003,2.459045e+001
1.273660e+003,1.655969e+001
1.274624e+003,1.097351e+001
1.275588e+003,6.526245e+000
1.276552e+003,3.625244e+000
1.277517e+003,2.145142e+000
1.278481e+003,1.350952e+000
1.279445e+003,1.090210e+000
1.280409e+003,-6.225586e-002
1.281374e+003,-3.143677e+000
1.282338e+003,-6.239136e+000
1.283302e+003,-8.712891e+000
1.284266e+003,-1.061658e+001
1.285230e+003,-1.134680e+001
1.286195e+003,-1.150293e+001
1.287159e+003,-1.332397e+001
1.288123e+003,-1.839246e+001
1.289087e+003,-2.461255e+001
1.290052e+003,-2.676672e+001
1.291016e+003,-2.407507e+001
1.291980e+003,-2.162622e+001
1.292944e+003,-1.928101e+001
1.293909e+003,-1.847632e+001
1.294873e+003,-2.014771e+001
1.295837e+003,-2.242969e+001
1.296801e+003,-2.266711e+001
1.297766e+003,-2.069019e+001
1.298730e+003,-1.943469e+001
1.299694e+003,-2.102246e+001
1.300658e+003,-2.386328e+001
1.301622e+003,-2.649573e+001
1.302587e+003,-2.841443e+001
1.303551e+003,-2.897437e+001
1.304515e+003,-2.787317e+001
1.305479e+003,-2.525781e+001
1.306444e+003,-2.123169e+001
1.307408e+003,-1.682776e+001
1.308372e+003,-1.470044e+001
1.309336e+003,-1.543042e+001
1.310301e+003,-1.689014e+001
1.311265e+003,-1.968225e+001
1.312229e+003,-2.153540e+001
1.313193e+003,-2.150281e+001
1.314157e+003,-2.066626e+001
1.315122e+003,-1.964124e+001
1.316086e+003,-1.915637e+001
1.317050e+003,-2.086621e+001
1.318014e+003,-2.582727e+001
1.318979e+003,-3.088000e+001
1.319943e+003,-3.021985e+001
1.320907e+003,-2.425085e+001
1.321871e+003,-1.986755e+001
1.322836e+003,-1.816565e+001
1.323800e+003,-1.817395e+001
1.324764e+003,-2.043103e+001
1.325728e+003,-2.328638e+001
1.326693e+003,-2.396460e+001
1.327657e+003,-2.270532e+001
1.328621e+003,-2.208252e+001
1.329585e+003,-2.190308e+001
1.330549e+003,-2.016699e+001
1.331514e+003,-1.643311e+001
1.332478e+003,-1.318384e+001
1.333442e+003,-1.258484e+001
1.334406e+003,-1.395581e+001
1.335371e+003,-1.500061e+001
1.336335e+003,-1.436682e+001
1.337299e+003,-1.313098e+001
1.338263e+003,-1.372412e+001
1.339228e+003,-1.661035e+001
1.340192e+003,-1.660730e+001
1.341156e+003,-9.624512e+000
1.342120e+003,-6.002319e+000
1.343084e+003,-1.116150e+001
1.344049e+003,-1.782593e+001
1.345013e+003,-1.933105e+001
1.345977e+003,-1.619604e+001
1.346941e+003,-1.227832e+001
1.347906e+003,-8.903564e+000
1.348870e+003,-6.710449e+000
1.349834e+003,-7.085693e+000
1.350798e+003,-8.994873e+000
1.351763e+003,-9.914917e+000
1.352727e+003,-9.701172e+000
1.353691e+003,-8.351563e+000
1.354655e+003,-5.321045e+000
1.355620e+003,-2.744141e+000
1.356584e+003,-3.829590e+000
1.357548e+003,-7.773804e+000
1.358512e+003,-8.876709e+000
1.359476e+003,-6.046143e+000
1.360441e+003,-5.082764e+000
1.361405e+003,-9.113281e+000
1.362369e+003,-1.279175e+001
1.363333e+003,-1.262817e+001
1.364298e+003,-1.082263e+001
1.365262e+003,-1.109241e+001
1.366226e+003,-1.393970e+001
1.367190e+003,-1.626282e+001
1.368155e+003,-1.525659e+001
1.369119e+003,-1.229077e+001
1.370083e+003,-1.169788e+001
1.371047e+003,-1.428564e+001
1.372011e+003,-1.409265e+001
1.372976e+003,-9.883057e+000
1.373940e+003,-6.108276e+000
1.374904e+003,-3.935059e+000
1.375868e+003,-2.801636e+000
1.376833e+003,-2.651245e+000
1.377797e+003,-3.382690e+000
1.378761e+003,-3.560059e+000
1.379725e+003,-1.958862e+000
1.380690e+003,-1.033813e+000
1.381654e+003,-5.608521e+000
1.382618e+003,-1.098071e+001
1.383582e+003,-9.706299e+000
1.384547e+003,-2.249634e+000
1.385511e+003,5.000366e+000
1.386475e+003,8.822388e+000
1.387439e+003,9.904175e+000
1.388403e+003,8.482300e+000
1.389368e+003,4.504272e+000
1.390332e+003,3.392456e+000
1.391296e+003,8.204468e+000
1.392260e+003,1.084924e+001
1.393225e+003,7.719482e+000
1.394189e+003,3.803589e+000
1.395153e+003,9.112549e-001
1.396117e+003,-4.001465e-001
1.397082e+003,1.690186e+000
1.398046e+003,6.632813e+000
1.399010e+003,9.181885e+000
1.399974e+003,3.931641e+000
1.400938e+003,-6.283691e+000
1.401903e+003,-1.015796e+001
1.402867e+003,-3.920410e+000
1.403831e+003,7.419434e-001
1.404795e+003,1.722046e+000
1.405760e+003,2.402100e+000
1.406724e+003,3.257202e+000
1.407688e+003,2.675537e+000
1.408652e+003,-1.057373e+000
1.409617e+003,-6.435791e+000
1.410581e+003,-8.881836e+000
1.411545e+003,-6.384033e+000
1.412509e+003,-1.807373e+000
1.413474e+003,3.106201e+000
1.414438e+003,6.506470e+000
1.415402e+003,5.923462e+000
1.416366e+003,2.562500e+000
1.417330e+003,3.283691e-001
1.418295e+003,6.932373e-001
1.419259e+003,2.893311e+000
1.420223e+003,6.637329e+000
1.421187e+003,1.100659e+001
1.422152e+003,1.246692e+001
1.423116e+003,1.060803e+001
1.424080e+003,9.498413e+000
1.425044e+003,9.889526e+000
1.426009e+003,1.028540e+001
1.426973e+003,9.867920e+000
1.427937e+003,9.182739e+000
1.428901e+003,8.586914e+000
1.429865e+003,8.876831e+000
1.430830e+003,1.182288e+001
1.431794e+003,1.819385e+001
1.432758e+003,2.522229e+001
1.433722e+003,2.810718e+001
1.434687e+003,2.739014e+001
1.435651e+003,2.879285e+001
1.436615e+003,3.215637e+001
1.437579e+003,3.327380e+001
1.438544e+003,2.990381e+001
1.439508e+003,2.671497e+001
1.440472e+003,2.864404e+001
1.441436e+003,3.325073e+001
1.442401e+003,3.386145e+001
1.443365e+003,2.928223e+001
1.444329e+003,2.732690e+001
1.445293e+003,3.509436e+001
1.446257e+003,4.587122e+001
1.447222e+003,4.513281e+001
1.448186e+003,3.513049e+001
1.449150e+003,2.834839e+001
1.450114e+003,2.573022e+001
1.451079e+003,2.571460e+001
1.452043e+003,3.071277e+001
1.453007e+003,3.656921e+001
1.453971e+003,3.601331e+001
1.454936e+003,2.968738e+001
1.455900e+003,2.508118e+001
1.456864e+003,2.412561e+001
1.457828e+003,2.496277e+001
1.458792e+003,2.822595e+001
1.459757e+003,3.042029e+001
1.460721e+003,2.708862e+001
1.461685e+003,2.094788e+001
1.462649e+003,1.793994e+001
1.463614e+003,1.976331e+001
1.464578e+003,2.352100e+001
1.465542e+003,2.679321e+001
1.466506e+003,2.893030e+001
1.467471e+003,2.826270e+001
1.468435e+003,2.453979e+001
1.469399e+003,2.321252e+001
1.470363e+003,2.417004e+001
1.471328e+003,2.663257e+001
1.472292e+003,3.172644e+001
1.473256e+003,3.566248e+001
1.474220e+003,3.633484e+001
1.475184e+003,3.509521e+001
1.476149e+003,3.371558e+001
1.477113e+003,3.261389e+001
1.478077e+003,3.155151e+001
1.479041e+003,3.079016e+001
1.480006e+003,3.130103e+001
1.480970e+003,3.513843e+001
1.481934e+003,4.302576e+001
1.482898e+003,4.799695e+001
1.483863e+003,4.772852e+001
1.484827e+003,4.781372e+001
1.485791e+003,5.107178e+001
1.486755e+003,5.524182e+001
1.487719e+003,5.759680e+001
1.488684e+003,5.836816e+001
1.489648e+003,5.922485e+001
1.490612e+003,6.109485e+001
1.491576e+003,6.489905e+001
1.492541e+003,7.137073e+001
1.493505e+003,7.941125e+001
1.494469e+003,8.742810e+001
1.495433e+003,9.455164e+001
1.496398e+003,9.897046e+001
1.497362e+003,9.986365e+001
1.498326e+003,1.036752e+002
1.499290e+003,1.144545e+002
1.500255e+003,1.292668e+002
1.501219e+003,1.447295e+002
1.502183e+003,1.603574e+002
1.503147e+003,1.745962e+002
1.504111e+003,1.861948e+002
1.505076e+003,2.010004e+002
1.506040e+003,2.223160e+002
1.507004e+003,2.491371e+002
1.507968e+003,2.821345e+002
1.508933e+003,3.187137e+002
1.509897e+003,3.524028e+002
1.510861e+003,3.835023e+002
1.511825e+003,4.206130e+002
1.512790e+003,4.698280e+002
1.513754e+003,5.261621e+002
1.514718e+003,5.813445e+002
1.515682e+003,6.346641e+002
1.516646e+003,6.904590e+002
1.517611e+003,7.528615e+002
1.518575e+003,8.104806e+002
1.519539e+003,8.649421e+002
1.520503e+003,9.097771e+002
1.521468e+003,9.404191e+002
1.522432e+003,9.590610e+002
1.523396e+003,9.688690e+002
1.524360e+003,9.703845e+002
1.525325e+003,9.627296e+002
1.526289e+003,9.455344e+002
1.527253e+003,9.200017e+002
1.528217e+003,8.877699e+002
1.529182e+003,8.494553e+002
1.530146e+003,8.043505e+002
1.531110e+003,7.507220e+002
1.532074e+003,6.915768e+002
1.533039e+003,6.229392e+002
1.534003e+003,5.513799e+002
1.534967e+003,4.779525e+002
1.535931e+003,4.073850e+002
1.536896e+003,3.425698e+002
1.537860e+003,2.853282e+002
1.538824e+003,2.374824e+002
1.539788e+003,1.994988e+002
1.540752e+003,1.695319e+002
1.541717e+003,1.456270e+002
1.542681e+003,1.281606e+002
1.543645e+003,1.167406e+002
1.544609e+003,1.152245e+002
1.545573e+003,1.121029e+002
1.546538e+003,1.040837e+002
1.547502e+003,9.680725e+001
1.548466e+003,9.359473e+001
1.549430e+003,9.282886e+001
1.550395e+003,9.288940e+001
1.551359e+003,9.284546e+001
1.552323e+003,9.230078e+001
1.553287e+003,9.107849e+001
1.554252e+003,8.743335e+001
1.555216e+003,7.922314e+001
1.556180e+003,6.886694e+001
1.557144e+003,6.183557e+001
1.558109e+003,5.859290e+001
1.559073e+003,5.817261e+001
1.560037e+003,6.237830e+001
1.561001e+003,6.323755e+001
1.561966e+003,5.604688e+001
1.562930e+003,4.828723e+001
1.563894e+003,4.634802e+001
1.564858e+003,4.858228e+001
1.565823e+003,5.097510e+001
1.566787e+003,5.260522e+001
1.567751e+003,5.459387e+001
1.568715e+003,5.824438e+001
1.569679e+003,6.132800e+001
1.570644e+003,5.981921e+001
1.571608e+003,5.504871e+001
1.572572e+003,5.207471e+001
1.573536e+003,5.149011e+001
1.574500e+003,5.274609e+001
1.575465e+003,5.676013e+001
1.576429e+003,6.029175e+001
1.577393e+003,5.902148e+001
1.578357e+003,5.570239e+001
1.579322e+003,5.674512e+001
1.580286e+003,6.245911e+001
1.581250e+003,6.826086e+001
1.582214e+003,7.329968e+001
1.583179e+003,7.603772e+001
1.584143e+003,7.401587e+001
1.585107e+003,6.943323e+001
1.586071e+003,6.498254e+001
1.587036e+003,6.203467e+001
1.588000e+003,6.321643e+001
1.588964e+003,6.884521e+001
1.589928e+003,7.419006e+001
1.590893e+003,7.619519e+001
1.591857e+003,7.635022e+001
1.592821e+003,7.630518e+001
1.593785e+003,7.641541e+001
1.594750e+003,7.812219e+001
1.595714e+003,8.144470e+001
1.596678e+003,8.538904e+001
1.597642e+003,9.070630e+001
1.598606e+003,9.498999e+001
1.599571e+003,9.527246e+001
1.600535e+003,9.452429e+001
1.601499e+003,9.716724e+001
1.602463e+003,1.024329e+002
1.603427e+003,1.054277e+002
1.604392e+003,1.040463e+002
1.605356e+003,1.014120e+002
1.606320e+003,1.001885e+002
1.607284e+003,1.003837e+002
1.608249e+003,1.030122e+002
1.609213e+003,1.082709e+002
1.610177e+003,1.089911e+002
1.611141e+003,1.024570e+002
1.612106e+003,9.522058e+001
1.613070e+003,8.839807e+001
1.614034e+003,8.383142e+001
1.614998e+003,8.445422e+001
1.615963e+003,8.774548e+001
1.616927e+003,8.916260e+001
1.617891e+003,8.802319e+001
1.618855e+003,8.679370e+001
1.619820e+003,8.669812e+001
1.620784e+003,8.627905e+001
1.621748e+003,8.401648e+001
1.622712e+003,8.136414e+001
1.623677e+003,8.221765e+001
1.624641e+003,8.754199e+001
1.625605e+003,9.124500e+001
1.626569e+003,8.952869e+001
1.627533e+003,8.673926e+001
1.628498e+003,8.561316e+001
1.629462e+003,8.537463e+001
1.630426e+003,8.525562e+001
1.631390e+003,8.517163e+001
1.632354e+003,8.555212e+001
1.633319e+003,8.628516e+001
1.634283e+003,8.598352e+001
1.635247e+003,8.325232e+001
1.636211e+003,7.961987e+001
1.637176e+003,7.826794e+001
1.638140e+003,7.934900e+001
1.639104e+003,8.068994e+001
1.640068e+003,8.213428e+001
1.641033e+003,8.298889e+001
1.641997e+003,8.354480e+001
1.642961e+003,8.347656e+001
1.643925e+003,8.078589e+001
1.644890e+003,7.876440e+001
1.645854e+003,8.159912e+001
1.646818e+003,8.755188e+001
1.647782e+003,9.199268e+001
1.648747e+003,9.339246e+001
1.649711e+003,9.318579e+001
1.650675e+003,9.291260e+001
1.651639e+003,9.241162e+001
1.652604e+003,8.955261e+001
1.653568e+003,8.417920e+001
1.654532e+003,8.336670e+001
1.655496e+003,8.975842e+001
1.656460e+003,9.245007e+001
1.657425e+003,8.546021e+001
1.658389e+003,7.852710e+001
1.659353e+003,7.767395e+001
1.660317e+003,7.886328e+001
1.661281e+003,7.799988e+001
1.662246e+003,7.497192e+001
1.663210e+003,7.074609e+001
1.664174e+003,6.602393e+001
1.665138e+003,6.354749e+001
1.666103e+003,6.637830e+001
1.667067e+003,7.080750e+001
1.668031e+003,6.886963e+001
1.668995e+003,6.130579e+001
1.669960e+003,5.687524e+001
1.670924e+003,5.709436e+001
1.671888e+003,5.739478e+001
1.672852e+003,5.553625e+001
1.673817e+003,5.394629e+001
1.674781e+003,5.526477e+001
1.675745e+003,5.673352e+001
1.676709e+003,5.390686e+001
1.677674e+003,4.850708e+001
1.678638e+003,4.706030e+001
1.679602e+003,5.156372e+001
1.680566e+003,5.610754e+001
1.681531e+003,5.659790e+001
1.682495e+003,5.466260e+001
1.683459e+003,5.185059e+001
1.684423e+003,4.802393e+001
1.685387e+003,4.447290e+001
1.686352e+003,4.137561e+001
1.687316e+003,3.999500e+001
1.688280e+003,4.142834e+001
1.689244e+003,4.330408e+001
1.690208e+003,4.470386e+001
1.691173e+003,4.466736e+001
1.692137e+003,4.094812e+001
1.693101e+003,3.553259e+001
1.694065e+003,3.374573e+001
1.695030e+003,3.645667e+001
1.695994e+003,3.868103e+001
1.696958e+003,3.721704e+001
1.697922e+003,3.456799e+001
1.698887e+003,3.432910e+001
1.699851e+003,3.555017e+001
1.700815e+003,3.419495e+001
1.701779e+003,2.972681e+001
1.702744e+003,2.654065e+001
1.703708e+003,2.675757e+001
1.704672e+003,2.853503e+001
1.705636e+003,3.061011e+001
1.706601e+003,3.165125e+001
1.707565e+003,3.007813e+001
1.708529e+003,2.721033e+001
1.709493e+003,2.603430e+001
1.710458e+003,2.701794e+001
1.711422e+003,2.747278e+001
1.712386e+003,2.652637e+001
1.713350e+003,2.539807e+001
1.714314e+003,2.412964e+001
1.715279e+003,2.268774e+001
1.716243e+003,2.175842e+001
1.717207e+003,2.129102e+001
1.718171e+003,2.042920e+001
1.719135e+003,1.907324e+001
1.720100e+003,1.794519e+001
1.721064e+003,1.726013e+001
1.722028e+003,1.689551e+001
1.722992e+003,1.765771e+001
1.723957e+003,1.967566e+001
1.724921e+003,1.972205e+001
1.725885e+003,1.631458e+001
1.726849e+003,1.361902e+001
1.727814e+003,1.485425e+001
1.728778e+003,1.573291e+001
1.729742e+003,1.299915e+001
1.730706e+003,9.907349e+000
1.731671e+003,9.351196e+000
1.732635e+003,9.889893e+000
1.733599e+003,9.994019e+000
1.734563e+003,9.575317e+000
1.735528e+003,7.253418e+000
1.736492e+003,2.033813e+000
1.737456e+003,-2.912231e+000
1.738420e+003,-3.748413e+000
1.739385e+003,-1.852661e+000
1.740349e+003,-3.780518e-001
1.741313e+003,1.263306e+000
1.742277e+003,1.803223e+000
1.743241e+003,1.181641e-001
1.744206e+003,1.562500e-001
1.745170e+003,3.112915e+000
1.746134e+003,6.437500e+000
1.747098e+003,1.008887e+001
1.748063e+003,1.224426e+001
1.749027e+003,9.772705e+000
1.749991e+003,4.437256e+000
1.750955e+003,8.459473e-001
1.751919e+003,4.362793e-001
1.752884e+003,1.238525e+000
1.753848e+003,1.644653e+000
1.754812e+003,1.542358e+000
1.755776e+003,9.333496e-001
1.756741e+003,4.152832e-001
1.757705e+003,2.464355e+000
1.758669e+003,8.435303e+000
1.759633e+003,1.147119e+001
1.760598e+003,8.850586e+000
1.761562e+003,5.126953e+000
1.762526e+003,8.961182e-001
1.763490e+003,-2.017456e+000
1.764455e+003,-1.744995e+000
1.765419e+003,5.216064e-001
1.766383e+003,2.745361e+000
1.767347e+003,4.246460e+000
1.768312e+003,5.421631e+000
1.769276e+003,6.306030e+000
1.770240e+003,6.027588e+000
1.771204e+003,4.069336e+000
1.772168e+003,1.768677e+000
1.773133e+003,1.246582e+000
1.774097e+003,2.185059e+000
1.775061e+003,1.162109e+000
1.776025e+003,-3.240479e+000
1.776990e+003,-6.162720e+000
1.777954e+003,-5.197632e+000
1.778918e+003,-2.009766e+000
1.779882e+003,4.213257e+000
1.780846e+003,9.196167e+000
1.781811e+003,6.007446e+000
1.782775e+003,-2.342285e+000
1.783739e+003,-6.108521e+000
1.784703e+003,-3.433716e+000
1.785668e+003,2.819824e-001
1.786632e+003,2.772827e+000
1.787596e+003,4.201904e+000
1.788560e+003,5.381104e+000
1.789525e+003,6.693604e+000
1.790489e+003,7.894653e+000
1.791453e+003,8.621216e+000
1.792417e+003,8.424683e+000
1.793382e+003,7.420776e+000
1.794346e+003,7.027588e+000
1.795310e+003,7.938599e+000
1.796274e+003,9.521729e+000
1.797239e+003,1.193567e+001
1.798203e+003,1.453015e+001
1.799167e+003,1.238782e+001
1.800131e+003,3.013550e+000
1.801095e+003,-3.120239e+000
1.802060e+003,-3.446167e+000
1.803024e+003,-2.568726e+000
1.803988e+003,-7.208252e-001
1.804952e+003,1.125000e+000
1.805917e+003,2.873901e+000
1.806881e+003,4.055786e+000
1.807845e+003,4.348999e+000
1.808809e+003,4.113525e+000
1.809773e+003,3.771729e+000
1.810738e+003,3.468384e+000
1.811702e+003,3.141602e+000
1.812666e+003,2.711914e+000
1.813630e+003,2.660034e+000
1.814595e+003,3.759033e+000
1.815559e+003,5.462769e+000
1.816523e+003,6.245728e+000
1.817487e+003,6.197388e+000
1.818452e+003,5.652954e+000
1.819416e+003,4.405518e+000
1.820380e+003,5.210938e+000
1.821344e+003,1.077185e+001
1.822309e+003,1.451184e+001
1.823273e+003,1.126672e+001
1.824237e+003,6.333984e+000
1.825201e+003,4.228271e+000
1.826166e+003,4.503418e+000
1.827130e+003,6.239380e+000
1.828094e+003,8.934326e+000
1.829058e+003,9.836792e+000
1.830022e+003,7.450928e+000
1.830987e+003,4.358521e+000
1.831951e+003,1.792114e+000
1.832915e+003,4.866943e-001
1.833879e+003,2.383423e+000
1.834844e+003,6.269165e+000
1.835808e+003,8.525757e+000
1.836772e+003,8.705566e+000
1.837736e+003,8.276855e+000
1.838700e+003,7.585449e+000
1.839665e+003,6.158447e+000
1.840629e+003,3.721558e+000
1.841593e+003,8.687744e-001
1.842557e+003,-1.881226e+000
1.843522e+003,-4.526978e+000
1.844486e+003,-4.466553e+000
1.845450e+003,1.030884e+000
1.846414e+003,5.525879e+000
1.847379e+003,7.476074e+000
1.848343e+003,8.518677e+000
1.849307e+003,1.004834e+001
1.850271e+003,1.057727e+001
1.851236e+003,8.537354e+000
1.852200e+003,5.714722e+000
1.853164e+003,3.653809e+000
1.854128e+003,2.190674e+000
1.855093e+003,1.327759e+000
1.856057e+003,1.436157e+000
1.857021e+003,1.735474e+000
1.857985e+003,1.188965e+000
1.858949e+003,2.998047e-001
1.859914e+003,-5.867920e-001
1.860878e+003,-7.735596e-001
1.861842e+003,4.054321e+000
1.862806e+003,1.389465e+001
1.863771e+003,1.892615e+001
1.864735e+003,1.631055e+001
1.865699e+003,1.333643e+001
1.866663e+003,1.393079e+001
1.867627e+003,1.471411e+001
1.868592e+003,1.142834e+001
1.869556e+003,6.004883e+000
1.870520e+003,2.830688e+000
1.871484e+003,1.730957e+000
1.872449e+003,2.335815e+000
1.873413e+003,6.843384e+000
1.874377e+003,1.128491e+001
1.875341e+003,1.206470e+001
1.876306e+003,1.272815e+001
1.877270e+003,1.632959e+001
1.878234e+003,1.926611e+001
1.879198e+003,1.717065e+001
1.880163e+003,1.245178e+001
1.881127e+003,9.559570e+000
1.882091e+003,9.223633e+000
1.883055e+003,1.031653e+001
1.884020e+003,1.207886e+001
1.884984e+003,1.330566e+001
1.885948e+003,1.289136e+001
1.886912e+003,1.201184e+001
1.887876e+003,1.334595e+001
1.888841e+003,1.665100e+001
1.889805e+003,1.781055e+001
1.890769e+003,1.628418e+001
1.891733e+003,1.567175e+001
1.892698e+003,1.662891e+001
1.893662e+003,1.645227e+001
1.894626e+003,1.277979e+001
1.895590e+003,1.008594e+001
1.896554e+003,1.245544e+001
1.897519e+003,1.734875e+001
1.898483e+003,2.244287e+001
1.899447e+003,2.643774e+001
1.900411e+003,2.680225e+001
1.901376e+003,2.310669e+001
1.902340e+003,1.999939e+001
1.903304e+003,1.897021e+001
1.904268e+003,1.909045e+001
1.905233e+003,2.152002e+001
1.906197e+003,2.366077e+001
1.907161e+003,2.177551e+001
1.908125e+003,1.840747e+001
1.909090e+003,1.752466e+001
1.910054e+003,1.919397e+001
1.911018e+003,2.341077e+001
1.911982e+003,2.955505e+001
1.912947e+003,3.164246e+001
1.913911e+003,2.509692e+001
1.914875e+003,1.666187e+001
1.915839e+003,1.686890e+001
1.916803e+003,2.347375e+001
1.917768e+003,2.752576e+001
1.918732e+003,2.916138e+001
1.919696e+003,3.016479e+001
1.920660e+003,3.087317e+001
1.921625e+003,3.101465e+001
1.922589e+003,2.888904e+001
1.923553e+003,2.798828e+001
1.924517e+003,3.144348e+001
1.925481e+003,3.594958e+001
1.926446e+003,3.935706e+001
1.927410e+003,4.149719e+001
1.928374e+003,4.180383e+001
1.929338e+003,4.000000e+001
1.930303e+003,3.710571e+001
1.931267e+003,3.348523e+001
1.932231e+003,3.143408e+001
1.933195e+003,3.188843e+001
1.934160e+003,3.302686e+001
1.935124e+003,3.408337e+001
1.936088e+003,3.428308e+001
1.937052e+003,3.305151e+001
1.938017e+003,3.113342e+001
1.938981e+003,2.903748e+001
1.939945e+003,2.720300e+001
1.940909e+003,2.741858e+001
1.941874e+003,3.001074e+001
1.942838e+003,3.132263e+001
1.943802e+003,2.832349e+001
1.944766e+003,2.378479e+001
1.945730e+003,2.179846e+001
1.946695e+003,2.191370e+001
1.947659e+003,2.428442e+001
1.948623e+003,2.906372e+001
1.949587e+003,3.291357e+001
1.950552e+003,3.622546e+001
1.951516e+003,3.652722e+001
1.952480e+003,3.091016e+001
1.953444e+003,2.653320e+001
1.954408e+003,2.926941e+001
1.955373e+003,3.437317e+001
1.956337e+003,3.638403e+001
1.957301e+003,3.633362e+001
1.958265e+003,3.536035e+001
1.959230e+003,3.336523e+001
1.960194e+003,3.225293e+001
1.961158e+003,3.060852e+001
1.962122e+003,3.041724e+001
1.963087e+003,3.422791e+001
1.964051e+003,3.746790e+001
1.965015e+003,3.749854e+001
1.965979e+003,3.682739e+001
1.966944e+003,3.756616e+001
1.967908e+003,3.876111e+001
1.968872e+003,3.880920e+001
1.969836e+003,3.767102e+001
1.970801e+003,3.593677e+001
1.971765e+003,3.403918e+001
1.972729e+003,3.334106e+001
1.973693e+003,3.523657e+001
1.974657e+003,3.799353e+001
1.975622e+003,3.850049e+001
1.976586e+003,3.760046e+001
1.977550e+003,3.848999e+001
1.978514e+003,4.105664e+001
1.979479e+003,4.300146e+001
1.980443e+003,4.388782e+001
1.981407e+003,4.500256e+001
1.982371e+003,4.710327e+001
1.983335e+003,4.902551e+001
1.984300e+003,4.970740e+001
1.985264e+003,4.825928e+001
1.986228e+003,4.302429e+001
1.987192e+003,3.561646e+001
1.988157e+003,3.503467e+001
1.989121e+003,4.385815e+001
1.990085e+003,4.718188e+001
1.991049e+003,4.108447e+001
1.992014e+003,3.814429e+001
1.992978e+003,4.223022e+001
1.993942e+003,4.572131e+001
1.994906e+003,4.463464e+001
1.995871e+003,4.350928e+001
1.996835e+003,4.632117e+001
1.997799e+003,5.120508e+001
1.998763e+003,5.578088e+001
1.999728e+003,5.911877e+001
