5.003444e+002,3.847348e+001
5.013087e+002,3.733502e+001
5.022729e+002,3.696524e+001
5.032371e+002,3.712582e+001
5.042014e+002,3.634398e+001
5.051656e+002,3.482872e+001
5.061298e+002,3.364850e+001
5.070941e+002,3.385956e+001
5.080583e+002,3.590210e+001
5.090225e+002,3.639403e+001
5.099868e+002,3.438185e+001
5.109510e+002,3.234061e+001
5.119152e+002,3.164514e+001
5.128795e+002,3.244760e+001
5.138437e+002,3.313631e+001
5.148079e+002,3.300072e+001
5.157722e+002,3.283360e+001
5.167364e+002,3.314908e+001
5.177006e+002,3.382426e+001
5.186649e+002,3.408572e+001
5.196291e+002,3.255771e+001
5.205933e+002,3.056854e+001
5.215576e+002,2.953824e+001
5.225218e+002,2.949632e+001
5.234860e+002,2.984720e+001
5.244503e+002,2.962317e+001
5.254145e+002,2.873839e+001
5.263787e+002,2.797025e+001
5.273430e+002,2.691138e+001
5.283072e+002,2.622647e+001
5.292714e+002,2.710336e+001
5.302357e+002,3.089885e+001
5.311999e+002,3.287170e+001
5.321641e+002,3.214897e+001
5.331284e+002,3.029634e+001
5.340926e+002,2.806558e+001
5.350568e+002,2.559038e+001
5.360211e+002,2.378430e+001
5.369853e+002,2.451129e+001
5.379495e+002,2.583646e+001
5.389138e+002,2.591870e+001
5.398780e+002,2.414204e+001
5.408422e+002,2.147639e+001
5.418065e+002,2.076924e+001
5.427707e+002,2.172926e+001
5.437349e+002,2.251987e+001
5.446992e+002,2.273892e+001
5.456634e+002,2.240468e+001
5.466276e+002,2.158441e+001
5.475919e+002,1.886940e+001
5.485561e+002,1.763966e+001
5.495203e+002,1.927193e+001
5.504846e+002,2.195581e+001
5.514488e+002,2.285512e+001
5.524130e+002,1.992468e+001
5.533773e+002,1.779030e+001
5.543415e+002,2.000165e+001
5.553057e+002,2.348102e+001
5.562700e+002,2.477522e+001
5.572342e+002,2.178159e+001
5.581984e+002,1.673253e+001
5.591627e+002,1.489005e+001
5.601269e+002,1.534198e+001
5.610911e+002,1.675592e+001
5.620554e+002,1.854485e+001
5.630196e+002,2.048172e+001
5.639838e+002,2.074579e+001
5.649481e+002,1.793591e+001
5.659123e+002,1.552495e+001
5.668765e+002,1.444041e+001
5.678408e+002,1.429257e+001
5.688050e+002,1.376102e+001
5.697692e+002,1.166109e+001
5.707335e+002,1.014304e+001
5.716977e+002,1.007756e+001
5.726619e+002,1.092911e+001
5.736262e+002,1.218170e+001
5.745904e+002,1.368196e+001
5.755546e+002,1.467795e+001
5.765189e+002,1.345682e+001
5.774831e+002,1.099869e+001
5.784473e+002,9.134888e+000
5.794116e+002,9.149918e+000
5.803758e+002,1.092534e+001
5.813400e+002,1.229010e+001
5.823043e+002,1.319173e+001
5.832685e+002,1.368517e+001
5.842327e+002,1.393872e+001
5.851970e+002,1.396049e+001
5.861612e+002,1.338672e+001
5.871254e+002,1.056863e+001
5.880897e+002,8.824936e+000
5.890539e+002,9.498749e+000
5.900181e+002,1.148669e+001
5.909824e+002,1.302290e+001
5.919466e+002,1.311351e+001
5.929108e+002,1.216306e+001
5.938751e+002,1.036803e+001
5.948393e+002,8.236801e+000
5.958035e+002,6.502167e+000
5.967678e+002,5.710068e+000
5.977320e+002,5.851501e+000
5.986962e+002,7.035263e+000
5.996605e+002,9.261444e+000
6.006247e+002,1.083003e+001
6.015889e+002,1.065120e+001
6.025532e+002,8.881699e+000
6.035174e+002,7.738632e+000
6.044816e+002,7.840302e+000
6.054459e+002,8.006638e+000
6.064101e+002,8.026108e+000
6.073743e+002,8.000885e+000
6.083386e+002,8.234650e+000
6.093028e+002,9.126678e+000
6.102670e+002,9.840530e+000
6.112313e+002,9.641327e+000
6.121955e+002,8.931320e+000
6.131597e+002,8.072647e+000
6.141240e+002,7.336319e+000
6.150882e+002,6.893600e+000
6.160524e+002,8.076065e+000
6.170167e+002,1.061885e+001
6.179809e+002,1.249049e+001
6.189451e+002,1.262238e+001
6.199094e+002,1.117957e+001
6.208736e+002,9.775681e+000
6.218378e+002,8.357498e+000
6.228021e+002,7.247665e+000
6.237663e+002,6.434662e+000
6.247305e+002,5.985733e+000
6.256948e+002,5.984512e+000
6.266590e+002,6.455170e+000
6.276232e+002,7.263992e+000
6.285875e+002,9.187103e+000
6.295517e+002,1.101691e+001
6.305159e+002,1.112509e+001
6.314802e+002,8.704056e+000
6.324444e+002,4.984970e+000
6.334086e+002,3.589157e+000
6.343729e+002,3.870926e+000
6.353371e+002,4.185883e+000
6.363013e+002,3.928024e+000
6.372656e+002,3.282440e+000
6.382298e+002,2.993500e+000
6.391940e+002,3.636459e+000
6.401583e+002,3.807785e+000
6.411225e+002,3.335052e+000
6.420867e+002,2.642593e+000
6.430510e+002,2.080338e+000
6.440152e+002,1.568146e+000
6.449794e+002,1.492798e+000
6.459437e+002,2.599228e+000
6.469079e+002,3.764557e+000
6.478721e+002,4.054504e+000
6.488364e+002,3.211319e+000
6.498006e+002,1.863297e+000
6.507648e+002,8.357391e-001
6.517291e+002,1.596375e-001
6.526933e+002,1.606445e-001
6.536575e+002,9.349060e-001
6.546218e+002,2.029114e+000
6.555860e+002,2.556366e+000
6.565502e+002,2.022873e+000
6.575145e+002,1.958755e+000
6.584787e+002,2.790756e+000
6.594429e+002,3.701126e+000
6.604072e+002,3.905960e+000
6.613714e+002,3.204834e+000
6.623356e+002,2.843903e+000
6.632999e+002,3.620789e+000
6.642641e+002,4.594223e+000
6.652283e+002,5.617828e+000
6.661926e+002,6.508331e+000
6.671568e+002,6.906570e+000
6.681210e+002,6.057678e+000
6.690853e+002,4.569336e+000
6.700495e+002,4.217834e+000
6.710137e+002,4.986786e+000
6.719780e+002,6.081879e+000
6.729422e+002,6.676163e+000
6.739064e+002,6.677963e+000
6.748707e+002,6.435577e+000
6.758349e+002,6.083725e+000
6.767991e+002,5.403366e+000
6.777634e+002,4.067688e+000
6.787276e+002,2.283859e+000
6.796918e+002,1.102844e+000
6.806561e+002,1.262924e+000
6.816203e+002,1.614151e+000
6.825845e+002,1.531158e+000
6.835488e+002,1.364471e+000
6.845130e+002,1.948425e+000
6.854772e+002,4.052536e+000
6.864415e+002,6.585846e+000
6.874057e+002,6.860779e+000
6.883699e+002,5.438263e+000
6.893342e+002,3.667313e+000
6.902984e+002,2.254333e+000
6.912626e+002,1.278229e+000
6.922269e+002,1.095795e+000
6.931911e+002,2.580597e+000
6.941553e+002,3.925659e+000
6.951196e+002,4.976974e+000
6.960838e+002,5.687607e+000
6.970480e+002,6.056778e+000
6.980123e+002,6.127853e+000
6.989765e+002,5.790558e+000
6.999407e+002,5.130508e+000
7.009050e+002,4.079117e+000
7.018692e+002,2.042725e+000
7.028334e+002,-9.017029e-001
7.037977e+002,-3.344498e+000
7.047619e+002,-2.267075e+000
7.057261e+002,8.672791e-001
7.066904e+002,2.948318e+000
7.076546e+002,3.472733e+000
7.086188e+002,3.215164e+000
7.095831e+002,3.372406e+000
7.105473e+002,4.087234e+000
7.115115e+002,4.651901e+000
7.124758e+002,5.323456e+000
7.134400e+002,5.597122e+000
7.144042e+002,4.953888e+000
7.153685e+002,3.455688e+000
7.163327e+002,2.304474e+000
7.172969e+002,2.416122e+000
7.182612e+002,2.693558e+000
7.192254e+002,2.646637e+000
7.201896e+002,2.373322e+000
7.211539e+002,2.222229e+000
7.221181e+002,2.510956e+000
7.230823e+002,3.056625e+000
7.240466e+002,3.327499e+000
7.250108e+002,3.453659e+000
7.259750e+002,3.723129e+000
7.269393e+002,4.288849e+000
7.279035e+002,4.978729e+000
7.288677e+002,5.059067e+000
7.298320e+002,4.117630e+000
7.307962e+002,3.377701e+000
7.317604e+002,2.838898e+000
7.327247e+002,2.592438e+000
7.336889e+002,2.728836e+000
7.346531e+002,3.214081e+000
7.356174e+002,3.798309e+000
7.365816e+002,5.103943e+000
7.375458e+002,6.191589e+000
7.385101e+002,6.166519e+000
7.394743e+002,4.899124e+000
7.404385e+002,3.034271e+000
7.414028e+002,1.318100e+000
7.423670e+002,-2.633820e-001
7.433312e+002,-1.272476e+000
7.442955e+002,-1.563431e+000
7.452597e+002,-1.138260e+000
7.462239e+002,2.083282e-001
7.471882e+002,2.989319e+000
7.481524e+002,4.157532e+000
7.491166e+002,2.158310e+000
7.500809e+002,3.933563e-001
7.510451e+002,3.571930e-001
7.520093e+002,1.683716e+000
7.529736e+002,2.790497e+000
7.539378e+002,3.032974e+000
7.549020e+002,2.916962e+000
7.558663e+002,2.573303e+000
7.568306e+002,2.190918e+000
7.577948e+002,2.001282e+000
7.587590e+002,2.110565e+000
7.597233e+002,2.364334e+000
7.606875e+002,2.577240e+000
7.616517e+002,2.789658e+000
7.626160e+002,2.466385e+000
7.635802e+002,1.125259e+000
7.645444e+002,-4.419250e-001
7.655087e+002,-4.227448e-001
7.664729e+002,2.371445e+000
7.674371e+002,4.095047e+000
7.684014e+002,3.716400e+000
7.693656e+002,3.101913e+000
7.703298e+002,3.818359e+000
7.712941e+002,5.869873e+000
7.722583e+002,7.208603e+000
7.732225e+002,5.440735e+000
7.741868e+002,3.173050e+000
7.751510e+002,2.355530e+000
7.761152e+002,2.841965e+000
7.770795e+002,3.888443e+000
7.780437e+002,4.838120e+000
7.790079e+002,5.665314e+000
7.799722e+002,6.346497e+000
7.809364e+002,6.869888e+000
7.819006e+002,7.379074e+000
7.828649e+002,8.089935e+000
7.838291e+002,8.916367e+000
7.847933e+002,9.463638e+000
7.857576e+002,9.754349e+000
7.867218e+002,9.327881e+000
7.876860e+002,7.424576e+000
7.886503e+002,5.523911e+000
7.896145e+002,5.025360e+000
7.905787e+002,6.215561e+000
7.915430e+002,7.753845e+000
7.925072e+002,8.309082e+000
7.934714e+002,8.178238e+000
7.944357e+002,7.607391e+000
7.953999e+002,6.762833e+000
7.963641e+002,5.893021e+000
7.973284e+002,5.235214e+000
7.982926e+002,4.800903e+000
7.992568e+002,4.511658e+000
8.002211e+002,4.425858e+000
8.011853e+002,4.021515e+000
8.021495e+002,2.818527e+000
8.031138e+002,1.307800e+000
8.040780e+002,9.730988e-001
8.050422e+002,2.767685e+000
8.060065e+002,4.441208e+000
8.069707e+002,5.008438e+000
8.079349e+002,5.170990e+000
8.088992e+002,5.742859e+000
8.098634e+002,7.005432e+000
8.108276e+002,8.420227e+000
8.117919e+002,9.493484e+000
8.127561e+002,9.753586e+000
8.137203e+002,7.936523e+000
8.146846e+002,4.066681e+000
8.156488e+002,3.967896e-001
8.166130e+002,-2.191772e-001
8.175773e+002,2.893753e+000
8.185415e+002,4.878098e+000
8.195057e+002,5.295990e+000
8.204700e+002,5.243973e+000
8.214342e+002,4.823471e+000
8.223984e+002,4.209213e+000
8.233627e+002,3.798019e+000
8.243269e+002,3.807999e+000
8.252911e+002,3.951889e+000
8.262554e+002,3.580536e+000
8.272196e+002,3.435791e+000
8.281838e+002,4.821915e+000
8.291481e+002,7.870743e+000
8.301123e+002,1.088448e+001
8.310765e+002,1.058763e+001
8.320408e+002,7.204468e+000
8.330050e+002,5.146027e+000
8.339692e+002,4.995758e+000
8.349335e+002,5.140381e+000
8.358977e+002,3.600311e+000
8.368619e+002,-6.343079e-002
8.378262e+002,-1.811371e+000
8.387904e+002,-2.467651e-001
8.397546e+002,1.642914e+000
8.407189e+002,3.521484e+000
8.416831e+002,5.165497e+000
8.426473e+002,6.370193e+000
8.436116e+002,7.028366e+000
8.445758e+002,7.335724e+000
8.455400e+002,7.105576e+000
8.465043e+002,6.703110e+000
8.474685e+002,6.782043e+000
8.484327e+002,7.509583e+000
8.493970e+002,8.427216e+000
8.503612e+002,8.657532e+000
8.513254e+002,8.022690e+000
8.522897e+002,7.523682e+000
8.532539e+002,6.802368e+000
8.542181e+002,6.524460e+000
8.551824e+002,7.381729e+000
8.561466e+002,9.310120e+000
8.571108e+002,1.115921e+001
8.580751e+002,1.292044e+001
8.590393e+002,1.376476e+001
8.600035e+002,1.304993e+001
8.609678e+002,1.168465e+001
8.619320e+002,1.044585e+001
8.628962e+002,9.703964e+000
8.638605e+002,9.619781e+000
8.648247e+002,1.106131e+001
8.657889e+002,1.315689e+001
8.667532e+002,1.394675e+001
8.677174e+002,1.317531e+001
8.686816e+002,1.180142e+001
8.696459e+002,1.084891e+001
8.706101e+002,1.034819e+001
8.715743e+002,1.046834e+001
8.725386e+002,1.147414e+001
8.735028e+002,1.270143e+001
8.744670e+002,1.401414e+001
8.754313e+002,1.532668e+001
8.763955e+002,1.668164e+001
8.773597e+002,1.826402e+001
8.783240e+002,1.942987e+001
8.792882e+002,1.947923e+001
8.802524e+002,1.905345e+001
8.812167e+002,1.857993e+001
8.821809e+002,1.823308e+001
8.831451e+002,1.805885e+001
8.841094e+002,1.813795e+001
8.850736e+002,1.853281e+001
8.860378e+002,1.894630e+001
8.870021e+002,1.913087e+001
8.879663e+002,1.988942e+001
8.889305e+002,2.229668e+001
8.898948e+002,2.579121e+001
8.908590e+002,2.748398e+001
8.918232e+002,2.612650e+001
8.927875e+002,2.472879e+001
8.937517e+002,2.374818e+001
8.947159e+002,2.313075e+001
8.956802e+002,2.260321e+001
8.966444e+002,2.216095e+001
8.976086e+002,2.240048e+001
8.985729e+002,2.463763e+001
8.995371e+002,2.743355e+001
9.005013e+002,2.811093e+001
9.014656e+002,2.696931e+001
9.024298e+002,2.557713e+001
9.033940e+002,2.503224e+001
9.043583e+002,2.519440e+001
9.053225e+002,2.544310e+001
9.062867e+002,2.648041e+001
9.072510e+002,2.646988e+001
9.082152e+002,2.440695e+001
9.091794e+002,2.210439e+001
9.101437e+002,2.144485e+001
9.111079e+002,2.272987e+001
9.120721e+002,2.427049e+001
9.130364e+002,2.548079e+001
9.140006e+002,2.613982e+001
9.149648e+002,2.582266e+001
9.159291e+002,2.497653e+001
9.168933e+002,2.436627e+001
9.178575e+002,2.448993e+001
9.188218e+002,2.513145e+001
9.197860e+002,2.585846e+001
9.207502e+002,2.668173e+001
9.217145e+002,2.660162e+001
9.226787e+002,2.490938e+001
9.236429e+002,2.291049e+001
9.246072e+002,2.247194e+001
9.255714e+002,2.391713e+001
9.265356e+002,2.486581e+001
9.274999e+002,2.482826e+001
9.284641e+002,2.427882e+001
9.294283e+002,2.292393e+001
9.303926e+002,2.132991e+001
9.313568e+002,2.045998e+001
9.323210e+002,2.084508e+001
9.332853e+002,2.160262e+001
9.342495e+002,2.117221e+001
9.352137e+002,2.015994e+001
9.361780e+002,1.965800e+001
9.371422e+002,1.994649e+001
9.381064e+002,2.026364e+001
9.390707e+002,1.937640e+001
9.400349e+002,1.681419e+001
9.409991e+002,1.570845e+001
9.419634e+002,1.696201e+001
9.429276e+002,1.824950e+001
9.438918e+002,1.925574e+001
9.448561e+002,1.986003e+001
9.458203e+002,1.983398e+001
9.467845e+002,1.903557e+001
9.477488e+002,1.813530e+001
9.487130e+002,1.771429e+001
9.496772e+002,1.731679e+001
9.506415e+002,1.632905e+001
9.516057e+002,1.492014e+001
9.525699e+002,1.397979e+001
9.535342e+002,1.439182e+001
9.544984e+002,1.585909e+001
9.554626e+002,1.586342e+001
9.564269e+002,1.413277e+001
9.573911e+002,1.306346e+001
9.583553e+002,1.378096e+001
9.593196e+002,1.526234e+001
9.602838e+002,1.572121e+001
9.612480e+002,1.473053e+001
9.622123e+002,1.413573e+001
9.631765e+002,1.531821e+001
9.641407e+002,1.622066e+001
9.651050e+002,1.548556e+001
9.660692e+002,1.368086e+001
9.670334e+002,1.229510e+001
9.679977e+002,1.231020e+001
9.689619e+002,1.295617e+001
9.699261e+002,1.200826e+001
9.708904e+002,1.010992e+001
9.718546e+002,9.480682e+000
9.728188e+002,1.068646e+001
9.737831e+002,1.281285e+001
9.747473e+002,1.481322e+001
9.757115e+002,1.674428e+001
9.766758e+002,1.836324e+001
9.776400e+002,2.060744e+001
9.786042e+002,2.152048e+001
9.795685e+002,1.972509e+001
9.805327e+002,1.658975e+001
9.814969e+002,1.386520e+001
9.824612e+002,1.218272e+001
9.834254e+002,1.114182e+001
9.843896e+002,1.032858e+001
9.853539e+002,9.871460e+000
9.863181e+002,1.024620e+001
9.872823e+002,1.121671e+001
9.882466e+002,1.193803e+001
9.892108e+002,1.176706e+001
9.901750e+002,1.090160e+001
9.911393e+002,1.003310e+001
9.921035e+002,8.572609e+000
9.930677e+002,7.710480e+000
9.940320e+002,8.001259e+000
9.949962e+002,8.666367e+000
9.959604e+002,9.047188e+000
9.969247e+002,9.101715e+000
9.978889e+002,9.058083e+000
9.988531e+002,8.788803e+000
9.998174e+002,8.513885e+000
1.000782e+003,8.534195e+000
1.001746e+003,8.696899e+000
1.002710e+003,8.815674e+000
1.003674e+003,8.757523e+000
1.004639e+003,8.350357e+000
1.005603e+003,7.198181e+000
1.006567e+003,5.186462e+000
1.007531e+003,4.261734e+000
1.008495e+003,4.637733e+000
1.009460e+003,5.586868e+000
1.010424e+003,7.315422e+000
1.011388e+003,9.396194e+000
1.012352e+003,9.748543e+000
1.013317e+003,6.768585e+000
1.014281e+003,4.761002e+000
1.015245e+003,6.083054e+000
1.016209e+003,7.709641e+000
1.017174e+003,7.144196e+000
1.018138e+003,4.575516e+000
1.019102e+003,2.114029e+000
1.020066e+003,1.492828e+000
1.021031e+003,2.219383e+000
1.021995e+003,3.102638e+000
1.022959e+003,3.998344e+000
1.023923e+003,4.138016e+000
1.024887e+003,3.097038e+000
1.025852e+003,1.460312e+000
1.026816e+003,8.366394e-002
1.027780e+003,-1.025696e+000
1.028744e+003,-1.626938e+000
1.029709e+003,-1.319099e+000
1.030673e+003,-9.874573e-001
1.031637e+003,-9.134293e-001
1.032601e+003,-1.003944e+000
1.033566e+003,-1.195290e+000
1.034530e+003,-1.422676e+000
1.035494e+003,-1.231834e+000
1.036458e+003,4.801178e-001
1.037422e+003,2.474129e+000
1.038387e+003,2.360321e+000
1.039351e+003,2.808914e-001
1.040315e+003,-1.685410e+000
1.041279e+003,-1.924141e+000
1.042244e+003,-8.103867e-001
1.043208e+003,-3.403091e-001
1.044172e+003,-1.127785e+000
1.045136e+003,-1.681732e+000
1.046101e+003,-2.006721e+000
1.047065e+003,-2.013466e+000
1.048029e+003,-1.514839e+000
1.048993e+003,-6.581879e-001
1.049958e+003,1.175537e-001
1.050922e+003,6.432343e-001
1.051886e+003,1.068466e+000
1.052850e+003,1.374481e+000
1.053814e+003,1.734779e+000
1.054779e+003,2.675194e+000
1.055743e+003,4.138168e+000
1.056707e+003,5.102829e+000
1.057671e+003,4.270493e+000
1.058636e+003,1.610962e+000
1.059600e+003,3.299713e-002
1.060564e+003,1.404037e-001
1.061528e+003,5.457153e-001
1.062493e+003,1.275665e+000
1.063457e+003,1.969963e+000
1.064421e+003,2.346626e+000
1.065385e+003,2.391968e+000
1.066349e+003,1.968628e+000
1.067314e+003,3.299255e-001
1.068278e+003,-9.584274e-001
1.069242e+003,-3.227692e-001
1.070206e+003,1.249657e+000
1.071171e+003,1.963982e+000
1.072135e+003,1.143906e+000
1.073099e+003,-2.452087e-002
1.074063e+003,6.000900e-001
1.075028e+003,3.325211e+000
1.075992e+003,4.020218e+000
1.076956e+003,1.216240e+000
1.077920e+003,-9.111099e-001
1.078885e+003,-1.184540e-001
1.079849e+003,2.178001e+000
1.080813e+003,3.237396e+000
1.081777e+003,2.483368e+000
1.082741e+003,1.760429e+000
1.083706e+003,1.779137e+000
1.084670e+003,2.138550e+000
1.085634e+003,3.094765e+000
1.086598e+003,4.153206e+000
1.087563e+003,4.407692e+000
1.088527e+003,3.432533e+000
1.089491e+003,1.858101e+000
1.090455e+003,7.635345e-001
1.091420e+003,1.574173e-001
1.092384e+003,1.148911e-001
1.093348e+003,1.148155e+000
1.094312e+003,1.716972e+000
1.095276e+003,3.206253e-001
1.096241e+003,-2.129234e+000
1.097205e+003,-2.725235e+000
1.098169e+003,-4.309158e-001
1.099133e+003,1.517029e+000
1.100098e+003,2.157539e+000
1.101062e+003,1.951958e+000
1.102026e+003,4.816666e-001
1.102990e+003,-1.534210e+000
1.103955e+003,-2.670052e+000
1.104919e+003,-2.092422e+000
1.105883e+003,-5.949020e-001
1.106847e+003,2.512054e-001
1.107812e+003,3.878708e-001
1.108776e+003,8.479309e-002
1.109740e+003,-9.241714e-001
1.110704e+003,-1.797371e+000
1.111668e+003,-1.891907e+000
1.112633e+003,-1.271927e+000
1.113597e+003,-3.114929e-001
1.114561e+003,1.159447e+000
1.115525e+003,2.351921e+000
1.116490e+003,3.176308e+000
1.117454e+003,3.540283e+000
1.118418e+003,3.267403e+000
1.119382e+003,2.561539e+000
1.120347e+003,1.758476e+000
1.121311e+003,1.008873e+000
1.122275e+003,2.171555e-001
1.123239e+003,-7.578812e-001
1.124203e+003,-1.745857e+000
1.125168e+003,-1.859535e+000
1.126132e+003,-7.331238e-001
1.127096e+003,5.496597e-001
1.128060e+003,1.164665e+000
1.129025e+003,1.197945e+000
1.129989e+003,1.164978e+000
1.130953e+003,1.125610e+000
1.131917e+003,8.675156e-001
1.132882e+003,1.316528e-001
1.133846e+003,-5.500641e-001
1.134810e+003,-9.114227e-001
1.135774e+003,-9.280930e-001
1.136739e+003,-6.535492e-001
1.137703e+003,-1.274948e-001
1.138667e+003,6.141586e-001
1.139631e+003,1.663971e+000
1.140595e+003,2.900063e+000
1.141560e+003,3.430313e+000
1.142524e+003,2.994598e+000
1.143488e+003,2.824005e+000
1.144452e+003,3.756332e+000
1.145417e+003,5.593513e+000
1.146381e+003,7.736305e+000
1.147345e+003,1.043634e+001
1.148309e+003,1.261119e+001
1.149274e+003,1.376269e+001
1.150238e+003,1.467995e+001
1.151202e+003,1.525954e+001
1.152166e+003,1.609015e+001
1.153130e+003,1.850762e+001
1.154095e+003,2.289192e+001
1.155059e+003,2.712452e+001
1.156023e+003,2.816542e+001
1.156987e+003,2.625963e+001
1.157952e+003,2.432565e+001
1.158916e+003,2.248254e+001
1.159880e+003,2.059981e+001
1.160844e+003,1.845607e+001
1.161809e+003,1.606882e+001
1.162773e+003,1.357295e+001
1.163737e+003,1.085952e+001
1.164701e+003,8.574989e+000
1.165666e+003,7.096664e+000
1.166630e+003,5.956329e+000
1.167594e+003,5.015274e+000
1.168558e+003,4.289063e+000
1.169522e+003,3.832581e+000
1.170487e+003,3.664383e+000
1.171451e+003,3.838493e+000
1.172415e+003,4.510780e+000
1.173379e+003,5.419655e+000
1.174344e+003,5.154205e+000
1.175308e+003,3.695671e+000
1.176272e+003,2.390068e+000
1.177236e+003,1.733978e+000
1.178201e+003,1.428749e+000
1.179165e+003,1.085953e+000
1.180129e+003,6.613464e-001
1.181093e+003,1.763840e-001
1.182057e+003,-5.603638e-001
1.183022e+003,-9.755478e-001
1.183986e+003,-5.324478e-001
1.184950e+003,7.095337e-002
1.185914e+003,1.233215e-001
1.186879e+003,-3.710251e-001
1.187843e+003,-9.061508e-001
1.188807e+003,-1.091805e+000
1.189771e+003,-1.011948e+000
1.190736e+003,-7.544327e-001
1.191700e+003,-2.656937e-001
1.192664e+003,-3.404694e-001
1.193628e+003,-1.512886e+000
1.194593e+003,-2.579506e+000
1.195557e+003,-2.436340e+000
1.196521e+003,-1.500557e+000
1.197485e+003,-1.262886e+000
1.198449e+003,-2.102188e+000
1.199414e+003,-3.104469e+000
1.200378e+003,-4.166298e+000
1.201342e+003,-4.965500e+000
1.202306e+003,-5.249161e+000
1.203271e+003,-5.132477e+000
1.204235e+003,-4.643188e+000
1.205199e+003,-3.888420e+000
1.206163e+003,-3.541954e+000
1.207128e+003,-4.924759e+000
1.208092e+003,-8.188896e+000
1.209056e+003,-8.963890e+000
1.210020e+003,-5.776459e+000
1.210984e+003,-3.484985e+000
1.211949e+003,-3.897324e+000
1.212913e+003,-5.698967e+000
1.213877e+003,-7.426819e+000
1.214841e+003,-8.921242e+000
1.215806e+003,-9.987564e+000
1.216770e+003,-1.042260e+001
1.217734e+003,-1.061864e+001
1.218698e+003,-1.072159e+001
1.219663e+003,-1.090798e+001
1.220627e+003,-1.163996e+001
1.221591e+003,-1.278760e+001
1.222555e+003,-1.340351e+001
1.223520e+003,-1.256014e+001
1.224484e+003,-1.068859e+001
1.225448e+003,-9.973984e+000
1.226412e+003,-1.120907e+001
1.227376e+003,-1.191488e+001
1.228341e+003,-1.190872e+001
1.229305e+003,-1.164258e+001
1.230269e+003,-1.092769e+001
1.231233e+003,-1.024960e+001
1.232198e+003,-1.089134e+001
1.233162e+003,-1.326682e+001
1.234126e+003,-1.489552e+001
1.235090e+003,-1.305433e+001
1.236055e+003,-1.056912e+001
1.237019e+003,-1.090799e+001
1.237983e+003,-1.312693e+001
1.238947e+003,-1.434814e+001
1.239911e+003,-1.335794e+001
1.240876e+003,-1.174165e+001
1.241840e+003,-1.205034e+001
1.242804e+003,-1.447287e+001
1.243768e+003,-1.529141e+001
1.244733e+003,-1.228416e+001
1.245697e+003,-1.060148e+001
1.246661e+003,-1.186406e+001
1.247625e+003,-1.355624e+001
1.248590e+003,-1.361700e+001
1.249554e+003,-1.234194e+001
1.250518e+003,-1.138611e+001
1.251482e+003,-1.155027e+001
1.252447e+003,-1.193764e+001
1.253411e+003,-1.128902e+001
1.254375e+003,-1.010593e+001
1.255339e+003,-9.483780e+000
1.256303e+003,-9.443077e+000
1.257268e+003,-9.669403e+000
1.258232e+003,-1.011029e+001
1.259196e+003,-1.067059e+001
1.260160e+003,-1.121989e+001
1.261125e+003,-1.184760e+001
1.262089e+003,-1.155913e+001
1.263053e+003,-8.996429e+000
1.264017e+003,-7.189590e+000
1.264982e+003,-7.399918e+000
1.265946e+003,-8.218979e+000
1.266910e+003,-8.207535e+000
1.267874e+003,-7.412399e+000
1.268839e+003,-6.917931e+000
1.269803e+003,-7.441536e+000
1.270767e+003,-8.520103e+000
1.271731e+003,-9.405701e+000
1.272695e+003,-1.000967e+001
1.273660e+003,-9.698883e+000
1.274624e+003,-8.045578e+000
1.275588e+003,-6.817924e+000
1.276552e+003,-7.196098e+000
1.277517e+003,-8.432014e+000
1.278481e+003,-9.167709e+000
1.279445e+003,-9.308159e+000
1.280409e+003,-9.575760e+000
1.281374e+003,-1.050979e+001
1.282338e+003,-1.115439e+001
1.283302e+003,-1.093015e+001
1.284266e+003,-1.024916e+001
1.285230e+003,-9.335960e+000
1.286195e+003,-8.444427e+000
1.287159e+003,-8.059578e+000
1.288123e+003,-8.563721e+000
1.289087e+003,-9.664253e+000
1.290052e+003,-1.058580e+001
1.291016e+003,-1.140635e+001
1.291980e+003,-1.185771e+001
1.292944e+003,-1.185829e+001
1.293909e+003,-1.172965e+001
1.294873e+003,-1.138389e+001
1.295837e+003,-1.101476e+001
1.296801e+003,-1.107233e+001
1.297766e+003,-1.154273e+001
1.298730e+003,-1.151658e+001
1.299694e+003,-1.020804e+001
1.300658e+003,-8.890251e+000
1.301622e+003,-9.194290e+000
1.302587e+003,-1.028648e+001
1.303551e+003,-1.103649e+001
1.304515e+003,-1.117752e+001
1.305479e+003,-1.060759e+001
1.306444e+003,-9.072906e+000
1.307408e+003,-7.095207e+000
1.308372e+003,-6.464050e+000
1.309336e+003,-7.639519e+000
1.310301e+003,-8.779457e+000
1.311265e+003,-1.007568e+001
1.312229e+003,-1.091380e+001
1.313193e+003,-1.068037e+001
1.314157e+003,-1.019732e+001
1.315122e+003,-1.039823e+001
1.316086e+003,-1.131202e+001
1.317050e+003,-1.231877e+001
1.318014e+003,-1.301730e+001
1.318979e+003,-1.332280e+001
1.319943e+003,-1.295314e+001
1.320907e+003,-1.199992e+001
1.321871e+003,-1.153709e+001
1.322836e+003,-1.178450e+001
1.323800e+003,-1.212048e+001
1.324764e+003,-1.267001e+001
1.325728e+003,-1.285495e+001
1.326693e+003,-1.120518e+001
1.327657e+003,-7.668144e+000
1.328621e+003,-5.500374e+000
1.329585e+003,-6.051285e+000
1.330549e+003,-6.998772e+000
1.331514e+003,-7.112968e+000
1.332478e+003,-7.205208e+000
1.333442e+003,-8.335365e+000
1.334406e+003,-1.015439e+001
1.335371e+003,-1.131214e+001
1.336335e+003,-1.100411e+001
1.337299e+003,-9.773605e+000
1.338263e+003,-8.597527e+000
1.339228e+003,-7.386169e+000
1.340192e+003,-7.080521e+000
1.341156e+003,-8.897560e+000
1.342120e+003,-9.778648e+000
1.343084e+003,-8.714500e+000
1.344049e+003,-7.172623e+000
1.345013e+003,-6.022690e+000
1.345977e+003,-5.399536e+000
1.346941e+003,-5.489441e+000
1.347906e+003,-6.402115e+000
1.348870e+003,-7.449783e+000
1.349834e+003,-8.242729e+000
1.350798e+003,-8.576126e+000
1.351763e+003,-7.775047e+000
1.352727e+003,-6.100128e+000
1.353691e+003,-5.231544e+000
1.354655e+003,-5.923363e+000
1.355620e+003,-7.060509e+000
1.356584e+003,-7.201363e+000
1.357548e+003,-6.491234e+000
1.358512e+003,-6.490219e+000
1.359476e+003,-7.710777e+000
1.360441e+003,-8.606743e+000
1.361405e+003,-8.284538e+000
1.362369e+003,-8.040024e+000
1.363333e+003,-9.053024e+000
1.364298e+003,-1.028014e+001
1.365262e+003,-9.858124e+000
1.366226e+003,-7.672691e+000
1.367190e+003,-5.589462e+000
1.368155e+003,-5.266754e+000
1.369119e+003,-6.339119e+000
1.370083e+003,-7.729881e+000
1.371047e+003,-9.661156e+000
1.372011e+003,-1.075047e+001
1.372976e+003,-1.089966e+001
1.373940e+003,-1.050301e+001
1.374904e+003,-9.146988e+000
1.375868e+003,-7.637825e+000
1.376833e+003,-7.174286e+000
1.377797e+003,-7.717003e+000
1.378761e+003,-8.036186e+000
1.379725e+003,-7.513245e+000
1.380690e+003,-6.900215e+000
1.381654e+003,-6.872787e+000
1.382618e+003,-7.278435e+000
1.383582e+003,-8.388374e+000
1.384547e+003,-9.952805e+000
1.385511e+003,-1.034194e+001
1.386475e+003,-8.544830e+000
1.387439e+003,-5.940239e+000
1.388403e+003,-4.500687e+000
1.389368e+003,-4.231209e+000
1.390332e+003,-4.570786e+000
1.391296e+003,-5.729446e+000
1.392260e+003,-6.999809e+000
1.393225e+003,-8.694748e+000
1.394189e+003,-9.977135e+000
1.395153e+003,-1.055638e+001
1.396117e+003,-1.031563e+001
1.397082e+003,-8.645454e+000
1.398046e+003,-5.793190e+000
1.399010e+003,-3.431618e+000
1.399974e+003,-3.150124e+000
1.400938e+003,-4.436295e+000
1.401903e+003,-5.560860e+000
1.402867e+003,-6.404152e+000
1.403831e+003,-6.860138e+000
1.404795e+003,-7.484985e+000
1.405760e+003,-7.148758e+000
1.406724e+003,-4.450462e+000
1.407688e+003,-1.462311e+000
1.408652e+003,-4.679184e-001
1.409617e+003,-1.436073e+000
1.410581e+003,-3.475929e+000
1.411545e+003,-6.567116e+000
1.412509e+003,-8.893188e+000
1.413474e+003,-8.064201e+000
1.414438e+003,-5.768799e+000
1.415402e+003,-4.812225e+000
1.416366e+003,-4.993607e+000
1.417330e+003,-4.797455e+000
1.418295e+003,-3.504456e+000
1.419259e+003,-2.145378e+000
1.420223e+003,-2.032341e+000
1.421187e+003,-3.007111e+000
1.422152e+003,-3.859802e+000
1.423116e+003,-4.449013e+000
1.424080e+003,-5.107048e+000
1.425044e+003,-6.471153e+000
1.426009e+003,-7.408722e+000
1.426973e+003,-7.201378e+000
1.427937e+003,-6.449059e+000
1.428901e+003,-5.813980e+000
1.429865e+003,-5.376022e+000
1.430830e+003,-4.838280e+000
1.431794e+003,-4.030777e+000
1.432758e+003,-3.179626e+000
1.433722e+003,-2.682022e+000
1.434687e+003,-2.495872e+000
1.435651e+003,-2.157104e+000
1.436615e+003,-9.961853e-001
1.437579e+003,-1.050461e+000
1.438544e+003,-4.043541e+000
1.439508e+003,-6.676865e+000
1.440472e+003,-6.051353e+000
1.441436e+003,-3.634918e+000
1.442401e+003,-2.691010e+000
1.443365e+003,-3.891747e+000
1.444329e+003,-4.842606e+000
1.445293e+003,-3.627365e+000
1.446257e+003,-1.518532e+000
1.447222e+003,-9.762878e-001
1.448186e+003,-1.749649e+000
1.449150e+003,-2.527916e+000
1.450114e+003,-3.210045e+000
1.451079e+003,-3.939377e+000
1.452043e+003,-5.321320e+000
1.453007e+003,-6.350456e+000
1.453971e+003,-5.021408e+000
1.454936e+003,-1.804405e+000
1.455900e+003,-3.633423e-001
1.456864e+003,-1.945786e+000
1.457828e+003,-3.517082e+000
1.458792e+003,-3.059250e+000
1.459757e+003,-2.189125e+000
1.460721e+003,-2.197945e+000
1.461685e+003,-2.816597e+000
1.462649e+003,-3.466553e+000
1.463614e+003,-3.929276e+000
1.464578e+003,-4.048805e+000
1.465542e+003,-3.623924e+000
1.466506e+003,-2.948387e+000
1.467471e+003,-2.958580e+000
1.468435e+003,-3.877579e+000
1.469399e+003,-4.032089e+000
1.470363e+003,-2.433060e+000
1.471328e+003,-1.491882e+000
1.472292e+003,-2.558304e+000
1.473256e+003,-3.763145e+000
1.474220e+003,-3.246071e+000
1.475184e+003,-1.851242e+000
1.476149e+003,-1.759865e+000
1.477113e+003,-3.490067e+000
1.478077e+003,-5.183952e+000
1.479041e+003,-4.982986e+000
1.480006e+003,-3.416153e+000
1.480970e+003,-2.298737e+000
1.481934e+003,-1.662254e+000
1.482898e+003,-1.678482e+000
1.483863e+003,-3.352493e+000
1.484827e+003,-4.219231e+000
1.485791e+003,-2.870728e+000
1.486755e+003,-1.019066e+000
1.487719e+003,-2.427521e-001
1.488684e+003,-3.796234e-001
1.489648e+003,-5.581512e-001
1.490612e+003,-4.633179e-001
1.491576e+003,-2.037735e-001
1.492541e+003,1.865616e-001
1.493505e+003,5.137711e-001
1.494469e+003,1.228333e-003
1.495433e+003,-1.148117e+000
1.496398e+003,-1.026436e+000
1.497362e+003,1.057419e+000
1.498326e+003,3.188988e+000
1.499290e+003,4.475937e+000
1.500255e+003,5.165146e+000
1.501219e+003,5.340042e+000
1.502183e+003,5.126259e+000
1.503147e+003,5.215775e+000
1.504111e+003,5.755875e+000
1.505076e+003,6.643806e+000
1.506040e+003,8.091553e+000
1.507004e+003,9.594582e+000
1.507968e+003,1.015011e+001
1.508933e+003,1.051874e+001
1.509897e+003,1.276876e+001
1.510861e+003,1.718530e+001
1.511825e+003,2.089345e+001
1.512790e+003,2.153316e+001
1.513754e+003,2.071786e+001
1.514718e+003,2.150002e+001
1.515682e+003,2.383660e+001
1.516646e+003,2.690600e+001
1.517611e+003,3.143704e+001
1.518575e+003,3.497083e+001
1.519539e+003,3.589967e+001
1.520503e+003,3.660828e+001
1.521468e+003,3.905133e+001
1.522432e+003,4.162539e+001
1.523396e+003,4.175053e+001
1.524360e+003,3.941094e+001
1.525325e+003,3.679570e+001
1.526289e+003,3.537536e+001
1.527253e+003,3.444843e+001
1.528217e+003,3.265872e+001
1.529182e+003,3.002464e+001
1.530146e+003,2.815764e+001
1.531110e+003,2.818851e+001
1.532074e+003,2.675244e+001
1.533039e+003,2.219835e+001
1.534003e+003,1.774851e+001
1.534967e+003,1.507412e+001
1.535931e+003,1.326598e+001
1.536896e+003,1.101215e+001
1.537860e+003,8.434891e+000
1.538824e+003,6.752586e+000
1.539788e+003,6.504616e+000
1.540752e+003,6.591286e+000
1.541717e+003,5.575127e+000
1.542681e+003,3.751511e+000
1.543645e+003,2.867340e+000
1.544609e+003,3.530846e+000
1.545573e+003,3.744003e+000
1.546538e+003,2.710495e+000
1.547502e+003,2.133842e+000
1.548466e+003,3.016548e+000
1.549430e+003,4.465385e+000
1.550395e+003,5.891068e+000
1.551359e+003,6.935135e+000
1.552323e+003,6.893532e+000
1.553287e+003,5.600563e+000
1.554252e+003,4.062370e+000
1.555216e+003,3.109764e+000
1.556180e+003,2.625389e+000
1.557144e+003,2.465637e+000
1.558109e+003,2.662132e+000
1.559073e+003,2.430511e+000
1.560037e+003,1.487686e+000
1.561001e+003,5.144653e-001
1.561966e+003,-5.573273e-001
1.562930e+003,-1.159988e+000
1.563894e+003,-6.284561e-001
1.564858e+003,6.861343e-001
1.565823e+003,2.246544e+000
1.566787e+003,3.844025e+000
1.567751e+003,4.322189e+000
1.568715e+003,2.749138e+000
1.569679e+003,7.018433e-001
1.570644e+003,1.600571e-001
1.571608e+003,6.553268e-001
1.572572e+003,8.362503e-001
1.573536e+003,6.924744e-001
1.574500e+003,7.898178e-001
1.575465e+003,1.396225e+000
1.576429e+003,2.120430e+000
1.577393e+003,2.510155e+000
1.578357e+003,2.817673e+000
1.579322e+003,3.764267e+000
1.580286e+003,5.324936e+000
1.581250e+003,6.402336e+000
1.582214e+003,6.615326e+000
1.583179e+003,6.452255e+000
1.584143e+003,5.996605e+000
1.585107e+003,5.545700e+000
1.586071e+003,5.843307e+000
1.587036e+003,6.566795e+000
1.588000e+003,6.281425e+000
1.588964e+003,4.547203e+000
1.589928e+003,3.286819e+000
1.590893e+003,4.102585e+000
1.591857e+003,5.803253e+000
1.592821e+003,6.558098e+000
1.593785e+003,6.566849e+000
1.594750e+003,7.099655e+000
1.595714e+003,8.458023e+000
1.596678e+003,9.162010e+000
1.597642e+003,8.257042e+000
1.598606e+003,7.062462e+000
1.599571e+003,6.503426e+000
1.600535e+003,6.404694e+000
1.601499e+003,6.538086e+000
1.602463e+003,6.887413e+000
1.603427e+003,7.672173e+000
1.604392e+003,9.063728e+000
1.605356e+003,1.030467e+001
1.606320e+003,1.049722e+001
1.607284e+003,9.998871e+000
1.608249e+003,9.831375e+000
1.609213e+003,1.000836e+001
1.610177e+003,1.011592e+001
1.611141e+003,1.001593e+001
1.612106e+003,1.002501e+001
1.613070e+003,1.059979e+001
1.614034e+003,1.104073e+001
1.614998e+003,1.071100e+001
1.615963e+003,9.950974e+000
1.616927e+003,9.110321e+000
1.617891e+003,8.385025e+000
1.618855e+003,8.533684e+000
1.619820e+003,1.015607e+001
1.620784e+003,1.192255e+001
1.621748e+003,1.177774e+001
1.622712e+003,1.016473e+001
1.623677e+003,9.442688e+000
1.624641e+003,9.783768e+000
1.625605e+003,1.014124e+001
1.626569e+003,1.016268e+001
1.627533e+003,1.012561e+001
1.628498e+003,1.039462e+001
1.629462e+003,1.059240e+001
1.630426e+003,1.001812e+001
1.631390e+003,9.185120e+000
1.632354e+003,9.325615e+000
1.633319e+003,1.066344e+001
1.634283e+003,1.226765e+001
1.635247e+003,1.353132e+001
1.636211e+003,1.438502e+001
1.637176e+003,1.468647e+001
1.638140e+003,1.448339e+001
1.639104e+003,1.414803e+001
1.640068e+003,1.369778e+001
1.641033e+003,1.292336e+001
1.641997e+003,1.097632e+001
1.642961e+003,9.911270e+000
1.643925e+003,1.218471e+001
1.644890e+003,1.458589e+001
1.645854e+003,1.305059e+001
1.646818e+003,9.015129e+000
1.647782e+003,6.877312e+000
1.648747e+003,7.933784e+000
1.649711e+003,9.869926e+000
1.650675e+003,1.092318e+001
1.651639e+003,1.140045e+001
1.652604e+003,1.180743e+001
1.653568e+003,1.211752e+001
1.654532e+003,1.238913e+001
1.655496e+003,1.268477e+001
1.656460e+003,1.272376e+001
1.657425e+003,1.231017e+001
1.658389e+003,1.181512e+001
1.659353e+003,1.128986e+001
1.660317e+003,1.089149e+001
1.661281e+003,1.121504e+001
1.662246e+003,1.175950e+001
1.663210e+003,1.084525e+001
1.664174e+003,8.018066e+000
1.665138e+003,5.407982e+000
1.666103e+003,4.707878e+000
1.667067e+003,5.460037e+000
1.668031e+003,7.385216e+000
1.668995e+003,1.029517e+001
1.669960e+003,1.101665e+001
1.670924e+003,8.684608e+000
1.671888e+003,6.946823e+000
1.672852e+003,7.149864e+000
1.673817e+003,7.828285e+000
1.674781e+003,8.227654e+000
1.675745e+003,8.443405e+000
1.676709e+003,8.564896e+000
1.677674e+003,8.592514e+000
1.678638e+003,8.601677e+000
1.679602e+003,8.609764e+000
1.680566e+003,8.063393e+000
1.681531e+003,6.242119e+000
1.682495e+003,4.071472e+000
1.683459e+003,2.967361e+000
1.684423e+003,2.849098e+000
1.685387e+003,3.603729e+000
1.686352e+003,5.406654e+000
1.687316e+003,6.740990e+000
1.688280e+003,7.154762e+000
1.689244e+003,6.935333e+000
1.690208e+003,5.792290e+000
1.691173e+003,4.431534e+000
1.692137e+003,3.661636e+000
1.693101e+003,3.403381e+000
1.694065e+003,3.118011e+000
1.695030e+003,2.624725e+000
1.695994e+003,2.437439e+000
1.696958e+003,2.940742e+000
1.697922e+003,3.881371e+000
1.698887e+003,5.449295e+000
1.699851e+003,7.134911e+000
1.700815e+003,7.056496e+000
1.701779e+003,5.078278e+000
1.702744e+003,3.244431e+000
1.703708e+003,2.186554e+000
1.704672e+003,1.646797e+000
1.705636e+003,1.487228e+000
1.706601e+003,1.588181e+000
1.707565e+003,2.007843e+000
1.708529e+003,2.622009e+000
1.709493e+003,2.899178e+000
1.710458e+003,2.746323e+000
1.711422e+003,2.493431e+000
1.712386e+003,2.089172e+000
1.713350e+003,1.928368e+000
1.714314e+003,2.697655e+000
1.715279e+003,3.621544e+000
1.716243e+003,2.987907e+000
1.717207e+003,1.205040e+000
1.718171e+003,9.404755e-001
1.719135e+003,2.936829e+000
1.720100e+003,4.703583e+000
1.721064e+003,4.576591e+000
1.722028e+003,3.331009e+000
1.722992e+003,1.787766e+000
1.723957e+003,1.966400e-001
1.724921e+003,-1.560516e-001
1.725885e+003,8.957672e-001
1.726849e+003,1.499222e+000
1.727814e+003,1.111214e+000
1.728778e+003,7.469711e-001
1.729742e+003,1.063278e+000
1.730706e+003,1.364265e+000
1.731671e+003,3.555603e-001
1.732635e+003,-1.069778e+000
1.733599e+003,-5.070648e-001
1.734563e+003,2.101753e+000
1.735528e+003,4.280182e+000
1.736492e+003,4.702080e+000
1.737456e+003,3.811264e+000
1.738420e+003,1.933159e+000
1.739385e+003,-4.181747e-001
1.740349e+003,-1.133347e+000
1.741313e+003,2.562027e-001
1.742277e+003,1.079529e+000
1.743241e+003,1.110649e+000
1.744206e+003,1.050751e+000
1.745170e+003,8.821182e-001
1.746134e+003,7.112122e-001
1.747098e+003,5.129547e-001
1.748063e+003,3.960724e-001
1.749027e+003,7.214737e-001
1.749991e+003,1.204147e+000
1.750955e+003,9.386292e-001
1.751919e+003,-2.476425e-001
1.752884e+003,-1.361588e+000
1.753848e+003,-1.582123e+000
1.754812e+003,-1.172096e+000
1.755776e+003,-5.823975e-001
1.756741e+003,2.176056e-001
1.757705e+003,1.007133e+000
1.758669e+003,1.930527e+000
1.759633e+003,2.293259e+000
1.760598e+003,1.481499e+000
1.761562e+003,8.084869e-001
1.762526e+003,1.003616e+000
1.763490e+003,1.210335e+000
1.764455e+003,6.457596e-001
1.765419e+003,-2.169342e-001
1.766383e+003,-6.704941e-001
1.767347e+003,-6.313705e-001
1.768312e+003,-2.569656e-001
1.769276e+003,3.777237e-001
1.770240e+003,8.557358e-001
1.771204e+003,6.997833e-001
1.772168e+003,2.582626e-001
1.773133e+003,3.889542e-001
1.774097e+003,9.809799e-001
1.775061e+003,7.456665e-001
1.776025e+003,-6.697845e-001
1.776990e+003,-1.496902e+000
1.777954e+003,-8.978424e-001
1.778918e+003,3.707886e-003
1.779882e+003,4.306564e-001
1.780846e+003,6.023483e-001
1.781811e+003,9.368362e-001
1.782775e+003,1.330811e+000
1.783739e+003,1.353416e+000
1.784703e+003,9.284668e-001
1.785668e+003,4.979172e-001
1.786632e+003,-9.750366e-003
1.787596e+003,-2.378082e-001
1.788560e+003,5.188980e-001
1.789525e+003,1.513474e+000
1.790489e+003,1.398705e+000
1.791453e+003,5.325775e-001
1.792417e+003,3.641434e-001
1.793382e+003,1.147926e+000
1.794346e+003,2.012321e+000
1.795310e+003,2.515854e+000
1.796274e+003,2.644318e+000
1.797239e+003,2.433548e+000
1.798203e+003,1.845810e+000
1.799167e+003,3.948059e-001
1.800131e+003,-2.429718e+000
1.801095e+003,-3.284088e+000
1.802060e+003,-1.809464e-001
1.803024e+003,1.687859e+000
1.803988e+003,5.921402e-001
1.804952e+003,-3.705215e-001
1.805917e+003,8.085632e-001
1.806881e+003,2.359795e+000
1.807845e+003,2.361702e+000
1.808809e+003,1.294739e+000
1.809773e+003,3.902130e-001
1.810738e+003,4.505157e-002
1.811702e+003,2.228394e-001
1.812666e+003,8.741837e-001
1.813630e+003,1.479492e+000
1.814595e+003,1.281815e+000
1.815559e+003,5.186310e-001
1.816523e+003,1.591873e-001
1.817487e+003,2.071915e-001
1.818452e+003,8.470688e-001
1.819416e+003,2.509575e+000
1.820380e+003,3.651718e+000
1.821344e+003,3.661919e+000
1.822309e+003,3.242027e+000
1.823273e+003,2.513977e+000
1.824237e+003,1.868698e+000
1.825201e+003,1.783630e+000
1.826166e+003,2.061829e+000
1.827130e+003,2.236763e+000
1.828094e+003,2.201393e+000
1.829058e+003,1.848694e+000
1.830022e+003,9.565277e-001
1.830987e+003,1.776657e-001
1.831951e+003,2.957153e-002
1.832915e+003,3.395844e-001
1.833879e+003,1.011276e+000
1.834844e+003,1.892754e+000
1.835808e+003,2.652397e+000
1.836772e+003,3.216087e+000
1.837736e+003,3.473671e+000
1.838700e+003,3.346519e+000
1.839665e+003,3.109924e+000
1.840629e+003,3.076408e+000
1.841593e+003,2.969307e+000
1.842557e+003,2.000198e+000
1.843522e+003,1.956940e-001
1.844486e+003,-1.988831e-001
1.845450e+003,2.006424e+000
1.846414e+003,3.449699e+000
1.847379e+003,3.601791e+000
1.848343e+003,3.572495e+000
1.849307e+003,3.902702e+000
1.850271e+003,3.984711e+000
1.851236e+003,3.085571e+000
1.852200e+003,1.881943e+000
1.853164e+003,1.194893e+000
1.854128e+003,1.079391e+000
1.855093e+003,1.312210e+000
1.856057e+003,1.807602e+000
1.857021e+003,2.545013e+000
1.857985e+003,3.599663e+000
1.858949e+003,4.305725e+000
1.859914e+003,3.040443e+000
1.860878e+003,3.466873e-001
1.861842e+003,-7.148666e-001
1.862806e+003,-1.130295e-001
1.863771e+003,1.068817e+000
1.864735e+003,2.874481e+000
1.865699e+003,4.202896e+000
1.866663e+003,4.605270e+000
1.867627e+003,4.392326e+000
1.868592e+003,3.285843e+000
1.869556e+003,2.014587e+000
1.870520e+003,2.354973e+000
1.871484e+003,3.973076e+000
1.872449e+003,4.576065e+000
1.873413e+003,3.781403e+000
1.874377e+003,3.111832e+000
1.875341e+003,2.764420e+000
1.876306e+003,2.727997e+000
1.877270e+003,3.373032e+000
1.878234e+003,3.960648e+000
1.879198e+003,3.579231e+000
1.880163e+003,2.697060e+000
1.881127e+003,2.164940e+000
1.882091e+003,2.138687e+000
1.883055e+003,2.507240e+000
1.884020e+003,3.155609e+000
1.884984e+003,3.696602e+000
1.885948e+003,3.779419e+000
1.886912e+003,3.565277e+000
1.887876e+003,3.350792e+000
1.888841e+003,3.151131e+000
1.889805e+003,3.118645e+000
1.890769e+003,3.279396e+000
1.891733e+003,3.473640e+000
1.892698e+003,3.678490e+000
1.893662e+003,3.844635e+000
1.894626e+003,3.822105e+000
1.895590e+003,3.961952e+000
1.896554e+003,5.102333e+000
1.897519e+003,6.162292e+000
1.898483e+003,5.217484e+000
1.899447e+003,2.990990e+000
1.900411e+003,2.414803e+000
1.901376e+003,4.090912e+000
1.902340e+003,5.331612e+000
1.903304e+003,4.842567e+000
1.904268e+003,4.113983e+000
1.905233e+003,4.073120e+000
1.906197e+003,4.243721e+000
1.907161e+003,3.992622e+000
1.908125e+003,3.679070e+000
1.909090e+003,4.121933e+000
1.910054e+003,5.147583e+000
1.911018e+003,5.979355e+000
1.911982e+003,6.295746e+000
1.912947e+003,5.714737e+000
1.913911e+003,3.937729e+000
1.914875e+003,2.318954e+000
1.915839e+003,3.137848e+000
1.916803e+003,5.645027e+000
1.917768e+003,5.960899e+000
1.918732e+003,3.610382e+000
1.919696e+003,2.429657e+000
1.920660e+003,2.876244e+000
1.921625e+003,3.412712e+000
1.922589e+003,3.522942e+000
1.923553e+003,3.913040e+000
1.924517e+003,5.271042e+000
1.925481e+003,6.796730e+000
1.926446e+003,8.086327e+000
1.927410e+003,8.929543e+000
1.928374e+003,8.774841e+000
1.929338e+003,7.646378e+000
1.930303e+003,6.538033e+000
1.931267e+003,5.696281e+000
1.932231e+003,5.097229e+000
1.933195e+003,4.726738e+000
1.934160e+003,4.499771e+000
1.935124e+003,4.251793e+000
1.936088e+003,4.170006e+000
1.937052e+003,4.795341e+000
1.938017e+003,5.728325e+000
1.938981e+003,5.925774e+000
1.939945e+003,5.374107e+000
1.940909e+003,4.921989e+000
1.941874e+003,4.976715e+000
1.942838e+003,5.491928e+000
1.943802e+003,6.508659e+000
1.944766e+003,7.585251e+000
1.945730e+003,7.711014e+000
1.946695e+003,6.965965e+000
1.947659e+003,6.181320e+000
1.948623e+003,5.315453e+000
1.949587e+003,4.704872e+000
1.950552e+003,4.351479e+000
1.951516e+003,4.512550e+000
1.952480e+003,5.436722e+000
1.953444e+003,6.568901e+000
1.954408e+003,7.817207e+000
1.955373e+003,8.719635e+000
1.956337e+003,8.476952e+000
1.957301e+003,7.436058e+000
1.958265e+003,6.605690e+000
1.959230e+003,6.010376e+000
1.960194e+003,5.674583e+000
1.961158e+003,5.393005e+000
1.962122e+003,5.550766e+000
1.963087e+003,6.872231e+000
1.964051e+003,7.920998e+000
1.965015e+003,7.531868e+000
1.965979e+003,6.853493e+000
1.966944e+003,7.203606e+000
1.967908e+003,8.047142e+000
1.968872e+003,8.093430e+000
1.969836e+003,7.379555e+000
1.970801e+003,7.200096e+000
1.971765e+003,8.043732e+000
1.972729e+003,8.542427e+000
1.973693e+003,7.331902e+000
1.974657e+003,5.756355e+000
1.975622e+003,5.927002e+000
1.976586e+003,7.253731e+000
1.977550e+003,8.293198e+000
1.978514e+003,9.038269e+000
1.979479e+003,9.780739e+000
1.980443e+003,1.050420e+001
1.981407e+003,1.021929e+001
1.982371e+003,8.505905e+000
1.983335e+003,7.021492e+000
1.984300e+003,7.003136e+000
1.985264e+003,7.794319e+000
1.986228e+003,8.484985e+000
1.987192e+003,9.062683e+000
1.988157e+003,9.485870e+000
1.989121e+003,9.853539e+000
1.990085e+003,9.604263e+000
1.991049e+003,8.337585e+000
1.992014e+003,7.307213e+000
1.992978e+003,6.255234e+000
1.993942e+003,5.980835e+000
1.994906e+003,7.610703e+000
1.995871e+003,9.232178e+000
1.996835e+003,9.301285e+000
1.997799e+003,8.585068e+000
1.998763e+003,8.195831e+000
1.999728e+003,8.119270e+000
