5.003444e+002,6.509238e+001
5.013087e+002,6.395554e+001
5.022729e+002,6.517436e+001
5.032371e+002,6.738261e+001
5.042014e+002,6.506377e+001
5.051656e+002,5.903476e+001
5.061298e+002,5.322086e+001
5.070941e+002,5.122098e+001
5.080583e+002,5.384929e+001
5.090225e+002,5.552821e+001
5.099868e+002,5.588461e+001
5.109510e+002,5.601678e+001
5.119152e+002,5.690430e+001
5.128795e+002,5.872075e+001
5.138437e+002,5.895076e+001
5.148079e+002,5.421097e+001
5.157722e+002,5.007996e+001
5.167364e+002,4.944833e+001
5.177006e+002,5.220163e+001
5.186649e+002,5.544585e+001
5.196291e+002,5.575203e+001
5.205933e+002,5.476067e+001
5.215576e+002,5.397343e+001
5.225218e+002,5.351697e+001
5.234860e+002,5.313274e+001
5.244503e+002,5.249455e+001
5.254145e+002,5.170686e+001
5.263787e+002,5.074838e+001
5.273430e+002,4.932805e+001
5.283072e+002,4.792606e+001
5.292714e+002,4.725296e+001
5.302357e+002,4.766599e+001
5.311999e+002,4.762849e+001
5.321641e+002,4.655370e+001
5.331284e+002,4.560509e+001
5.340926e+002,4.593958e+001
5.350568e+002,4.802620e+001
5.360211e+002,4.971336e+001
5.369853e+002,4.889713e+001
5.379495e+002,4.714655e+001
5.389138e+002,4.540172e+001
5.398780e+002,4.411594e+001
5.408422e+002,4.327652e+001
5.418065e+002,4.306284e+001
5.427707e+002,4.338481e+001
5.437349e+002,4.372595e+001
5.446992e+002,4.399205e+001
5.456634e+002,4.412674e+001
5.466276e+002,4.397284e+001
5.475919e+002,4.317490e+001
5.485561e+002,4.261534e+001
5.495203e+002,4.234151e+001
5.504846e+002,4.221477e+001
5.514488e+002,4.211768e+001
5.524130e+002,4.216298e+001
5.533773e+002,4.208154e+001
5.543415e+002,4.183513e+001
5.553057e+002,4.139510e+001
5.562700e+002,4.070284e+001
5.572342e+002,3.970367e+001
5.581984e+002,3.840977e+001
5.591627e+002,3.648660e+001
5.601269e+002,3.441718e+001
5.610911e+002,3.334129e+001
5.620554e+002,3.388353e+001
5.630196e+002,3.575060e+001
5.639838e+002,3.670856e+001
5.649481e+002,3.653697e+001
5.659123e+002,3.582579e+001
5.668765e+002,3.449348e+001
5.678408e+002,3.283124e+001
5.688050e+002,3.143254e+001
5.697692e+002,3.004970e+001
5.707335e+002,2.921103e+001
5.716977e+002,2.962993e+001
5.726619e+002,3.055644e+001
5.736262e+002,3.093564e+001
5.745904e+002,2.996971e+001
5.755546e+002,2.867203e+001
5.765189e+002,2.847478e+001
5.774831e+002,2.895993e+001
5.784473e+002,2.979430e+001
5.794116e+002,3.079181e+001
5.803758e+002,3.190707e+001
5.813400e+002,3.124770e+001
5.823043e+002,2.799483e+001
5.832685e+002,2.519644e+001
5.842327e+002,2.403728e+001
5.851970e+002,2.441473e+001
5.861612e+002,2.517213e+001
5.871254e+002,2.655035e+001
5.880897e+002,2.776099e+001
5.890539e+002,2.879111e+001
5.900181e+002,2.945926e+001
5.909824e+002,2.950090e+001
5.919466e+002,2.864171e+001
5.929108e+002,2.741000e+001
5.938751e+002,2.614001e+001
5.948393e+002,2.502155e+001
5.958035e+002,2.431566e+001
5.967678e+002,2.423190e+001
5.977320e+002,2.482831e+001
5.986962e+002,2.683368e+001
5.996605e+002,3.030920e+001
6.006247e+002,3.258942e+001
6.015889e+002,3.213330e+001
6.025532e+002,2.913228e+001
6.035174e+002,2.631743e+001
6.044816e+002,2.285933e+001
6.054459e+002,2.067128e+001
6.064101e+002,2.043726e+001
6.073743e+002,2.160571e+001
6.083386e+002,2.349792e+001
6.093028e+002,2.666745e+001
6.102670e+002,2.857210e+001
6.112313e+002,2.660365e+001
6.121955e+002,2.275272e+001
6.131597e+002,1.945779e+001
6.141240e+002,1.840224e+001
6.150882e+002,1.916893e+001
6.160524e+002,2.063069e+001
6.170167e+002,2.270390e+001
6.179809e+002,2.397232e+001
6.189451e+002,2.338277e+001
6.199094e+002,2.124251e+001
6.208736e+002,2.035829e+001
6.218378e+002,2.266560e+001
6.228021e+002,2.431049e+001
6.237663e+002,2.473831e+001
6.247305e+002,2.440234e+001
6.256948e+002,2.389745e+001
6.266590e+002,2.304144e+001
6.276232e+002,2.274585e+001
6.285875e+002,2.421898e+001
6.295517e+002,2.619920e+001
6.305159e+002,2.724991e+001
6.314802e+002,2.658537e+001
6.324444e+002,2.486795e+001
6.334086e+002,2.417705e+001
6.343729e+002,2.419461e+001
6.353371e+002,2.359328e+001
6.363013e+002,2.174435e+001
6.372656e+002,1.908327e+001
6.382298e+002,1.725443e+001
6.391940e+002,1.662680e+001
6.401583e+002,1.647485e+001
6.411225e+002,1.721661e+001
6.420867e+002,1.842506e+001
6.430510e+002,1.963226e+001
6.440152e+002,2.076337e+001
6.449794e+002,2.129579e+001
6.459437e+002,2.113782e+001
6.469079e+002,2.035252e+001
6.478721e+002,1.857234e+001
6.488364e+002,1.591920e+001
6.498006e+002,1.341209e+001
6.507648e+002,1.306943e+001
6.517291e+002,1.419374e+001
6.526933e+002,1.531454e+001
6.536575e+002,1.616850e+001
6.546218e+002,1.679680e+001
6.555860e+002,1.726067e+001
6.565502e+002,1.725481e+001
6.575145e+002,1.779326e+001
6.584787e+002,1.972623e+001
6.594429e+002,2.148447e+001
6.604072e+002,2.148900e+001
6.613714e+002,1.930746e+001
6.623356e+002,1.770279e+001
6.632999e+002,1.909288e+001
6.642641e+002,2.030710e+001
6.652283e+002,1.933162e+001
6.661926e+002,1.642279e+001
6.671568e+002,1.344513e+001
6.681210e+002,1.247543e+001
6.690853e+002,1.319635e+001
6.700495e+002,1.472954e+001
6.710137e+002,1.696321e+001
6.719780e+002,1.899374e+001
6.729422e+002,1.985268e+001
6.739064e+002,1.931912e+001
6.748707e+002,1.850444e+001
6.758349e+002,1.670305e+001
6.767991e+002,1.544124e+001
6.777634e+002,1.594377e+001
6.787276e+002,1.796609e+001
6.796918e+002,1.920308e+001
6.806561e+002,1.749194e+001
6.816203e+002,1.609033e+001
6.825845e+002,1.671829e+001
6.835488e+002,1.844496e+001
6.845130e+002,1.973814e+001
6.854772e+002,1.950699e+001
6.864415e+002,1.813948e+001
6.874057e+002,1.556448e+001
6.883699e+002,1.239314e+001
6.893342e+002,1.097081e+001
6.902984e+002,1.281781e+001
6.912626e+002,1.729224e+001
6.922269e+002,1.971567e+001
6.931911e+002,1.868018e+001
6.941553e+002,1.775667e+001
6.951196e+002,1.674173e+001
6.960838e+002,1.593266e+001
6.970480e+002,1.610234e+001
6.980123e+002,1.809824e+001
6.989765e+002,1.943115e+001
6.999407e+002,1.848045e+001
7.009050e+002,1.699649e+001
7.018692e+002,1.651973e+001
7.028334e+002,1.746071e+001
7.037977e+002,1.867508e+001
7.047619e+002,1.823721e+001
7.057261e+002,1.689967e+001
7.066904e+002,1.585910e+001
7.076546e+002,1.530443e+001
7.086188e+002,1.542763e+001
7.095831e+002,1.666191e+001
7.105473e+002,1.974017e+001
7.115115e+002,2.128424e+001
7.124758e+002,2.091980e+001
7.134400e+002,1.971072e+001
7.144042e+002,1.790790e+001
7.153685e+002,1.564771e+001
7.163327e+002,1.407654e+001
7.172969e+002,1.453113e+001
7.182612e+002,1.510693e+001
7.192254e+002,1.477037e+001
7.201896e+002,1.389589e+001
7.211539e+002,1.353561e+001
7.221181e+002,1.468076e+001
7.230823e+002,1.652322e+001
7.240466e+002,1.680649e+001
7.250108e+002,1.594102e+001
7.259750e+002,1.501138e+001
7.269393e+002,1.452328e+001
7.279035e+002,1.433717e+001
7.288677e+002,1.418674e+001
7.298320e+002,1.408124e+001
7.307962e+002,1.447852e+001
7.317604e+002,1.569528e+001
7.327247e+002,1.735269e+001
7.336889e+002,1.902313e+001
7.346531e+002,2.068591e+001
7.356174e+002,2.128546e+001
7.365816e+002,1.991266e+001
7.375458e+002,1.808459e+001
7.385101e+002,1.681200e+001
7.394743e+002,1.641211e+001
7.404385e+002,1.658194e+001
7.414028e+002,1.695749e+001
7.423670e+002,1.725859e+001
7.433312e+002,1.710500e+001
7.442955e+002,1.655750e+001
7.452597e+002,1.636195e+001
7.462239e+002,1.743042e+001
7.471882e+002,2.015649e+001
7.481524e+002,2.220547e+001
7.491166e+002,2.353220e+001
7.500809e+002,2.408324e+001
7.510451e+002,2.364055e+001
7.520093e+002,2.237523e+001
7.529736e+002,2.079181e+001
7.539378e+002,1.894322e+001
7.549020e+002,1.741072e+001
7.558663e+002,1.615939e+001
7.568306e+002,1.546455e+001
7.577948e+002,1.599663e+001
7.587590e+002,1.801448e+001
7.597233e+002,2.059250e+001
7.606875e+002,2.098091e+001
7.616517e+002,1.952448e+001
7.626160e+002,1.777487e+001
7.635802e+002,1.584760e+001
7.645444e+002,1.413959e+001
7.655087e+002,1.356583e+001
7.664729e+002,1.476706e+001
7.674371e+002,1.569455e+001
7.684014e+002,1.584976e+001
7.693656e+002,1.603630e+001
7.703298e+002,1.713155e+001
7.712941e+002,1.907784e+001
7.722583e+002,2.039200e+001
7.732225e+002,1.954366e+001
7.741868e+002,1.795265e+001
7.751510e+002,1.608226e+001
7.761152e+002,1.445645e+001
7.770795e+002,1.408998e+001
7.780437e+002,1.589258e+001
7.790079e+002,1.943863e+001
7.799722e+002,2.119174e+001
7.809364e+002,2.109514e+001
7.819006e+002,2.092401e+001
7.828649e+002,2.175664e+001
7.838291e+002,2.314954e+001
7.847933e+002,2.328110e+001
7.857576e+002,2.065929e+001
7.867218e+002,1.890811e+001
7.876860e+002,1.955894e+001
7.886503e+002,2.076929e+001
7.896145e+002,2.063676e+001
7.905787e+002,1.879659e+001
7.915430e+002,1.734161e+001
7.925072e+002,1.930960e+001
7.934714e+002,2.225316e+001
7.944357e+002,2.352794e+001
7.953999e+002,2.314262e+001
7.963641e+002,2.250121e+001
7.973284e+002,2.318581e+001
7.982926e+002,2.535831e+001
7.992568e+002,2.552328e+001
8.002211e+002,2.240103e+001
8.011853e+002,1.954686e+001
8.021495e+002,1.860155e+001
8.031138e+002,1.927321e+001
8.040780e+002,1.999756e+001
8.050422e+002,2.030345e+001
8.060065e+002,2.065852e+001
8.069707e+002,2.123096e+001
8.079349e+002,2.178209e+001
8.088992e+002,2.216389e+001
8.098634e+002,2.235246e+001
8.108276e+002,2.237102e+001
8.117919e+002,2.195445e+001
8.127561e+002,2.122937e+001
8.137203e+002,2.076399e+001
8.146846e+002,2.074638e+001
8.156488e+002,2.127811e+001
8.166130e+002,2.254144e+001
8.175773e+002,2.484625e+001
8.185415e+002,2.577298e+001
8.195057e+002,2.408327e+001
8.204700e+002,2.261163e+001
8.214342e+002,2.298871e+001
8.223984e+002,2.430376e+001
8.233627e+002,2.377496e+001
8.243269e+002,1.913412e+001
8.252911e+002,1.535277e+001
8.262554e+002,1.547981e+001
8.272196e+002,1.752504e+001
8.281838e+002,1.968506e+001
8.291481e+002,2.116011e+001
8.301123e+002,2.228751e+001
8.310765e+002,2.378958e+001
8.320408e+002,2.541417e+001
8.330050e+002,2.535500e+001
8.339692e+002,2.316197e+001
8.349335e+002,2.046846e+001
8.358977e+002,1.888863e+001
8.368619e+002,1.856471e+001
8.378262e+002,1.873949e+001
8.387904e+002,2.012129e+001
8.397546e+002,2.096707e+001
8.407189e+002,2.020241e+001
8.416831e+002,1.878452e+001
8.426473e+002,1.857732e+001
8.436116e+002,2.068861e+001
8.445758e+002,2.303424e+001
8.455400e+002,2.310521e+001
8.465043e+002,2.206581e+001
8.474685e+002,2.116412e+001
8.484327e+002,2.090387e+001
8.493970e+002,2.118758e+001
8.503612e+002,2.172902e+001
8.513254e+002,2.252147e+001
8.522897e+002,2.337386e+001
8.532539e+002,2.423857e+001
8.542181e+002,2.507176e+001
8.551824e+002,2.626715e+001
8.561466e+002,2.778656e+001
8.571108e+002,2.831879e+001
8.580751e+002,2.585020e+001
8.590393e+002,2.415732e+001
8.600035e+002,2.532858e+001
8.609678e+002,2.760735e+001
8.619320e+002,2.888112e+001
8.628962e+002,2.831564e+001
8.638605e+002,2.709578e+001
8.648247e+002,2.692561e+001
8.657889e+002,2.747441e+001
8.667532e+002,2.825465e+001
8.677174e+002,2.919826e+001
8.686816e+002,2.991411e+001
8.696459e+002,2.985081e+001
8.706101e+002,2.883269e+001
8.715743e+002,2.884830e+001
8.725386e+002,3.103339e+001
8.735028e+002,3.273509e+001
8.744670e+002,3.285985e+001
8.754313e+002,3.199869e+001
8.763955e+002,3.135107e+001
8.773597e+002,3.130940e+001
8.783240e+002,3.172697e+001
8.792882e+002,3.265805e+001
8.802524e+002,3.372949e+001
8.812167e+002,3.488242e+001
8.821809e+002,3.592796e+001
8.831451e+002,3.633311e+001
8.841094e+002,3.531734e+001
8.850736e+002,3.309351e+001
8.860378e+002,3.249864e+001
8.870021e+002,3.358113e+001
8.879663e+002,3.543719e+001
8.889305e+002,3.838184e+001
8.898948e+002,4.186429e+001
8.908590e+002,4.296278e+001
8.918232e+002,3.944116e+001
8.927875e+002,3.707159e+001
8.937517e+002,3.737703e+001
8.947159e+002,3.894238e+001
8.956802e+002,4.102843e+001
8.966444e+002,4.311131e+001
8.976086e+002,4.424966e+001
8.985729e+002,4.300577e+001
8.995371e+002,4.087540e+001
9.005013e+002,4.045128e+001
9.014656e+002,4.155501e+001
9.024298e+002,4.265244e+001
9.033940e+002,4.244302e+001
9.043583e+002,4.114772e+001
9.053225e+002,4.125465e+001
9.062867e+002,4.500476e+001
9.072510e+002,4.704828e+001
9.082152e+002,4.646301e+001
9.091794e+002,4.489523e+001
9.101437e+002,4.373849e+001
9.111079e+002,4.319478e+001
9.120721e+002,4.310880e+001
9.130364e+002,4.422647e+001
9.140006e+002,4.483057e+001
9.149648e+002,4.308438e+001
9.159291e+002,4.023361e+001
9.168933e+002,3.899861e+001
9.178575e+002,4.118933e+001
9.188218e+002,4.540895e+001
9.197860e+002,4.688542e+001
9.207502e+002,4.553896e+001
9.217145e+002,4.429128e+001
9.226787e+002,4.383183e+001
9.236429e+002,4.379752e+001
9.246072e+002,4.379597e+001
9.255714e+002,4.391107e+001
9.265356e+002,4.312994e+001
9.274999e+002,4.006134e+001
9.284641e+002,3.732266e+001
9.294283e+002,3.570760e+001
9.303926e+002,3.518111e+001
9.313568e+002,3.560568e+001
9.323210e+002,3.696150e+001
9.332853e+002,3.855763e+001
9.342495e+002,3.915756e+001
9.352137e+002,3.924529e+001
9.361780e+002,3.989763e+001
9.371422e+002,4.139426e+001
9.381064e+002,4.244772e+001
9.390707e+002,4.094431e+001
9.400349e+002,3.601608e+001
9.409991e+002,3.370340e+001
9.419634e+002,3.578322e+001
9.429276e+002,3.774854e+001
9.438918e+002,3.866132e+001
9.448561e+002,3.869858e+001
9.458203e+002,3.811244e+001
9.467845e+002,3.685675e+001
9.477488e+002,3.572878e+001
9.487130e+002,3.546620e+001
9.496772e+002,3.543253e+001
9.506415e+002,3.507092e+001
9.516057e+002,3.440787e+001
9.525699e+002,3.386978e+001
9.535342e+002,3.386157e+001
9.544984e+002,3.427428e+001
9.554626e+002,3.458707e+001
9.564269e+002,3.505235e+001
9.573911e+002,3.515958e+001
9.583553e+002,3.460805e+001
9.593196e+002,3.362036e+001
9.602838e+002,3.237181e+001
9.612480e+002,3.056981e+001
9.622123e+002,2.965755e+001
9.631765e+002,3.101024e+001
9.641407e+002,3.243222e+001
9.651050e+002,3.315535e+001
9.660692e+002,3.301311e+001
9.670334e+002,3.186237e+001
9.679977e+002,2.963580e+001
9.689619e+002,2.721895e+001
9.699261e+002,2.641762e+001
9.708904e+002,2.676231e+001
9.718546e+002,2.740407e+001
9.728188e+002,2.811205e+001
9.737831e+002,2.909387e+001
9.747473e+002,3.090425e+001
9.757115e+002,3.391803e+001
9.766758e+002,3.588216e+001
9.776400e+002,3.707251e+001
9.786042e+002,3.704102e+001
9.795685e+002,3.464215e+001
9.805327e+002,3.123154e+001
9.814969e+002,2.862177e+001
9.824612e+002,2.748676e+001
9.834254e+002,2.700209e+001
9.843896e+002,2.624556e+001
9.853539e+002,2.563278e+001
9.863181e+002,2.579245e+001
9.872823e+002,2.658676e+001
9.882466e+002,2.750183e+001
9.892108e+002,2.821399e+001
9.901750e+002,2.884987e+001
9.911393e+002,2.925948e+001
9.921035e+002,2.925307e+001
9.930677e+002,2.867421e+001
9.940320e+002,2.669452e+001
9.949962e+002,2.496915e+001
9.959604e+002,2.509865e+001
9.969247e+002,2.717473e+001
9.978889e+002,3.002713e+001
9.988531e+002,3.437793e+001
9.998174e+002,3.739865e+001
1.000782e+003,3.656781e+001
1.001746e+003,3.389259e+001
1.002710e+003,3.233612e+001
1.003674e+003,3.312167e+001
1.004639e+003,3.493283e+001
1.005603e+003,3.547101e+001
1.006567e+003,3.454480e+001
1.007531e+003,3.366380e+001
1.008495e+003,3.272495e+001
1.009460e+003,3.204604e+001
1.010424e+003,3.222176e+001
1.011388e+003,3.291859e+001
1.012352e+003,3.259630e+001
1.013317e+003,3.051834e+001
1.014281e+003,2.836671e+001
1.015245e+003,2.601750e+001
1.016209e+003,2.423770e+001
1.017174e+003,2.413057e+001
1.018138e+003,2.530165e+001
1.019102e+003,2.606641e+001
1.020066e+003,2.500441e+001
1.021031e+003,2.290436e+001
1.021995e+003,2.204550e+001
1.022959e+003,2.203300e+001
1.023923e+003,2.125626e+001
1.024887e+003,1.885133e+001
1.025852e+003,1.599173e+001
1.026816e+003,1.465018e+001
1.027780e+003,1.522568e+001
1.028744e+003,1.581407e+001
1.029709e+003,1.584850e+001
1.030673e+003,1.634024e+001
1.031637e+003,1.850880e+001
1.032601e+003,2.088016e+001
1.033566e+003,2.109557e+001
1.034530e+003,1.843175e+001
1.035494e+003,1.538980e+001
1.036458e+003,1.483334e+001
1.037422e+003,1.555211e+001
1.038387e+003,1.542709e+001
1.039351e+003,1.444933e+001
1.040315e+003,1.370386e+001
1.041279e+003,1.407118e+001
1.042244e+003,1.533800e+001
1.043208e+003,1.628230e+001
1.044172e+003,1.685860e+001
1.045136e+003,1.689075e+001
1.046101e+003,1.582318e+001
1.047065e+003,1.488985e+001
1.048029e+003,1.496429e+001
1.048993e+003,1.585648e+001
1.049958e+003,1.676306e+001
1.050922e+003,1.743695e+001
1.051886e+003,1.786780e+001
1.052850e+003,1.801823e+001
1.053814e+003,1.793857e+001
1.054779e+003,1.762872e+001
1.055743e+003,1.709569e+001
1.056707e+003,1.641699e+001
1.057671e+003,1.567967e+001
1.058636e+003,1.486281e+001
1.059600e+003,1.419678e+001
1.060564e+003,1.353348e+001
1.061528e+003,1.345399e+001
1.062493e+003,1.421700e+001
1.063457e+003,1.530864e+001
1.064421e+003,1.656013e+001
1.065385e+003,1.794060e+001
1.066349e+003,1.826289e+001
1.067314e+003,1.602419e+001
1.068278e+003,1.358917e+001
1.069242e+003,1.234384e+001
1.070206e+003,1.218011e+001
1.071171e+003,1.314929e+001
1.072135e+003,1.503935e+001
1.073099e+003,1.682416e+001
1.074063e+003,1.675548e+001
1.075028e+003,1.460095e+001
1.075992e+003,1.415410e+001
1.076956e+003,1.645244e+001
1.077920e+003,1.824910e+001
1.078885e+003,1.802527e+001
1.079849e+003,1.678255e+001
1.080813e+003,1.643282e+001
1.081777e+003,1.746341e+001
1.082741e+003,1.816504e+001
1.083706e+003,1.666965e+001
1.084670e+003,1.529257e+001
1.085634e+003,1.580128e+001
1.086598e+003,1.736122e+001
1.087563e+003,1.809311e+001
1.088527e+003,1.705482e+001
1.089491e+003,1.534253e+001
1.090455e+003,1.501279e+001
1.091420e+003,1.618063e+001
1.092384e+003,1.686409e+001
1.093348e+003,1.710081e+001
1.094312e+003,1.668825e+001
1.095276e+003,1.486491e+001
1.096241e+003,1.243111e+001
1.097205e+003,1.205147e+001
1.098169e+003,1.503922e+001
1.099133e+003,1.690814e+001
1.100098e+003,1.507857e+001
1.101062e+003,1.262357e+001
1.102026e+003,1.110333e+001
1.102990e+003,1.063718e+001
1.103955e+003,1.078859e+001
1.104919e+003,1.126781e+001
1.105883e+003,1.214830e+001
1.106847e+003,1.387039e+001
1.107812e+003,1.638956e+001
1.108776e+003,1.756163e+001
1.109740e+003,1.667883e+001
1.110704e+003,1.573906e+001
1.111668e+003,1.668533e+001
1.112633e+003,1.896346e+001
1.113597e+003,1.971794e+001
1.114561e+003,1.789360e+001
1.115525e+003,1.619214e+001
1.116490e+003,1.517676e+001
1.117454e+003,1.475992e+001
1.118418e+003,1.519685e+001
1.119382e+003,1.626950e+001
1.120347e+003,1.747922e+001
1.121311e+003,1.844704e+001
1.122275e+003,1.910330e+001
1.123239e+003,1.960770e+001
1.124203e+003,2.002512e+001
1.125168e+003,1.979640e+001
1.126132e+003,1.860730e+001
1.127096e+003,1.755505e+001
1.128060e+003,1.752242e+001
1.129025e+003,1.827570e+001
1.129989e+003,1.875754e+001
1.130953e+003,1.836076e+001
1.131917e+003,1.890077e+001
1.132882e+003,2.224622e+001
1.133846e+003,2.528107e+001
1.134810e+003,2.580949e+001
1.135774e+003,2.445447e+001
1.136739e+003,2.291158e+001
1.137703e+003,2.215608e+001
1.138667e+003,2.217239e+001
1.139631e+003,2.316934e+001
1.140595e+003,2.501280e+001
1.141560e+003,2.645868e+001
1.142524e+003,2.735840e+001
1.143488e+003,2.847372e+001
1.144452e+003,3.007008e+001
1.145417e+003,3.224817e+001
1.146381e+003,3.549663e+001
1.147345e+003,4.017719e+001
1.148309e+003,4.492076e+001
1.149274e+003,4.913924e+001
1.150238e+003,5.366962e+001
1.151202e+003,5.945615e+001
1.152166e+003,6.586095e+001
1.153130e+003,7.179091e+001
1.154095e+003,7.660365e+001
1.155059e+003,8.017781e+001
1.156023e+003,8.259845e+001
1.156987e+003,8.366263e+001
1.157952e+003,8.270993e+001
1.158916e+003,7.980843e+001
1.159880e+003,7.573451e+001
1.160844e+003,7.008452e+001
1.161809e+003,6.343599e+001
1.162773e+003,5.735202e+001
1.163737e+003,5.186420e+001
1.164701e+003,4.685628e+001
1.165666e+003,4.224974e+001
1.166630e+003,3.835060e+001
1.167594e+003,3.533553e+001
1.168558e+003,3.306110e+001
1.169522e+003,3.128877e+001
1.170487e+003,2.998361e+001
1.171451e+003,2.961365e+001
1.172415e+003,3.095230e+001
1.173379e+003,3.331084e+001
1.174344e+003,3.294662e+001
1.175308e+003,2.983293e+001
1.176272e+003,2.678807e+001
1.177236e+003,2.437305e+001
1.178201e+003,2.277968e+001
1.179165e+003,2.246944e+001
1.180129e+003,2.339655e+001
1.181093e+003,2.395042e+001
1.182057e+003,2.380362e+001
1.183022e+003,2.330731e+001
1.183986e+003,2.246162e+001
1.184950e+003,2.149042e+001
1.185914e+003,2.047656e+001
1.186879e+003,1.956508e+001
1.187843e+003,1.892691e+001
1.188807e+003,1.865794e+001
1.189771e+003,1.895992e+001
1.190736e+003,2.108679e+001
1.191700e+003,2.546437e+001
1.192664e+003,2.652995e+001
1.193628e+003,2.147630e+001
1.194593e+003,1.617953e+001
1.195557e+003,1.510860e+001
1.196521e+003,1.715919e+001
1.197485e+003,1.846471e+001
1.198449e+003,1.824449e+001
1.199414e+003,1.800475e+001
1.200378e+003,1.898380e+001
1.201342e+003,1.968053e+001
1.202306e+003,1.865271e+001
1.203271e+003,1.659250e+001
1.204235e+003,1.524092e+001
1.205199e+003,1.539626e+001
1.206163e+003,1.596965e+001
1.207128e+003,1.505946e+001
1.208092e+003,1.256874e+001
1.209056e+003,1.087828e+001
1.210020e+003,1.012355e+001
1.210984e+003,9.718430e+000
1.211949e+003,1.003772e+001
1.212913e+003,1.024541e+001
1.213877e+003,8.966614e+000
1.214841e+003,6.209381e+000
1.215806e+003,4.108353e+000
1.216770e+003,3.781372e+000
1.217734e+003,3.819275e+000
1.218698e+003,3.233505e+000
1.219663e+003,2.315353e+000
1.220627e+003,1.289337e+000
1.221591e+003,3.150940e-001
1.222555e+003,-2.975006e-001
1.223520e+003,-2.272186e-001
1.224484e+003,3.660431e-001
1.225448e+003,5.591278e-001
1.226412e+003,2.132721e-001
1.227376e+003,-3.386841e-001
1.228341e+003,-1.601715e+000
1.229305e+003,-2.556763e+000
1.230269e+003,-2.482147e+000
1.231233e+003,-1.761841e+000
1.232198e+003,-1.101395e+000
1.233162e+003,-6.333771e-001
1.234126e+003,-3.423767e-001
1.235090e+003,-2.486877e-001
1.236055e+003,-4.407043e-001
1.237019e+003,-1.434204e+000
1.237983e+003,-2.751205e+000
1.238947e+003,-2.844238e+000
1.239911e+003,-1.056229e+000
1.240876e+003,1.072754e+000
1.241840e+003,1.046158e+000
1.242804e+003,-1.320084e+000
1.243768e+003,-2.352264e+000
1.244733e+003,-2.465973e-001
1.245697e+003,8.249054e-001
1.246661e+003,-4.364929e-001
1.247625e+003,-2.084534e+000
1.248590e+003,-2.538071e+000
1.249554e+003,-1.965668e+000
1.250518e+003,-1.560806e+000
1.251482e+003,-1.930237e+000
1.252447e+003,-2.364624e+000
1.253411e+003,-1.849854e+000
1.254375e+003,-7.424469e-001
1.255339e+003,1.929626e-001
1.256303e+003,9.429932e-001
1.257268e+003,1.485687e+000
1.258232e+003,1.751678e+000
1.259196e+003,1.694717e+000
1.260160e+003,1.153702e+000
1.261125e+003,-6.591797e-003
1.262089e+003,-3.325806e-001
1.263053e+003,1.094055e+000
1.264017e+003,2.280060e+000
1.264982e+003,2.230789e+000
1.265946e+003,2.181427e+000
1.266910e+003,3.728790e+000
1.267874e+003,6.514328e+000
1.268839e+003,8.808578e+000
1.269803e+003,9.476120e+000
1.270767e+003,8.746078e+000
1.271731e+003,6.612762e+000
1.272695e+003,3.242096e+000
1.273660e+003,1.613510e+000
1.274624e+003,2.174438e+000
1.275588e+003,3.140182e+000
1.276552e+003,4.158646e+000
1.277517e+003,4.845459e+000
1.278481e+003,3.962601e+000
1.279445e+003,1.235733e+000
1.280409e+003,-3.623810e-001
1.281374e+003,1.235519e+000
1.282338e+003,2.700211e+000
1.283302e+003,1.754654e+000
1.284266e+003,6.306458e-002
1.285230e+003,-3.828888e-001
1.286195e+003,5.946503e-001
1.287159e+003,1.889465e+000
1.288123e+003,2.628082e+000
1.289087e+003,2.852463e+000
1.290052e+003,2.520111e+000
1.291016e+003,1.382080e+000
1.291980e+003,3.018036e-001
1.292944e+003,-1.173599e+000
1.293909e+003,-2.161346e+000
1.294873e+003,-2.137054e+000
1.295837e+003,-1.418793e+000
1.296801e+003,-9.075928e-002
1.297766e+003,1.677841e+000
1.298730e+003,2.471176e+000
1.299694e+003,1.108932e+000
1.300658e+003,-8.273315e-001
1.301622e+003,-1.657471e+000
1.302587e+003,-1.762222e+000
1.303551e+003,-1.588165e+000
1.304515e+003,-1.247513e+000
1.305479e+003,-1.055115e+000
1.306444e+003,-1.393600e+000
1.307408e+003,-1.997681e+000
1.308372e+003,-1.719711e+000
1.309336e+003,-1.095581e-002
1.310301e+003,8.489075e-001
1.311265e+003,2.775116e-001
1.312229e+003,-4.665070e-001
1.313193e+003,-1.422928e+000
1.314157e+003,-2.143906e+000
1.315122e+003,-1.907593e+000
1.316086e+003,-9.311066e-001
1.317050e+003,-4.309540e-001
1.318014e+003,-1.223618e+000
1.318979e+003,-2.388870e+000
1.319943e+003,-2.155991e+000
1.320907e+003,-7.141571e-001
1.321871e+003,-2.098541e-001
1.322836e+003,-1.087555e+000
1.323800e+003,-1.955704e+000
1.324764e+003,-2.276062e+000
1.325728e+003,-2.001495e+000
1.326693e+003,-6.093597e-001
1.327657e+003,1.906586e+000
1.328621e+003,2.778687e+000
1.329585e+003,1.139832e-002
1.330549e+003,-1.921890e+000
1.331514e+003,5.165100e-002
1.332478e+003,2.906631e+000
1.333442e+003,3.733994e+000
1.334406e+003,2.671799e+000
1.335371e+003,1.578812e+000
1.336335e+003,1.581604e+000
1.337299e+003,2.014526e+000
1.338263e+003,1.536301e+000
1.339228e+003,-3.179932e-002
1.340192e+003,-7.906342e-001
1.341156e+003,-5.696106e-002
1.342120e+003,4.102936e-001
1.343084e+003,1.151428e-001
1.344049e+003,-4.381409e-001
1.345013e+003,-9.904633e-001
1.345977e+003,-1.324493e+000
1.346941e+003,-9.238892e-001
1.347906e+003,4.436646e-001
1.348870e+003,1.730606e+000
1.349834e+003,1.934723e+000
1.350798e+003,1.362808e+000
1.351763e+003,5.574799e-001
1.352727e+003,-3.512573e-001
1.353691e+003,-7.176819e-001
1.354655e+003,-2.148743e-001
1.355620e+003,6.016235e-001
1.356584e+003,1.141235e+000
1.357548e+003,1.447815e+000
1.358512e+003,1.730835e+000
1.359476e+003,2.063492e+000
1.360441e+003,1.928024e+000
1.361405e+003,7.845612e-001
1.362369e+003,-3.193054e-001
1.363333e+003,-1.113007e+000
1.364298e+003,-1.423950e+000
1.365262e+003,-8.842621e-001
1.366226e+003,4.180756e-001
1.367190e+003,1.810776e+000
1.368155e+003,2.703354e+000
1.369119e+003,3.121658e+000
1.370083e+003,3.116898e+000
1.371047e+003,2.564774e+000
1.372011e+003,2.278336e+000
1.372976e+003,2.656036e+000
1.373940e+003,2.604721e+000
1.374904e+003,1.112411e+000
1.375868e+003,-5.697174e-001
1.376833e+003,-6.895294e-001
1.377797e+003,6.867981e-001
1.378761e+003,2.057373e+000
1.379725e+003,2.955063e+000
1.380690e+003,3.210815e+000
1.381654e+003,2.087616e+000
1.382618e+003,5.095215e-001
1.383582e+003,-3.970184e-001
1.384547e+003,-5.394897e-001
1.385511e+003,9.242249e-002
1.386475e+003,1.671265e+000
1.387439e+003,3.336441e+000
1.388403e+003,3.580017e+000
1.389368e+003,2.400192e+000
1.390332e+003,1.943329e+000
1.391296e+003,2.921814e+000
1.392260e+003,3.385300e+000
1.393225e+003,1.904510e+000
1.394189e+003,8.526306e-001
1.395153e+003,2.307358e+000
1.396117e+003,4.778717e+000
1.397082e+003,5.752289e+000
1.398046e+003,4.719345e+000
1.399010e+003,3.307693e+000
1.399974e+003,2.961624e+000
1.400938e+003,3.240433e+000
1.401903e+003,2.969955e+000
1.402867e+003,2.096924e+000
1.403831e+003,1.864929e+000
1.404795e+003,2.203400e+000
1.405760e+003,3.044418e+000
1.406724e+003,5.125580e+000
1.407688e+003,6.923004e+000
1.408652e+003,6.414719e+000
1.409617e+003,3.975098e+000
1.410581e+003,1.858688e+000
1.411545e+003,8.963165e-001
1.412509e+003,7.295074e-001
1.413474e+003,1.289474e+000
1.414438e+003,2.176285e+000
1.415402e+003,3.159012e+000
1.416366e+003,4.129349e+000
1.417330e+003,4.006241e+000
1.418295e+003,2.055725e+000
1.419259e+003,6.906128e-002
1.420223e+003,4.930115e-001
1.421187e+003,2.786270e+000
1.422152e+003,3.604416e+000
1.423116e+003,2.278809e+000
1.424080e+003,1.746262e+000
1.425044e+003,3.906967e+000
1.426009e+003,5.666275e+000
1.426973e+003,5.304520e+000
1.427937e+003,4.084854e+000
1.428901e+003,3.511749e+000
1.429865e+003,3.809540e+000
1.430830e+003,4.397324e+000
1.431794e+003,4.844437e+000
1.432758e+003,5.125534e+000
1.433722e+003,5.286148e+000
1.434687e+003,5.438751e+000
1.435651e+003,5.460266e+000
1.436615e+003,5.284592e+000
1.437579e+003,4.564743e+000
1.438544e+003,2.417023e+000
1.439508e+003,6.578217e-001
1.440472e+003,6.674652e-001
1.441436e+003,1.982132e+000
1.442401e+003,3.825653e+000
1.443365e+003,5.831604e+000
1.444329e+003,7.134598e+000
1.445293e+003,6.948151e+000
1.446257e+003,6.203171e+000
1.447222e+003,6.941620e+000
1.448186e+003,8.727951e+000
1.449150e+003,8.992004e+000
1.450114e+003,7.090271e+000
1.451079e+003,5.309067e+000
1.452043e+003,4.792465e+000
1.453007e+003,5.153671e+000
1.453971e+003,6.233093e+000
1.454936e+003,7.785904e+000
1.455900e+003,8.212448e+000
1.456864e+003,6.902451e+000
1.457828e+003,5.565430e+000
1.458792e+003,4.932236e+000
1.459757e+003,4.826584e+000
1.460721e+003,5.448624e+000
1.461685e+003,6.399399e+000
1.462649e+003,6.922348e+000
1.463614e+003,6.862320e+000
1.464578e+003,6.633041e+000
1.465542e+003,6.558533e+000
1.466506e+003,6.554230e+000
1.467471e+003,6.499878e+000
1.468435e+003,6.530502e+000
1.469399e+003,6.248718e+000
1.470363e+003,4.789841e+000
1.471328e+003,4.070251e+000
1.472292e+003,5.097458e+000
1.473256e+003,6.277267e+000
1.474220e+003,6.500229e+000
1.475184e+003,6.124405e+000
1.476149e+003,5.973572e+000
1.477113e+003,6.268448e+000
1.478077e+003,6.592941e+000
1.479041e+003,6.599655e+000
1.480006e+003,6.467529e+000
1.480970e+003,6.652267e+000
1.481934e+003,7.223282e+000
1.482898e+003,7.463318e+000
1.483863e+003,6.928314e+000
1.484827e+003,6.687851e+000
1.485791e+003,7.267563e+000
1.486755e+003,8.169601e+000
1.487719e+003,8.949722e+000
1.488684e+003,9.568405e+000
1.489648e+003,1.021022e+001
1.490612e+003,1.096019e+001
1.491576e+003,1.145335e+001
1.492541e+003,1.113379e+001
1.493505e+003,1.071538e+001
1.494469e+003,1.230670e+001
1.495433e+003,1.537485e+001
1.496398e+003,1.688988e+001
1.497362e+003,1.614531e+001
1.498326e+003,1.539543e+001
1.499290e+003,1.569254e+001
1.500255e+003,1.668993e+001
1.501219e+003,1.788968e+001
1.502183e+003,1.931276e+001
1.503147e+003,2.143790e+001
1.504111e+003,2.454965e+001
1.505076e+003,2.739680e+001
1.506040e+003,2.885509e+001
1.507004e+003,3.019740e+001
1.507968e+003,3.253290e+001
1.508933e+003,3.573868e+001
1.509897e+003,3.965633e+001
1.510861e+003,4.433287e+001
1.511825e+003,4.951082e+001
1.512790e+003,5.500230e+001
1.513754e+003,6.065524e+001
1.514718e+003,6.627184e+001
1.515682e+003,7.177600e+001
1.516646e+003,7.750916e+001
1.517611e+003,8.384250e+001
1.518575e+003,8.979001e+001
1.519539e+003,9.653378e+001
1.520503e+003,1.014134e+002
1.521468e+003,1.021916e+002
1.522432e+003,1.005480e+002
1.523396e+003,9.856789e+001
1.524360e+003,9.678383e+001
1.525325e+003,9.491049e+001
1.526289e+003,9.279196e+001
1.527253e+003,9.041708e+001
1.528217e+003,8.785606e+001
1.529182e+003,8.519315e+001
1.530146e+003,8.047961e+001
1.531110e+003,7.206946e+001
1.532074e+003,6.449948e+001
1.533039e+003,5.839351e+001
1.534003e+003,5.243651e+001
1.534967e+003,4.625871e+001
1.535931e+003,4.008684e+001
1.536896e+003,3.376399e+001
1.537860e+003,2.772655e+001
1.538824e+003,2.308427e+001
1.539788e+003,2.032152e+001
1.540752e+003,1.853290e+001
1.541717e+003,1.658395e+001
1.542681e+003,1.464008e+001
1.543645e+003,1.349814e+001
1.544609e+003,1.364577e+001
1.545573e+003,1.359300e+001
1.546538e+003,1.286818e+001
1.547502e+003,1.234949e+001
1.548466e+003,1.270940e+001
1.549430e+003,1.333183e+001
1.550395e+003,1.352625e+001
1.551359e+003,1.330850e+001
1.552323e+003,1.306335e+001
1.553287e+003,1.293225e+001
1.554252e+003,1.266966e+001
1.555216e+003,1.200125e+001
1.556180e+003,1.118359e+001
1.557144e+003,1.087662e+001
1.558109e+003,1.113179e+001
1.559073e+003,1.122719e+001
1.560037e+003,1.111534e+001
1.561001e+003,1.066162e+001
1.561966e+003,9.747940e+000
1.562930e+003,8.748764e+000
1.563894e+003,7.655426e+000
1.564858e+003,6.735733e+000
1.565823e+003,6.817856e+000
1.566787e+003,7.983383e+000
1.567751e+003,9.047577e+000
1.568715e+003,9.334503e+000
1.569679e+003,9.389374e+000
1.570644e+003,9.880753e+000
1.571608e+003,1.059305e+001
1.572572e+003,1.089897e+001
1.573536e+003,1.080678e+001
1.574500e+003,1.142325e+001
1.575465e+003,1.381531e+001
1.576429e+003,1.583995e+001
1.577393e+003,1.543524e+001
1.578357e+003,1.353708e+001
1.579322e+003,1.168536e+001
1.580286e+003,1.011612e+001
1.581250e+003,9.754196e+000
1.582214e+003,1.123012e+001
1.583179e+003,1.260371e+001
1.584143e+003,1.206235e+001
1.585107e+003,1.091736e+001
1.586071e+003,1.121881e+001
1.587036e+003,1.255623e+001
1.588000e+003,1.343434e+001
1.588964e+003,1.348921e+001
1.589928e+003,1.293675e+001
1.590893e+003,1.137135e+001
1.591857e+003,9.834854e+000
1.592821e+003,1.012444e+001
1.593785e+003,1.195258e+001
1.594750e+003,1.360370e+001
1.595714e+003,1.485056e+001
1.596678e+003,1.584190e+001
1.597642e+003,1.667781e+001
1.598606e+003,1.722481e+001
1.599571e+003,1.731409e+001
1.600535e+003,1.716594e+001
1.601499e+003,1.682533e+001
1.602463e+003,1.643277e+001
1.603427e+003,1.672690e+001
1.604392e+003,1.811813e+001
1.605356e+003,1.942307e+001
1.606320e+003,1.924400e+001
1.607284e+003,1.812778e+001
1.608249e+003,1.771999e+001
1.609213e+003,1.805833e+001
1.610177e+003,1.784647e+001
1.611141e+003,1.636533e+001
1.612106e+003,1.559789e+001
1.613070e+003,1.750807e+001
1.614034e+003,1.954892e+001
1.614998e+003,1.967027e+001
1.615963e+003,1.873389e+001
1.616927e+003,1.833089e+001
1.617891e+003,1.863734e+001
1.618855e+003,1.865337e+001
1.619820e+003,1.768346e+001
1.620784e+003,1.645766e+001
1.621748e+003,1.611049e+001
1.622712e+003,1.664912e+001
1.623677e+003,1.771687e+001
1.624641e+003,1.957306e+001
1.625605e+003,2.038965e+001
1.626569e+003,1.888657e+001
1.627533e+003,1.738722e+001
1.628498e+003,1.722250e+001
1.629462e+003,1.752760e+001
1.630426e+003,1.749110e+001
1.631390e+003,1.731795e+001
1.632354e+003,1.757185e+001
1.633319e+003,1.839029e+001
1.634283e+003,1.974272e+001
1.635247e+003,2.188547e+001
1.636211e+003,2.363863e+001
1.637176e+003,2.218976e+001
1.638140e+003,1.791467e+001
1.639104e+003,1.635088e+001
1.640068e+003,1.843747e+001
1.641033e+003,2.006058e+001
1.641997e+003,2.011505e+001
1.642961e+003,1.972308e+001
1.643925e+003,1.951486e+001
1.644890e+003,1.911826e+001
1.645854e+003,1.761507e+001
1.646818e+003,1.566576e+001
1.647782e+003,1.517998e+001
1.648747e+003,1.664104e+001
1.649711e+003,1.830827e+001
1.650675e+003,1.882616e+001
1.651639e+003,1.860921e+001
1.652604e+003,1.824011e+001
1.653568e+003,1.769963e+001
1.654532e+003,1.777058e+001
1.655496e+003,1.884425e+001
1.656460e+003,1.927690e+001
1.657425e+003,1.846024e+001
1.658389e+003,1.712836e+001
1.659353e+003,1.502454e+001
1.660317e+003,1.312154e+001
1.661281e+003,1.284393e+001
1.662246e+003,1.364345e+001
1.663210e+003,1.360217e+001
1.664174e+003,1.215631e+001
1.665138e+003,1.086751e+001
1.666103e+003,1.106267e+001
1.667067e+003,1.214751e+001
1.668031e+003,1.319218e+001
1.668995e+003,1.416820e+001
1.669960e+003,1.434375e+001
1.670924e+003,1.345044e+001
1.671888e+003,1.275256e+001
1.672852e+003,1.264763e+001
1.673817e+003,1.273759e+001
1.674781e+003,1.259329e+001
1.675745e+003,1.260541e+001
1.676709e+003,1.397734e+001
1.677674e+003,1.585422e+001
1.678638e+003,1.509903e+001
1.679602e+003,1.078677e+001
1.680566e+003,6.954056e+000
1.681531e+003,7.009598e+000
1.682495e+003,9.086731e+000
1.683459e+003,1.019960e+001
1.684423e+003,1.038275e+001
1.685387e+003,9.967010e+000
1.686352e+003,8.899506e+000
1.687316e+003,8.083832e+000
1.688280e+003,7.889069e+000
1.689244e+003,7.845703e+000
1.690208e+003,7.707596e+000
1.691173e+003,7.433929e+000
1.692137e+003,6.690750e+000
1.693101e+003,5.847412e+000
1.694065e+003,6.111862e+000
1.695030e+003,7.768051e+000
1.695994e+003,9.149139e+000
1.696958e+003,9.253464e+000
1.697922e+003,8.599533e+000
1.698887e+003,7.559860e+000
1.699851e+003,6.353287e+000
1.700815e+003,5.709641e+000
1.701779e+003,5.641769e+000
1.702744e+003,5.165726e+000
1.703708e+003,3.853683e+000
1.704672e+003,2.857040e+000
1.705636e+003,2.912308e+000
1.706601e+003,3.677856e+000
1.707565e+003,5.225204e+000
1.708529e+003,7.157776e+000
1.709493e+003,7.944153e+000
1.710458e+003,7.314117e+000
1.711422e+003,6.354095e+000
1.712386e+003,5.059921e+000
1.713350e+003,4.231613e+000
1.714314e+003,4.966232e+000
1.715279e+003,6.198837e+000
1.716243e+003,5.894135e+000
1.717207e+003,4.348724e+000
1.718171e+003,3.834839e+000
1.719135e+003,4.992798e+000
1.720100e+003,5.924759e+000
1.721064e+003,5.278915e+000
1.722028e+003,3.966949e+000
1.722992e+003,3.386337e+000
1.723957e+003,3.402954e+000
1.724921e+003,2.704483e+000
1.725885e+003,9.136505e-001
1.726849e+003,7.237244e-002
1.727814e+003,1.780579e+000
1.728778e+003,2.988480e+000
1.729742e+003,1.483505e+000
1.730706e+003,-3.363190e-001
1.731671e+003,8.895874e-003
1.732635e+003,1.724579e+000
1.733599e+003,3.313126e+000
1.734563e+003,4.306641e+000
1.735528e+003,4.113617e+000
1.736492e+003,2.401093e+000
1.737456e+003,2.041626e-002
1.738420e+003,-2.167450e+000
1.739385e+003,-3.927910e+000
1.740349e+003,-4.137436e+000
1.741313e+003,-2.409424e+000
1.742277e+003,-8.499603e-001
1.743241e+003,1.131622e+000
1.744206e+003,2.153915e+000
1.745170e+003,1.264023e+000
1.746134e+003,2.020874e-001
1.747098e+003,-2.428894e-001
1.748063e+003,-2.301025e-001
1.749027e+003,1.092377e-001
1.749991e+003,6.514740e-001
1.750955e+003,1.330307e+000
1.751919e+003,2.022064e+000
1.752884e+003,2.286682e+000
1.753848e+003,1.748352e+000
1.754812e+003,8.346100e-001
1.755776e+003,4.760590e-001
1.756741e+003,7.032928e-001
1.757705e+003,6.428375e-001
1.758669e+003,-4.623413e-002
1.759633e+003,-1.537323e-001
1.760598e+003,1.077484e+000
1.761562e+003,1.881378e+000
1.762526e+003,1.647675e+000
1.763490e+003,1.035294e+000
1.764455e+003,3.305511e-001
1.765419e+003,-3.305283e-001
1.766383e+003,-9.635620e-001
1.767347e+003,-1.496513e+000
1.768312e+003,-1.510025e+000
1.769276e+003,-8.110809e-001
1.770240e+003,-9.316254e-002
1.771204e+003,-3.526306e-002
1.772168e+003,-3.216095e-001
1.773133e+003,-4.168701e-001
1.774097e+003,-3.225250e-001
1.775061e+003,1.244888e-001
1.776025e+003,1.011536e+000
1.776990e+003,1.105614e+000
1.777954e+003,-4.655914e-001
1.778918e+003,-1.652893e+000
1.779882e+003,-3.397217e-001
1.780846e+003,1.551682e+000
1.781811e+003,1.202171e+000
1.782775e+003,-6.773605e-001
1.783739e+003,-1.829460e+000
1.784703e+003,-1.917709e+000
1.785668e+003,-1.304008e+000
1.786632e+003,6.389160e-001
1.787596e+003,2.049545e+000
1.788560e+003,1.245354e+000
1.789525e+003,-5.186920e-001
1.790489e+003,-1.966713e+000
1.791453e+003,-2.854927e+000
1.792417e+003,-2.633766e+000
1.793382e+003,-1.298820e+000
1.794346e+003,1.349258e-001
1.795310e+003,1.147964e+000
1.796274e+003,1.830978e+000
1.797239e+003,2.367226e+000
1.798203e+003,2.693604e+000
1.799167e+003,2.298607e+000
1.800131e+003,8.869553e-001
1.801095e+003,-1.638489e-001
1.802060e+003,-2.943192e-001
1.803024e+003,-7.449341e-001
1.803988e+003,-2.748245e+000
1.804952e+003,-3.810768e+000
1.805917e+003,-1.805573e+000
1.806881e+003,8.988724e-001
1.807845e+003,1.920860e+000
1.808809e+003,1.711685e+000
1.809773e+003,1.784294e+000
1.810738e+003,2.441895e+000
1.811702e+003,2.876297e+000
1.812666e+003,2.578072e+000
1.813630e+003,1.853256e+000
1.814595e+003,1.000443e+000
1.815559e+003,1.969833e-001
1.816523e+003,4.672165e-001
1.817487e+003,1.991745e+000
1.818452e+003,2.660393e+000
1.819416e+003,2.171043e+000
1.820380e+003,1.559357e+000
1.821344e+003,6.861267e-001
1.822309e+003,2.290268e-001
1.823273e+003,1.106125e+000
1.824237e+003,2.250366e+000
1.825201e+003,2.502388e+000
1.826166e+003,2.065285e+000
1.827130e+003,1.706726e+000
1.828094e+003,1.529343e+000
1.829058e+003,9.194107e-001
1.830022e+003,-7.349930e-001
1.830987e+003,-2.101768e+000
1.831951e+003,-1.533806e+000
1.832915e+003,-4.009323e-001
1.833879e+003,-1.310944e+000
1.834844e+003,-3.318420e+000
1.835808e+003,-2.813385e+000
1.836772e+003,4.150085e-001
1.837736e+003,2.581947e+000
1.838700e+003,1.991852e+000
1.839665e+003,4.525604e-001
1.840629e+003,-4.789810e-001
1.841593e+003,-9.299240e-001
1.842557e+003,-1.226219e+000
1.843522e+003,-1.367195e+000
1.844486e+003,-1.080894e+000
1.845450e+003,3.956909e-001
1.846414e+003,9.486237e-001
1.847379e+003,-5.102997e-001
1.848343e+003,-1.586647e+000
1.849307e+003,-9.897766e-001
1.850271e+003,-3.269501e-001
1.851236e+003,-1.093643e+000
1.852200e+003,-2.274780e+000
1.853164e+003,-2.220078e+000
1.854128e+003,-1.204002e+000
1.855093e+003,-7.721405e-001
1.856057e+003,-1.408806e+000
1.857021e+003,-2.169281e+000
1.857985e+003,-2.346161e+000
1.858949e+003,-2.015244e+000
1.859914e+003,-9.952240e-001
1.860878e+003,4.962540e-001
1.861842e+003,1.064949e+000
1.862806e+003,6.636276e-001
1.863771e+003,1.480331e-001
1.864735e+003,-3.798218e-001
1.865699e+003,-9.945755e-001
1.866663e+003,-1.718254e+000
1.867627e+003,-2.480209e+000
1.868592e+003,-3.661461e+000
1.869556e+003,-4.664574e+000
1.870520e+003,-3.905228e+000
1.871484e+003,-1.736603e+000
1.872449e+003,-5.103607e-001
1.873413e+003,-4.613724e-001
1.874377e+003,-6.145325e-001
1.875341e+003,-1.349876e+000
1.876306e+003,-1.671211e+000
1.877270e+003,-4.097824e-001
1.878234e+003,9.034729e-001
1.879198e+003,1.078796e-001
1.880163e+003,-1.464333e+000
1.881127e+003,-7.113647e-001
1.882091e+003,2.059891e+000
1.883055e+003,3.558426e+000
1.884020e+003,2.495354e+000
1.884984e+003,8.061142e-001
1.885948e+003,2.409897e-001
1.886912e+003,3.906479e-001
1.887876e+003,4.717026e-001
1.888841e+003,5.023804e-001
1.889805e+003,7.070160e-001
1.890769e+003,1.227821e+000
1.891733e+003,1.071747e+000
1.892698e+003,-3.266830e-001
1.893662e+003,-1.355766e+000
1.894626e+003,-1.215469e+000
1.895590e+003,-8.344040e-001
1.896554e+003,-6.483917e-001
1.897519e+003,-6.581802e-001
1.898483e+003,-1.315353e+000
1.899447e+003,-2.255432e+000
1.900411e+003,-1.842026e+000
1.901376e+003,3.233414e-001
1.902340e+003,1.761299e+000
1.903304e+003,9.888458e-001
1.904268e+003,1.215668e-001
1.905233e+003,5.954132e-001
1.906197e+003,1.499138e+000
1.907161e+003,2.028503e+000
1.908125e+003,2.248306e+000
1.909090e+003,2.114479e+000
1.910054e+003,1.825073e+000
1.911018e+003,2.314461e+000
1.911982e+003,3.730789e+000
1.912947e+003,4.460976e+000
1.913911e+003,3.303047e+000
1.914875e+003,1.482201e+000
1.915839e+003,9.078751e-001
1.916803e+003,1.260338e+000
1.917768e+003,1.082870e+000
1.918732e+003,2.615280e-001
1.919696e+003,-4.538727e-002
1.920660e+003,4.042740e-001
1.921625e+003,8.020477e-001
1.922589e+003,6.686249e-001
1.923553e+003,8.686600e-001
1.924517e+003,2.421799e+000
1.925481e+003,4.014366e+000
1.926446e+003,4.286079e+000
1.927410e+003,3.847519e+000
1.928374e+003,4.113449e+000
1.929338e+003,5.032761e+000
1.930303e+003,4.943695e+000
1.931267e+003,3.023521e+000
1.932231e+003,1.688370e+000
1.933195e+003,2.496170e+000
1.934160e+003,3.564697e+000
1.935124e+003,3.596306e+000
1.936088e+003,3.023987e+000
1.937052e+003,2.232841e+000
1.938017e+003,1.484116e+000
1.938981e+003,1.161621e+000
1.939945e+003,1.241882e+000
1.940909e+003,1.168320e+000
1.941874e+003,7.652893e-001
1.942838e+003,1.170494e+000
1.943802e+003,3.616501e+000
1.944766e+003,6.512436e+000
1.945730e+003,6.265137e+000
1.946695e+003,3.340500e+000
1.947659e+003,1.940636e+000
1.948623e+003,2.147736e+000
1.949587e+003,2.873260e+000
1.950552e+003,4.298286e+000
1.951516e+003,5.121529e+000
1.952480e+003,4.620750e+000
1.953444e+003,4.055527e+000
1.954408e+003,4.495338e+000
1.955373e+003,5.085136e+000
1.956337e+003,4.373985e+000
1.957301e+003,2.930595e+000
1.958265e+003,2.816887e+000
1.959230e+003,4.366364e+000
1.960194e+003,4.798965e+000
1.961158e+003,2.166611e+000
1.962122e+003,5.946960e-001
1.963087e+003,2.016983e+000
1.964051e+003,3.730392e+000
1.965015e+003,4.183327e+000
1.965979e+003,4.289330e+000
1.966944e+003,5.601959e+000
1.967908e+003,6.976700e+000
1.968872e+003,5.616875e+000
1.969836e+003,1.981384e+000
1.970801e+003,-3.680496e-001
1.971765e+003,4.999542e-002
1.972729e+003,1.452797e+000
1.973693e+003,2.488213e+000
1.974657e+003,3.195435e+000
1.975622e+003,3.252823e+000
1.976586e+003,3.124519e+000
1.977550e+003,4.542824e+000
1.978514e+003,7.138680e+000
1.979479e+003,8.596581e+000
1.980443e+003,8.578125e+000
1.981407e+003,7.786339e+000
1.982371e+003,6.452347e+000
1.983335e+003,5.386665e+000
1.984300e+003,5.235596e+000
1.985264e+003,5.238220e+000
1.986228e+003,4.111374e+000
1.987192e+003,2.328201e+000
1.988157e+003,2.466965e+000
1.989121e+003,5.073334e+000
1.990085e+003,6.922829e+000
1.991049e+003,8.035263e+000
1.992014e+003,8.412804e+000
1.992978e+003,7.105598e+000
1.993942e+003,6.289894e+000
1.994906e+003,7.608101e+000
1.995871e+003,8.759636e+000
1.996835e+003,7.537994e+000
1.997799e+003,5.428490e+000
1.998763e+003,4.513535e+000
1.999728e+003,4.784576e+000
