5.003444e+002,4.783472e+001
5.013087e+002,4.480063e+001
5.022729e+002,4.354994e+001
5.032371e+002,4.376730e+001
5.042014e+002,4.335495e+001
5.051656e+002,4.247035e+001
5.061298e+002,4.184673e+001
5.070941e+002,4.216862e+001
5.080583e+002,4.362988e+001
5.090225e+002,4.451233e+001
5.099868e+002,4.433415e+001
5.109510e+002,4.425684e+001
5.119152e+002,4.542421e+001
5.128795e+002,4.804805e+001
5.138437e+002,4.896521e+001
5.148079e+002,4.508646e+001
5.157722e+002,4.120486e+001
5.167364e+002,3.961005e+001
5.177006e+002,4.027705e+001
5.186649e+002,4.103146e+001
5.196291e+002,3.885938e+001
5.205933e+002,3.582431e+001
5.215576e+002,3.412685e+001
5.225218e+002,3.385460e+001
5.234860e+002,3.415610e+001
5.244503e+002,3.361510e+001
5.254145e+002,3.203598e+001
5.263787e+002,3.114421e+001
5.273430e+002,3.119948e+001
5.283072e+002,3.175629e+001
5.292714e+002,3.219684e+001
5.302357e+002,3.233653e+001
5.311999e+002,3.231456e+001
5.321641e+002,3.203958e+001
5.331284e+002,3.199532e+001
5.340926e+002,3.285608e+001
5.350568e+002,3.491473e+001
5.360211e+002,3.618611e+001
5.369853e+002,3.418710e+001
5.379495e+002,3.128053e+001
5.389138e+002,2.930211e+001
5.398780e+002,2.893971e+001
5.408422e+002,2.954022e+001
5.418065e+002,2.940463e+001
5.427707e+002,2.864481e+001
5.437349e+002,2.800131e+001
5.446992e+002,2.764023e+001
5.456634e+002,2.749928e+001
5.466276e+002,2.739883e+001
5.475919e+002,2.719621e+001
5.485561e+002,2.737657e+001
5.495203e+002,2.859583e+001
5.504846e+002,2.989458e+001
5.514488e+002,2.979727e+001
5.524130e+002,2.722046e+001
5.533773e+002,2.465382e+001
5.543415e+002,2.341637e+001
5.553057e+002,2.284662e+001
5.562700e+002,2.222523e+001
5.572342e+002,2.109663e+001
5.581984e+002,1.981963e+001
5.591627e+002,1.944894e+001
5.601269e+002,1.972969e+001
5.610911e+002,2.009857e+001
5.620554e+002,2.025397e+001
5.630196e+002,2.013470e+001
5.639838e+002,1.957764e+001
5.649481e+002,1.801009e+001
5.659123e+002,1.684908e+001
5.668765e+002,1.656047e+001
5.678408e+002,1.701379e+001
5.688050e+002,1.769817e+001
5.697692e+002,1.873553e+001
5.707335e+002,1.924484e+001
5.716977e+002,1.914705e+001
5.726619e+002,1.845445e+001
5.736262e+002,1.694034e+001
5.745904e+002,1.424370e+001
5.755546e+002,1.168864e+001
5.765189e+002,1.094777e+001
5.774831e+002,1.155463e+001
5.784473e+002,1.337656e+001
5.794116e+002,1.634998e+001
5.803758e+002,2.025919e+001
5.813400e+002,2.083702e+001
5.823043e+002,1.705551e+001
5.832685e+002,1.336572e+001
5.842327e+002,1.120473e+001
5.851970e+002,1.052118e+001
5.861612e+002,1.050357e+001
5.871254e+002,1.199727e+001
5.880897e+002,1.297827e+001
5.890539e+002,1.271365e+001
5.900181e+002,1.167824e+001
5.909824e+002,1.067358e+001
5.919466e+002,1.012497e+001
5.929108e+002,1.010262e+001
5.938751e+002,1.082544e+001
5.948393e+002,1.188348e+001
5.958035e+002,1.260844e+001
5.967678e+002,1.253983e+001
5.977320e+002,1.188243e+001
5.986962e+002,1.202135e+001
5.996605e+002,1.287018e+001
6.006247e+002,1.336478e+001
6.015889e+002,1.302338e+001
6.025532e+002,1.189383e+001
6.035174e+002,1.051547e+001
6.044816e+002,7.986282e+000
6.054459e+002,6.276062e+000
6.064101e+002,5.756561e+000
6.073743e+002,6.233627e+000
6.083386e+002,7.490845e+000
6.093028e+002,9.950668e+000
6.102670e+002,1.215759e+001
6.112313e+002,1.320178e+001
6.121955e+002,1.330070e+001
6.131597e+002,1.249196e+001
6.141240e+002,1.083691e+001
6.150882e+002,8.762268e+000
6.160524e+002,8.590683e+000
6.170167e+002,1.002716e+001
6.179809e+002,1.091518e+001
6.189451e+002,1.000629e+001
6.199094e+002,7.551834e+000
6.208736e+002,5.926666e+000
6.218378e+002,5.499298e+000
6.228021e+002,5.889893e+000
6.237663e+002,8.134552e+000
6.247305e+002,1.095616e+001
6.256948e+002,1.212895e+001
6.266590e+002,1.004001e+001
6.276232e+002,7.598511e+000
6.285875e+002,6.514465e+000
6.295517e+002,6.328018e+000
6.305159e+002,6.762711e+000
6.314802e+002,7.566025e+000
6.324444e+002,8.342087e+000
6.334086e+002,7.921738e+000
6.343729e+002,6.749039e+000
6.353371e+002,5.490097e+000
6.363013e+002,4.207458e+000
6.372656e+002,3.137100e+000
6.382298e+002,3.263214e+000
6.391940e+002,6.464539e+000
6.401583e+002,8.298965e+000
6.411225e+002,8.191254e+000
6.420867e+002,7.212845e+000
6.430510e+002,6.506531e+000
6.440152e+002,6.310730e+000
6.449794e+002,6.121475e+000
6.459437e+002,5.949036e+000
6.469079e+002,5.519501e+000
6.478721e+002,4.358475e+000
6.488364e+002,2.475906e+000
6.498006e+002,6.886597e-001
6.507648e+002,7.232513e-001
6.517291e+002,1.857971e+000
6.526933e+002,2.338776e+000
6.536575e+002,1.794434e+000
6.546218e+002,8.688660e-001
6.555860e+002,8.474274e-001
6.565502e+002,2.484421e+000
6.575145e+002,3.376068e+000
6.584787e+002,2.735657e+000
6.594429e+002,2.087753e+000
6.604072e+002,3.088852e+000
6.613714e+002,6.240814e+000
6.623356e+002,8.207184e+000
6.632999e+002,6.300522e+000
6.642641e+002,3.641296e+000
6.652283e+002,1.526825e+000
6.661926e+002,3.492889e-001
6.671568e+002,-5.426025e-002
6.681210e+002,2.951050e-001
6.690853e+002,1.060104e+000
6.700495e+002,1.367065e+000
6.710137e+002,1.236465e+000
6.719780e+002,1.115234e+000
6.729422e+002,1.462799e+000
6.739064e+002,2.298828e+000
6.748707e+002,3.306015e+000
6.758349e+002,4.859070e+000
6.767991e+002,6.066269e+000
6.777634e+002,6.760025e+000
6.787276e+002,6.972916e+000
6.796918e+002,6.534805e+000
6.806561e+002,4.080215e+000
6.816203e+002,2.201370e+000
6.825845e+002,2.419678e+000
6.835488e+002,3.805481e+000
6.845130e+002,4.831726e+000
6.854772e+002,4.384308e+000
6.864415e+002,3.036713e+000
6.874057e+002,1.460526e+000
6.883699e+002,-1.563110e-001
6.893342e+002,-6.905823e-001
6.902984e+002,6.396027e-001
6.912626e+002,3.445541e+000
6.922269e+002,4.809647e+000
6.931911e+002,3.382813e+000
6.941553e+002,2.646851e+000
6.951196e+002,3.086121e+000
6.960838e+002,4.093948e+000
6.970480e+002,4.965256e+000
6.980123e+002,5.951019e+000
6.989765e+002,5.804840e+000
6.999407e+002,2.883667e+000
7.009050e+002,-3.272858e-001
7.018692e+002,-1.556992e+000
7.028334e+002,-2.250977e-001
7.037977e+002,1.904907e+000
7.047619e+002,2.112518e+000
7.057261e+002,1.148193e+000
7.066904e+002,1.672516e-001
7.076546e+002,-6.521149e-001
7.086188e+002,-1.027405e+000
7.095831e+002,-4.259491e-001
7.105473e+002,1.670578e+000
7.115115e+002,2.889145e+000
7.124758e+002,2.892609e+000
7.134400e+002,2.498886e+000
7.144042e+002,2.111084e+000
7.153685e+002,1.808609e+000
7.163327e+002,1.690536e+000
7.172969e+002,2.295319e+000
7.182612e+002,2.645157e+000
7.192254e+002,1.984589e+000
7.201896e+002,7.008209e-001
7.211539e+002,-3.009186e-001
7.221181e+002,-1.993866e-001
7.230823e+002,4.707336e-001
7.240466e+002,7.952881e-002
7.250108e+002,-1.025238e+000
7.259750e+002,-1.751923e+000
7.269393e+002,-1.465469e+000
7.279035e+002,-4.673920e-001
7.288677e+002,-3.953400e-001
7.298320e+002,-2.703522e+000
7.307962e+002,-3.663910e+000
7.317604e+002,-2.222412e+000
7.327247e+002,4.098969e-001
7.336889e+002,2.564987e+000
7.346531e+002,3.690109e+000
7.356174e+002,4.081558e+000
7.365816e+002,3.932892e+000
7.375458e+002,3.623550e+000
7.385101e+002,3.420731e+000
7.394743e+002,3.382004e+000
7.404385e+002,3.384079e+000
7.414028e+002,3.333084e+000
7.423670e+002,2.817947e+000
7.433312e+002,8.400269e-001
7.442955e+002,-2.752960e+000
7.452597e+002,-5.671829e+000
7.462239e+002,-4.987839e+000
7.471882e+002,5.961609e-001
7.481524e+002,3.922638e+000
7.491166e+002,3.464676e+000
7.500809e+002,2.643982e+000
7.510451e+002,2.829788e+000
7.520093e+002,3.760071e+000
7.529736e+002,4.084015e+000
7.539378e+002,2.726334e+000
7.549020e+002,1.614899e+000
7.558663e+002,2.235367e+000
7.568306e+002,3.707016e+000
7.577948e+002,4.700073e+000
7.587590e+002,4.413574e+000
7.597233e+002,3.392914e+000
7.606875e+002,3.796783e+000
7.616517e+002,5.468689e+000
7.626160e+002,6.016205e+000
7.635802e+002,4.486145e+000
7.645444e+002,1.912613e+000
7.655087e+002,4.458771e-001
7.664729e+002,5.974731e-001
7.674371e+002,7.727661e-001
7.684014e+002,6.766815e-001
7.693656e+002,6.927948e-001
7.703298e+002,1.445206e+000
7.712941e+002,2.842422e+000
7.722583e+002,3.499130e+000
7.732225e+002,1.454971e+000
7.741868e+002,-8.659668e-001
7.751510e+002,-1.839417e+000
7.761152e+002,-1.422562e+000
7.770795e+002,3.596802e-001
7.780437e+002,3.511810e+000
7.790079e+002,7.552261e+000
7.799722e+002,7.837585e+000
7.809364e+002,4.079620e+000
7.819006e+002,9.996185e-001
7.828649e+002,7.044373e-001
7.838291e+002,2.548874e+000
7.847933e+002,4.292679e+000
7.857576e+002,6.096313e+000
7.867218e+002,6.966736e+000
7.876860e+002,6.403687e+000
7.886503e+002,5.438889e+000
7.896145e+002,4.994385e+000
7.905787e+002,5.276917e+000
7.915430e+002,5.490662e+000
7.925072e+002,4.337845e+000
7.934714e+002,2.739395e+000
7.944357e+002,1.764816e+000
7.953999e+002,1.577133e+000
7.963641e+002,1.977325e+000
7.973284e+002,2.738129e+000
7.982926e+002,3.902603e+000
7.992568e+002,4.486847e+000
8.002211e+002,3.653305e+000
8.011853e+002,3.285202e+000
8.021495e+002,5.041382e+000
8.031138e+002,8.213181e+000
8.040780e+002,9.679031e+000
8.050422e+002,7.698029e+000
8.060065e+002,5.455017e+000
8.069707e+002,3.091690e+000
8.079349e+002,1.398453e+000
8.088992e+002,1.558716e+000
8.098634e+002,3.834320e+000
8.108276e+002,6.735916e+000
8.117919e+002,8.191086e+000
8.127561e+002,8.374802e+000
8.137203e+002,7.841476e+000
8.146846e+002,6.787659e+000
8.156488e+002,5.625732e+000
8.166130e+002,4.747681e+000
8.175773e+002,4.087311e+000
8.185415e+002,3.954803e+000
8.195057e+002,4.791611e+000
8.204700e+002,5.320938e+000
8.214342e+002,5.013840e+000
8.223984e+002,4.078949e+000
8.233627e+002,2.951248e+000
8.243269e+002,1.253693e+000
8.252911e+002,6.400299e-001
8.262554e+002,2.399170e+000
8.272196e+002,5.163681e+000
8.281838e+002,7.979141e+000
8.291481e+002,1.022516e+001
8.301123e+002,1.134738e+001
8.310765e+002,1.007410e+001
8.320408e+002,6.501221e+000
8.330050e+002,3.236694e+000
8.339692e+002,2.360992e-001
8.349335e+002,-1.795700e+000
8.358977e+002,-1.652634e+000
8.368619e+002,1.152161e+000
8.378262e+002,2.940979e+000
8.387904e+002,2.156540e+000
8.397546e+002,1.857086e+000
8.407189e+002,3.438156e+000
8.416831e+002,5.882355e+000
8.426473e+002,7.258438e+000
8.436116e+002,6.549301e+000
8.445758e+002,5.365601e+000
8.455400e+002,5.030548e+000
8.465043e+002,5.196136e+000
8.474685e+002,5.990189e+000
8.484327e+002,7.342804e+000
8.493970e+002,8.575638e+000
8.503612e+002,8.379456e+000
8.513254e+002,6.383301e+000
8.522897e+002,5.064133e+000
8.532539e+002,4.220764e+000
8.542181e+002,4.040634e+000
8.551824e+002,4.932983e+000
8.561466e+002,6.890381e+000
8.571108e+002,9.065247e+000
8.580751e+002,1.169920e+001
8.590393e+002,1.337775e+001
8.600035e+002,1.327655e+001
8.609678e+002,1.242282e+001
8.619320e+002,1.177425e+001
8.628962e+002,1.175551e+001
8.638605e+002,1.232376e+001
8.648247e+002,1.388789e+001
8.657889e+002,1.584413e+001
8.667532e+002,1.693138e+001
8.677174e+002,1.697992e+001
8.686816e+002,1.635429e+001
8.696459e+002,1.530283e+001
8.706101e+002,1.365306e+001
8.715743e+002,1.344235e+001
8.725386e+002,1.630286e+001
8.735028e+002,1.841780e+001
8.744670e+002,1.813748e+001
8.754313e+002,1.647769e+001
8.763955e+002,1.555737e+001
8.773597e+002,1.627985e+001
8.783240e+002,1.724086e+001
8.792882e+002,1.706499e+001
8.802524e+002,1.675616e+001
8.812167e+002,1.741185e+001
8.821809e+002,1.909628e+001
8.831451e+002,2.090981e+001
8.841094e+002,2.165135e+001
8.850736e+002,2.148442e+001
8.860378e+002,2.262833e+001
8.870021e+002,2.558347e+001
8.879663e+002,2.777951e+001
8.889305e+002,2.726636e+001
8.898948e+002,2.459158e+001
8.908590e+002,2.279155e+001
8.918232e+002,2.270271e+001
8.927875e+002,2.266173e+001
8.937517e+002,2.165813e+001
8.947159e+002,2.100514e+001
8.956802e+002,2.219627e+001
8.966444e+002,2.520818e+001
8.976086e+002,2.809590e+001
8.985729e+002,2.898312e+001
8.995371e+002,2.858192e+001
9.005013e+002,2.775693e+001
9.014656e+002,2.678662e+001
9.024298e+002,2.663504e+001
9.033940e+002,2.812227e+001
9.043583e+002,3.078290e+001
9.053225e+002,3.154987e+001
9.062867e+002,2.778284e+001
9.072510e+002,2.534996e+001
9.082152e+002,2.512469e+001
9.091794e+002,2.603854e+001
9.101437e+002,2.744487e+001
9.111079e+002,2.925224e+001
9.120721e+002,3.010616e+001
9.130364e+002,2.716640e+001
9.140006e+002,2.463660e+001
9.149648e+002,2.593149e+001
9.159291e+002,2.970358e+001
9.168933e+002,3.271960e+001
9.178575e+002,3.267239e+001
9.188218e+002,3.042691e+001
9.197860e+002,2.895013e+001
9.207502e+002,2.818016e+001
9.217145e+002,2.772951e+001
9.226787e+002,2.786160e+001
9.236429e+002,2.823299e+001
9.246072e+002,2.838475e+001
9.255714e+002,2.830428e+001
9.265356e+002,2.761545e+001
9.274999e+002,2.542508e+001
9.284641e+002,2.343910e+001
9.294283e+002,2.233833e+001
9.303926e+002,2.192326e+001
9.313568e+002,2.161072e+001
9.323210e+002,2.106886e+001
9.332853e+002,2.076193e+001
9.342495e+002,2.228270e+001
9.352137e+002,2.434888e+001
9.361780e+002,2.474559e+001
9.371422e+002,2.309927e+001
9.381064e+002,2.079381e+001
9.390707e+002,1.952538e+001
9.400349e+002,1.924059e+001
9.409991e+002,1.964545e+001
9.419634e+002,2.206410e+001
9.429276e+002,2.335344e+001
9.438918e+002,2.168265e+001
9.448561e+002,1.873201e+001
9.458203e+002,1.759254e+001
9.467845e+002,1.950511e+001
9.477488e+002,2.140416e+001
9.487130e+002,2.059749e+001
9.496772e+002,1.904636e+001
9.506415e+002,1.793469e+001
9.516057e+002,1.756720e+001
9.525699e+002,1.806804e+001
9.535342e+002,1.958607e+001
9.544984e+002,2.181023e+001
9.554626e+002,2.210991e+001
9.564269e+002,2.022717e+001
9.573911e+002,1.887456e+001
9.583553e+002,1.908453e+001
9.593196e+002,2.003160e+001
9.602838e+002,2.046794e+001
9.612480e+002,2.030870e+001
9.622123e+002,1.960193e+001
9.631765e+002,1.789211e+001
9.641407e+002,1.619012e+001
9.651050e+002,1.466370e+001
9.660692e+002,1.349547e+001
9.670334e+002,1.304778e+001
9.679977e+002,1.361812e+001
9.689619e+002,1.477077e+001
9.699261e+002,1.526439e+001
9.708904e+002,1.531903e+001
9.718546e+002,1.577496e+001
9.728188e+002,1.672783e+001
9.737831e+002,1.833376e+001
9.747473e+002,2.113683e+001
9.757115e+002,2.558154e+001
9.766758e+002,2.897520e+001
9.776400e+002,3.158286e+001
9.786042e+002,3.298293e+001
9.795685e+002,3.251437e+001
9.805327e+002,3.082700e+001
9.814969e+002,2.876990e+001
9.824612e+002,2.669295e+001
9.834254e+002,2.450539e+001
9.843896e+002,2.177908e+001
9.853539e+002,1.887527e+001
9.863181e+002,1.562732e+001
9.872823e+002,1.240022e+001
9.882466e+002,1.098941e+001
9.892108e+002,1.316156e+001
9.901750e+002,1.816901e+001
9.911393e+002,1.939365e+001
9.921035e+002,1.238289e+001
9.930677e+002,8.208771e+000
9.940320e+002,9.043823e+000
9.949962e+002,1.169492e+001
9.959604e+002,1.373473e+001
9.969247e+002,1.490581e+001
9.978889e+002,1.508247e+001
9.988531e+002,1.311240e+001
9.998174e+002,1.113258e+001
1.000782e+003,1.043948e+001
1.001746e+003,1.074347e+001
1.002710e+003,1.173331e+001
1.003674e+003,1.312047e+001
1.004639e+003,1.440607e+001
1.005603e+003,1.469107e+001
1.006567e+003,1.381793e+001
1.007531e+003,1.287024e+001
1.008495e+003,1.153046e+001
1.009460e+003,1.073984e+001
1.010424e+003,1.154416e+001
1.011388e+003,1.347044e+001
1.012352e+003,1.446271e+001
1.013317e+003,1.389374e+001
1.014281e+003,1.298555e+001
1.015245e+003,1.199271e+001
1.016209e+003,1.092453e+001
1.017174e+003,9.651978e+000
1.018138e+003,8.323837e+000
1.019102e+003,7.484726e+000
1.020066e+003,7.734787e+000
1.021031e+003,8.388031e+000
1.021995e+003,6.728409e+000
1.022959e+003,3.221985e+000
1.023923e+003,8.134003e-001
1.024887e+003,6.855316e-001
1.025852e+003,1.651825e+000
1.026816e+003,2.008209e+000
1.027780e+003,1.836472e+000
1.028744e+003,9.888763e-001
1.029709e+003,-2.634277e+000
1.030673e+003,-4.530075e+000
1.031637e+003,-2.011246e+000
1.032601e+003,2.448685e+000
1.033566e+003,5.608139e+000
1.034530e+003,6.333481e+000
1.035494e+003,5.525543e+000
1.036458e+003,3.319534e+000
1.037422e+003,6.291809e-001
1.038387e+003,-1.084686e+000
1.039351e+003,-1.782532e+000
1.040315e+003,-1.645950e+000
1.041279e+003,-6.495056e-001
1.042244e+003,9.803314e-001
1.043208e+003,1.930908e+000
1.044172e+003,1.831665e+000
1.045136e+003,1.387192e+000
1.046101e+003,3.692627e-003
1.047065e+003,-1.011948e+000
1.048029e+003,-5.572815e-001
1.048993e+003,1.017151e+000
1.049958e+003,2.391785e+000
1.050922e+003,3.107162e+000
1.051886e+003,3.203827e+000
1.052850e+003,2.028351e+000
1.053814e+003,6.168365e-001
1.054779e+003,6.780701e-001
1.055743e+003,2.370636e+000
1.056707e+003,4.120056e+000
1.057671e+003,4.020554e+000
1.058636e+003,2.038605e+000
1.059600e+003,1.884918e-001
1.060564e+003,-2.478073e+000
1.061528e+003,-3.456314e+000
1.062493e+003,-1.206436e+000
1.063457e+003,1.951996e+000
1.064421e+003,3.699341e+000
1.065385e+003,3.790405e+000
1.066349e+003,2.894928e+000
1.067314e+003,9.407043e-002
1.068278e+003,-2.050385e+000
1.069242e+003,-1.136612e+000
1.070206e+003,1.423050e+000
1.071171e+003,3.355438e+000
1.072135e+003,3.657562e+000
1.073099e+003,3.077682e+000
1.074063e+003,2.946671e+000
1.075028e+003,3.371353e+000
1.075992e+003,3.281403e+000
1.076956e+003,2.265259e+000
1.077920e+003,1.364883e+000
1.078885e+003,1.146988e+000
1.079849e+003,1.348831e+000
1.080813e+003,1.350388e+000
1.081777e+003,9.855804e-001
1.082741e+003,9.727478e-001
1.083706e+003,2.234192e+000
1.084670e+003,3.273605e+000
1.085634e+003,3.193146e+000
1.086598e+003,2.242554e+000
1.087563e+003,8.637848e-001
1.088527e+003,-5.729218e-001
1.089491e+003,-1.585800e+000
1.090455e+003,-1.243622e+000
1.091420e+003,5.698853e-001
1.092384e+003,1.672989e+000
1.093348e+003,2.022766e+000
1.094312e+003,1.663406e+000
1.095276e+003,-4.452515e-002
1.096241e+003,-2.318420e+000
1.097205e+003,-2.620605e+000
1.098169e+003,1.456909e-001
1.099133e+003,2.331146e+000
1.100098e+003,2.234802e+000
1.101062e+003,1.576294e+000
1.102026e+003,1.315521e+000
1.102990e+003,1.422058e+000
1.103955e+003,1.432526e+000
1.104919e+003,1.043472e+000
1.105883e+003,3.899841e-001
1.106847e+003,-2.298584e-001
1.107812e+003,-8.180389e-001
1.108776e+003,-1.303635e+000
1.109740e+003,-1.846741e+000
1.110704e+003,-1.948822e+000
1.111668e+003,-1.007935e+000
1.112633e+003,8.070831e-001
1.113597e+003,2.637482e+000
1.114561e+003,4.742722e+000
1.115525e+003,5.823532e+000
1.116490e+003,4.887512e+000
1.117454e+003,3.513519e+000
1.118418e+003,2.599335e+000
1.119382e+003,2.252060e+000
1.120347e+003,2.347534e+000
1.121311e+003,2.728119e+000
1.122275e+003,2.779160e+000
1.123239e+003,1.104980e+000
1.124203e+003,-1.929916e+000
1.125168e+003,-3.259979e+000
1.126132e+003,-2.281616e+000
1.127096e+003,-5.032349e-001
1.128060e+003,1.250366e+000
1.129025e+003,2.850174e+000
1.129989e+003,3.677567e+000
1.130953e+003,3.105957e+000
1.131917e+003,3.019547e+000
1.132882e+003,4.841553e+000
1.133846e+003,6.432281e+000
1.134810e+003,6.081039e+000
1.135774e+003,4.443924e+000
1.136739e+003,3.220459e+000
1.137703e+003,3.367722e+000
1.138667e+003,4.425705e+000
1.139631e+003,5.853531e+000
1.140595e+003,7.512268e+000
1.141560e+003,8.414246e+000
1.142524e+003,8.294250e+000
1.143488e+003,8.458542e+000
1.144452e+003,9.597641e+000
1.145417e+003,1.168503e+001
1.146381e+003,1.479529e+001
1.147345e+003,1.939061e+001
1.148309e+003,2.367355e+001
1.149274e+003,2.743146e+001
1.150238e+003,3.066393e+001
1.151202e+003,3.311858e+001
1.152166e+003,3.518320e+001
1.153130e+003,3.762469e+001
1.154095e+003,4.065662e+001
1.155059e+003,4.326341e+001
1.156023e+003,4.404327e+001
1.156987e+003,4.318103e+001
1.157952e+003,4.257040e+001
1.158916e+003,4.264737e+001
1.159880e+003,4.155124e+001
1.160844e+003,3.740059e+001
1.161809e+003,3.138512e+001
1.162773e+003,2.644312e+001
1.163737e+003,2.278369e+001
1.164701e+003,1.935220e+001
1.165666e+003,1.528513e+001
1.166630e+003,1.219556e+001
1.167594e+003,1.134802e+001
1.168558e+003,1.154816e+001
1.169522e+003,1.110072e+001
1.170487e+003,9.563171e+000
1.171451e+003,8.014481e+000
1.172415e+003,7.643372e+000
1.173379e+003,8.262787e+000
1.174344e+003,9.308929e+000
1.175308e+003,1.098531e+001
1.176272e+003,1.130823e+001
1.177236e+003,8.687134e+000
1.178201e+003,5.186768e+000
1.179165e+003,3.518890e+000
1.180129e+003,3.640381e+000
1.181093e+003,3.351822e+000
1.182057e+003,1.408081e+000
1.183022e+003,3.552246e-001
1.183986e+003,2.198730e+000
1.184950e+003,4.533905e+000
1.185914e+003,4.866745e+000
1.186879e+003,3.197311e+000
1.187843e+003,1.274521e+000
1.188807e+003,4.793549e-001
1.189771e+003,6.378021e-001
1.190736e+003,1.549698e+000
1.191700e+003,3.346878e+000
1.192664e+003,4.318237e+000
1.193628e+003,3.968857e+000
1.194593e+003,3.327423e+000
1.195557e+003,3.186798e+000
1.196521e+003,3.321960e+000
1.197485e+003,2.978500e+000
1.198449e+003,2.023468e+000
1.199414e+003,7.030029e-001
1.200378e+003,-1.505035e+000
1.201342e+003,-3.452377e+000
1.202306e+003,-4.195908e+000
1.203271e+003,-4.162521e+000
1.204235e+003,-4.315460e+000
1.205199e+003,-5.111252e+000
1.206163e+003,-6.189926e+000
1.207128e+003,-6.994781e+000
1.208092e+003,-7.509201e+000
1.209056e+003,-7.663574e+000
1.210020e+003,-7.281815e+000
1.210984e+003,-6.955673e+000
1.211949e+003,-6.644226e+000
1.212913e+003,-6.639282e+000
1.213877e+003,-7.457581e+000
1.214841e+003,-9.072662e+000
1.215806e+003,-1.055017e+001
1.216770e+003,-1.175688e+001
1.217734e+003,-1.237627e+001
1.218698e+003,-1.167003e+001
1.219663e+003,-1.073395e+001
1.220627e+003,-1.123080e+001
1.221591e+003,-1.316119e+001
1.222555e+003,-1.483676e+001
1.223520e+003,-1.464804e+001
1.224484e+003,-1.308920e+001
1.225448e+003,-1.269142e+001
1.226412e+003,-1.416234e+001
1.227376e+003,-1.533755e+001
1.228341e+003,-1.678264e+001
1.229305e+003,-1.737624e+001
1.230269e+003,-1.557869e+001
1.231233e+003,-1.275970e+001
1.232198e+003,-1.190269e+001
1.233162e+003,-1.383549e+001
1.234126e+003,-1.582465e+001
1.235090e+003,-1.587807e+001
1.236055e+003,-1.515132e+001
1.237019e+003,-1.493968e+001
1.237983e+003,-1.504491e+001
1.238947e+003,-1.460269e+001
1.239911e+003,-1.323236e+001
1.240876e+003,-1.189154e+001
1.241840e+003,-1.226012e+001
1.242804e+003,-1.452380e+001
1.243768e+003,-1.501839e+001
1.244733e+003,-1.071568e+001
1.245697e+003,-8.717896e+000
1.246661e+003,-1.218265e+001
1.247625e+003,-1.589832e+001
1.248590e+003,-1.489796e+001
1.249554e+003,-1.056906e+001
1.250518e+003,-8.522827e+000
1.251482e+003,-1.148775e+001
1.252447e+003,-1.566118e+001
1.253411e+003,-1.636516e+001
1.254375e+003,-1.495477e+001
1.255339e+003,-1.459062e+001
1.256303e+003,-1.531462e+001
1.257268e+003,-1.529854e+001
1.258232e+003,-1.323283e+001
1.259196e+003,-1.036972e+001
1.260160e+003,-9.296432e+000
1.261125e+003,-1.032281e+001
1.262089e+003,-1.083963e+001
1.263053e+003,-1.041431e+001
1.264017e+003,-9.779114e+000
1.264982e+003,-9.065079e+000
1.265946e+003,-8.196823e+000
1.266910e+003,-6.622711e+000
1.267874e+003,-4.766449e+000
1.268839e+003,-4.097137e+000
1.269803e+003,-5.607162e+000
1.270767e+003,-8.147354e+000
1.271731e+003,-9.504440e+000
1.272695e+003,-9.658707e+000
1.273660e+003,-1.004140e+001
1.274624e+003,-1.091580e+001
1.275588e+003,-1.171484e+001
1.276552e+003,-1.199706e+001
1.277517e+003,-1.193704e+001
1.278481e+003,-1.194112e+001
1.279445e+003,-1.206001e+001
1.280409e+003,-1.215826e+001
1.281374e+003,-1.218398e+001
1.282338e+003,-1.216599e+001
1.283302e+003,-1.240492e+001
1.284266e+003,-1.246632e+001
1.285230e+003,-1.140247e+001
1.286195e+003,-9.504196e+000
1.287159e+003,-8.493668e+000
1.288123e+003,-9.771591e+000
1.289087e+003,-1.223563e+001
1.290052e+003,-1.257881e+001
1.291016e+003,-9.916855e+000
1.291980e+003,-8.483627e+000
1.292944e+003,-8.732086e+000
1.293909e+003,-9.607910e+000
1.294873e+003,-1.126791e+001
1.295837e+003,-1.290285e+001
1.296801e+003,-1.327721e+001
1.297766e+003,-1.231236e+001
1.298730e+003,-1.121454e+001
1.299694e+003,-1.042671e+001
1.300658e+003,-1.021283e+001
1.301622e+003,-1.149324e+001
1.302587e+003,-1.318823e+001
1.303551e+003,-1.323648e+001
1.304515e+003,-1.142441e+001
1.305479e+003,-9.824875e+000
1.306444e+003,-1.027805e+001
1.307408e+003,-1.204520e+001
1.308372e+003,-1.235670e+001
1.309336e+003,-1.039833e+001
1.310301e+003,-9.530518e+000
1.311265e+003,-1.080066e+001
1.312229e+003,-1.198158e+001
1.313193e+003,-1.268095e+001
1.314157e+003,-1.283876e+001
1.315122e+003,-1.192735e+001
1.316086e+003,-1.038058e+001
1.317050e+003,-9.971863e+000
1.318014e+003,-1.194832e+001
1.318979e+003,-1.461513e+001
1.319943e+003,-1.487952e+001
1.320907e+003,-1.294618e+001
1.321871e+003,-1.129070e+001
1.322836e+003,-1.000021e+001
1.323800e+003,-9.331924e+000
1.324764e+003,-9.821884e+000
1.325728e+003,-1.078723e+001
1.326693e+003,-1.118039e+001
1.327657e+003,-1.100786e+001
1.328621e+003,-1.024603e+001
1.329585e+003,-8.058853e+000
1.330549e+003,-6.290100e+000
1.331514e+003,-6.277374e+000
1.332478e+003,-7.034866e+000
1.333442e+003,-7.671341e+000
1.334406e+003,-8.054886e+000
1.335371e+003,-8.421600e+000
1.336335e+003,-8.922821e+000
1.337299e+003,-9.554230e+000
1.338263e+003,-1.038109e+001
1.339228e+003,-1.150166e+001
1.340192e+003,-1.184552e+001
1.341156e+003,-1.099982e+001
1.342120e+003,-1.005566e+001
1.343084e+003,-8.547684e+000
1.344049e+003,-7.666901e+000
1.345013e+003,-8.994995e+000
1.345977e+003,-1.168350e+001
1.346941e+003,-1.328345e+001
1.347906e+003,-1.292531e+001
1.348870e+003,-1.138075e+001
1.349834e+003,-8.694199e+000
1.350798e+003,-5.850433e+000
1.351763e+003,-4.435013e+000
1.352727e+003,-4.361526e+000
1.353691e+003,-5.368561e+000
1.354655e+003,-7.692245e+000
1.355620e+003,-9.874405e+000
1.356584e+003,-9.554993e+000
1.357548e+003,-7.174149e+000
1.358512e+003,-7.355881e+000
1.359476e+003,-1.206441e+001
1.360441e+003,-1.480287e+001
1.361405e+003,-1.197733e+001
1.362369e+003,-8.898376e+000
1.363333e+003,-8.237976e+000
1.364298e+003,-8.911728e+000
1.365262e+003,-9.082520e+000
1.366226e+003,-8.341507e+000
1.367190e+003,-7.694382e+000
1.368155e+003,-8.050980e+000
1.369119e+003,-8.986221e+000
1.370083e+003,-9.099838e+000
1.371047e+003,-7.997421e+000
1.372011e+003,-7.637848e+000
1.372976e+003,-9.073853e+000
1.373940e+003,-9.985703e+000
1.374904e+003,-8.962189e+000
1.375868e+003,-7.253540e+000
1.376833e+003,-6.440338e+000
1.377797e+003,-6.627258e+000
1.378761e+003,-7.187943e+000
1.379725e+003,-8.093277e+000
1.380690e+003,-8.470306e+000
1.381654e+003,-6.291962e+000
1.382618e+003,-3.560715e+000
1.383582e+003,-3.635071e+000
1.384547e+003,-6.257980e+000
1.385511e+003,-8.143082e+000
1.386475e+003,-7.556747e+000
1.387439e+003,-5.891479e+000
1.388403e+003,-5.160843e+000
1.389368e+003,-5.370544e+000
1.390332e+003,-5.704651e+000
1.391296e+003,-6.137772e+000
1.392260e+003,-6.616608e+000
1.393225e+003,-7.615448e+000
1.394189e+003,-8.184097e+000
1.395153e+003,-7.235046e+000
1.396117e+003,-5.724731e+000
1.397082e+003,-5.371902e+000
1.398046e+003,-6.395493e+000
1.399010e+003,-7.121811e+000
1.399974e+003,-6.016068e+000
1.400938e+003,-4.032379e+000
1.401903e+003,-4.057526e+000
1.402867e+003,-6.654160e+000
1.403831e+003,-7.945694e+000
1.404795e+003,-7.667175e+000
1.405760e+003,-6.710266e+000
1.406724e+003,-4.339233e+000
1.407688e+003,-2.402725e+000
1.408652e+003,-3.666885e+000
1.409617e+003,-7.490997e+000
1.410581e+003,-1.003606e+001
1.411545e+003,-9.729416e+000
1.412509e+003,-8.152573e+000
1.413474e+003,-6.155045e+000
1.414438e+003,-4.390808e+000
1.415402e+003,-3.952255e+000
1.416366e+003,-4.616959e+000
1.417330e+003,-5.380035e+000
1.418295e+003,-5.960175e+000
1.419259e+003,-6.102127e+000
1.420223e+003,-5.238312e+000
1.421187e+003,-3.651520e+000
1.422152e+003,-2.969467e+000
1.423116e+003,-3.517853e+000
1.424080e+003,-3.728241e+000
1.425044e+003,-2.710968e+000
1.426009e+003,-1.928268e+000
1.426973e+003,-2.143784e+000
1.427937e+003,-2.843582e+000
1.428901e+003,-3.437988e+000
1.429865e+003,-3.780502e+000
1.430830e+003,-3.992264e+000
1.431794e+003,-4.190582e+000
1.432758e+003,-4.391022e+000
1.433722e+003,-4.513016e+000
1.434687e+003,-4.424210e+000
1.435651e+003,-4.632996e+000
1.436615e+003,-6.054199e+000
1.437579e+003,-6.878922e+000
1.438544e+003,-6.789902e+000
1.439508e+003,-6.157959e+000
1.440472e+003,-4.888245e+000
1.441436e+003,-3.294022e+000
1.442401e+003,-1.679672e+000
1.443365e+003,-2.644653e-001
1.444329e+003,-5.014038e-002
1.445293e+003,-2.100052e+000
1.446257e+003,-4.780441e+000
1.447222e+003,-4.798447e+000
1.448186e+003,-2.643692e+000
1.449150e+003,-7.331543e-001
1.450114e+003,8.428040e-001
1.451079e+003,1.634583e+000
1.452043e+003,9.414520e-001
1.453007e+003,-2.427063e-001
1.453971e+003,-3.500061e-001
1.454936e+003,3.738403e-001
1.455900e+003,-3.724670e-002
1.456864e+003,-2.396530e+000
1.457828e+003,-4.348083e+000
1.458792e+003,-4.368668e+000
1.459757e+003,-3.631699e+000
1.460721e+003,-2.761246e+000
1.461685e+003,-1.958389e+000
1.462649e+003,-1.457687e+000
1.463614e+003,-1.302429e+000
1.464578e+003,-1.517624e+000
1.465542e+003,-2.268265e+000
1.466506e+003,-3.227783e+000
1.467471e+003,-3.155991e+000
1.468435e+003,-1.576614e+000
1.469399e+003,-9.837952e-001
1.470363e+003,-2.994202e+000
1.471328e+003,-4.025986e+000
1.472292e+003,-2.381699e+000
1.473256e+003,-5.310516e-001
1.474220e+003,-3.771210e-001
1.475184e+003,-1.224487e+000
1.476149e+003,-1.390900e+000
1.477113e+003,-4.521942e-001
1.478077e+003,4.637299e-001
1.479041e+003,3.064423e-001
1.480006e+003,-4.848175e-001
1.480970e+003,-5.742340e-001
1.481934e+003,2.527313e-001
1.482898e+003,5.361633e-001
1.483863e+003,-4.783020e-001
1.484827e+003,-9.502716e-001
1.485791e+003,4.120636e-001
1.486755e+003,1.936386e+000
1.487719e+003,1.782211e+000
1.488684e+003,4.267426e-001
1.489648e+003,-4.011078e-001
1.490612e+003,-1.226044e-001
1.491576e+003,3.427124e-001
1.492541e+003,1.884460e-002
1.493505e+003,-3.133392e-001
1.494469e+003,1.637924e+000
1.495433e+003,5.307724e+000
1.496398e+003,7.574890e+000
1.497362e+003,7.949677e+000
1.498326e+003,7.717651e+000
1.499290e+003,7.171371e+000
1.500255e+003,6.623672e+000
1.501219e+003,6.156708e+000
1.502183e+003,5.957275e+000
1.503147e+003,7.390442e+000
1.504111e+003,1.113170e+001
1.505076e+003,1.451846e+001
1.506040e+003,1.546985e+001
1.507004e+003,1.599051e+001
1.507968e+003,1.810574e+001
1.508933e+003,2.130484e+001
1.509897e+003,2.450372e+001
1.510861e+003,2.760562e+001
1.511825e+003,3.126187e+001
1.512790e+003,3.601212e+001
1.513754e+003,4.119980e+001
1.514718e+003,4.579672e+001
1.515682e+003,4.973923e+001
1.516646e+003,5.291176e+001
1.517611e+003,5.520212e+001
1.518575e+003,5.718663e+001
1.519539e+003,5.893497e+001
1.520503e+003,6.067400e+001
1.521468e+003,6.337704e+001
1.522432e+003,6.561224e+001
1.523396e+003,6.479761e+001
1.524360e+003,6.123956e+001
1.525325e+003,5.824135e+001
1.526289e+003,5.801875e+001
1.527253e+003,5.865314e+001
1.528217e+003,5.662491e+001
1.529182e+003,5.195711e+001
1.530146e+003,4.703552e+001
1.531110e+003,4.112294e+001
1.532074e+003,3.624136e+001
1.533039e+003,3.320534e+001
1.534003e+003,3.001492e+001
1.534967e+003,2.577518e+001
1.535931e+003,2.119350e+001
1.536896e+003,1.669661e+001
1.537860e+003,1.270499e+001
1.538824e+003,9.965302e+000
1.539788e+003,8.773285e+000
1.540752e+003,8.327087e+000
1.541717e+003,7.666809e+000
1.542681e+003,6.858185e+000
1.543645e+003,6.117249e+000
1.544609e+003,5.632172e+000
1.545573e+003,4.910049e+000
1.546538e+003,3.026215e+000
1.547502e+003,1.916595e+000
1.548466e+003,2.887848e+000
1.549430e+003,4.648361e+000
1.550395e+003,6.037491e+000
1.551359e+003,6.893738e+000
1.552323e+003,7.354340e+000
1.553287e+003,7.489883e+000
1.554252e+003,7.322342e+000
1.555216e+003,6.814728e+000
1.556180e+003,6.129395e+000
1.557144e+003,5.661835e+000
1.558109e+003,5.450989e+000
1.559073e+003,5.263245e+000
1.560037e+003,5.350555e+000
1.561001e+003,4.675613e+000
1.561966e+003,1.863449e+000
1.562930e+003,-6.969757e-001
1.563894e+003,-6.977234e-001
1.564858e+003,1.190857e+000
1.565823e+003,3.544586e+000
1.566787e+003,5.960312e+000
1.567751e+003,7.477356e+000
1.568715e+003,7.413315e+000
1.569679e+003,6.739960e+000
1.570644e+003,6.650925e+000
1.571608e+003,6.821899e+000
1.572572e+003,6.313980e+000
1.573536e+003,5.128143e+000
1.574500e+003,4.412369e+000
1.575465e+003,4.731491e+000
1.576429e+003,5.269608e+000
1.577393e+003,5.252411e+000
1.578357e+003,5.002487e+000
1.579322e+003,5.249374e+000
1.580286e+003,6.031723e+000
1.581250e+003,6.895966e+000
1.582214e+003,7.785904e+000
1.583179e+003,8.399673e+000
1.584143e+003,8.110687e+000
1.585107e+003,7.718643e+000
1.586071e+003,8.854050e+000
1.587036e+003,1.090308e+001
1.588000e+003,1.143169e+001
1.588964e+003,9.764313e+000
1.589928e+003,8.240738e+000
1.590893e+003,8.625870e+000
1.591857e+003,9.834839e+000
1.592821e+003,1.015479e+001
1.593785e+003,9.806412e+000
1.594750e+003,1.014578e+001
1.595714e+003,1.146980e+001
1.596678e+003,1.234416e+001
1.597642e+003,1.186935e+001
1.598606e+003,1.127512e+001
1.599571e+003,1.168008e+001
1.600535e+003,1.252020e+001
1.601499e+003,1.311293e+001
1.602463e+003,1.338809e+001
1.603427e+003,1.350940e+001
1.604392e+003,1.356136e+001
1.605356e+003,1.338411e+001
1.606320e+003,1.250604e+001
1.607284e+003,1.137889e+001
1.608249e+003,1.136058e+001
1.609213e+003,1.248447e+001
1.610177e+003,1.386790e+001
1.611141e+003,1.573032e+001
1.612106e+003,1.693985e+001
1.613070e+003,1.633591e+001
1.614034e+003,1.540482e+001
1.614998e+003,1.515208e+001
1.615963e+003,1.534787e+001
1.616927e+003,1.537514e+001
1.617891e+003,1.522324e+001
1.618855e+003,1.577420e+001
1.619820e+003,1.768739e+001
1.620784e+003,1.960156e+001
1.621748e+003,1.938687e+001
1.622712e+003,1.756387e+001
1.623677e+003,1.678189e+001
1.624641e+003,1.721194e+001
1.625605e+003,1.786766e+001
1.626569e+003,1.857503e+001
1.627533e+003,1.904764e+001
1.628498e+003,1.959041e+001
1.629462e+003,1.965717e+001
1.630426e+003,1.796906e+001
1.631390e+003,1.559775e+001
1.632354e+003,1.516600e+001
1.633319e+003,1.709991e+001
1.634283e+003,1.893575e+001
1.635247e+003,1.875316e+001
1.636211e+003,1.769521e+001
1.637176e+003,1.809067e+001
1.638140e+003,1.981511e+001
1.639104e+003,2.026859e+001
1.640068e+003,1.890349e+001
1.641033e+003,1.797314e+001
1.641997e+003,1.832848e+001
1.642961e+003,1.888081e+001
1.643925e+003,1.951587e+001
1.644890e+003,1.972321e+001
1.645854e+003,1.827362e+001
1.646818e+003,1.605731e+001
1.647782e+003,1.584808e+001
1.648747e+003,1.827727e+001
1.649711e+003,1.991219e+001
1.650675e+003,1.756525e+001
1.651639e+003,1.355331e+001
1.652604e+003,1.275423e+001
1.653568e+003,1.500130e+001
1.654532e+003,1.690857e+001
1.655496e+003,1.838228e+001
1.656460e+003,1.924034e+001
1.657425e+003,1.921126e+001
1.658389e+003,1.887630e+001
1.659353e+003,1.830418e+001
1.660317e+003,1.778748e+001
1.661281e+003,1.788959e+001
1.662246e+003,1.827968e+001
1.663210e+003,1.798071e+001
1.664174e+003,1.670642e+001
1.665138e+003,1.502623e+001
1.666103e+003,1.311914e+001
1.667067e+003,1.149429e+001
1.668031e+003,1.153223e+001
1.668995e+003,1.309888e+001
1.669960e+003,1.391525e+001
1.670924e+003,1.368690e+001
1.671888e+003,1.336018e+001
1.672852e+003,1.316252e+001
1.673817e+003,1.293861e+001
1.674781e+003,1.223921e+001
1.675745e+003,1.170128e+001
1.676709e+003,1.259903e+001
1.677674e+003,1.426154e+001
1.678638e+003,1.423978e+001
1.679602e+003,1.180106e+001
1.680566e+003,9.587296e+000
1.681531e+003,1.004240e+001
1.682495e+003,1.147556e+001
1.683459e+003,1.062152e+001
1.684423e+003,7.900803e+000
1.685387e+003,6.241333e+000
1.686352e+003,5.965088e+000
1.687316e+003,6.462326e+000
1.688280e+003,7.949402e+000
1.689244e+003,9.389755e+000
1.690208e+003,9.904617e+000
1.691173e+003,9.996872e+000
1.692137e+003,1.037860e+001
1.693101e+003,1.087709e+001
1.694065e+003,1.056595e+001
1.695030e+003,9.127655e+000
1.695994e+003,7.754547e+000
1.696958e+003,7.157562e+000
1.697922e+003,7.106842e+000
1.698887e+003,7.611099e+000
1.699851e+003,8.391998e+000
1.700815e+003,8.534500e+000
1.701779e+003,7.932068e+000
1.702744e+003,6.893295e+000
1.703708e+003,5.467651e+000
1.704672e+003,4.093277e+000
1.705636e+003,2.777145e+000
1.706601e+003,1.848740e+000
1.707565e+003,2.410492e+000
1.708529e+003,3.868736e+000
1.709493e+003,3.922035e+000
1.710458e+003,2.090759e+000
1.711422e+003,8.407440e-001
1.712386e+003,1.643097e+000
1.713350e+003,2.920265e+000
1.714314e+003,3.475182e+000
1.715279e+003,3.534203e+000
1.716243e+003,3.395187e+000
1.717207e+003,3.183655e+000
1.718171e+003,3.320343e+000
1.719135e+003,3.933723e+000
1.720100e+003,4.470482e+000
1.721064e+003,4.605919e+000
1.722028e+003,4.245300e+000
1.722992e+003,3.162659e+000
1.723957e+003,1.571198e+000
1.724921e+003,2.353592e-001
1.725885e+003,-1.075531e+000
1.726849e+003,-1.507561e+000
1.727814e+003,1.378403e-001
1.728778e+003,1.468109e+000
1.729742e+003,1.188644e+000
1.730706e+003,3.364410e-001
1.731671e+003,-7.378082e-001
1.732635e+003,-1.451279e+000
1.733599e+003,-2.790985e-001
1.734563e+003,2.694504e+000
1.735528e+003,5.486732e+000
1.736492e+003,7.022652e+000
1.737456e+003,6.806313e+000
1.738420e+003,3.898148e+000
1.739385e+003,-4.718933e-001
1.740349e+003,-1.414528e+000
1.741313e+003,2.091637e+000
1.742277e+003,4.074532e+000
1.743241e+003,4.368210e+000
1.744206e+003,3.648041e+000
1.745170e+003,3.563843e-001
1.746134e+003,-2.112633e+000
1.747098e+003,-1.259071e+000
1.748063e+003,9.327698e-001
1.749027e+003,2.457352e+000
1.749991e+003,3.046661e+000
1.750955e+003,3.006546e+000
1.751919e+003,2.512550e+000
1.752884e+003,1.730583e+000
1.753848e+003,7.901154e-001
1.754812e+003,-1.320496e-001
1.755776e+003,-6.171188e-001
1.756741e+003,-6.245117e-001
1.757705e+003,-5.651169e-001
1.758669e+003,-5.159149e-001
1.759633e+003,-3.167419e-001
1.760598e+003,1.387558e-001
1.761562e+003,5.218582e-001
1.762526e+003,1.186203e+000
1.763490e+003,1.413345e+000
1.764455e+003,2.557144e-001
1.765419e+003,-1.436806e+000
1.766383e+003,-2.536621e+000
1.767347e+003,-2.831261e+000
1.768312e+003,-2.308289e+000
1.769276e+003,-9.563980e-001
1.770240e+003,3.190842e-001
1.771204e+003,5.846024e-001
1.772168e+003,2.859650e-001
1.773133e+003,4.290009e-001
1.774097e+003,9.165802e-001
1.775061e+003,5.774765e-001
1.776025e+003,-9.683838e-001
1.776990e+003,-1.766418e+000
1.777954e+003,-9.136658e-001
1.778918e+003,4.987259e-001
1.779882e+003,2.499893e+000
1.780846e+003,3.834167e+000
1.781811e+003,2.248108e+000
1.782775e+003,-1.264877e+000
1.783739e+003,-3.554474e+000
1.784703e+003,-4.158981e+000
1.785668e+003,-3.612518e+000
1.786632e+003,-1.310905e+000
1.787596e+003,8.306503e-001
1.788560e+003,1.351173e+000
1.789525e+003,1.069847e+000
1.790489e+003,1.014587e+000
1.791453e+003,1.086189e+000
1.792417e+003,5.736618e-001
1.793382e+003,-5.391617e-001
1.794346e+003,-8.643723e-001
1.795310e+003,4.028702e-001
1.796274e+003,1.714912e+000
1.797239e+003,1.276871e+000
1.798203e+003,-2.991333e-001
1.799167e+003,-1.374779e+000
1.800131e+003,-2.135933e+000
1.801095e+003,-1.972359e+000
1.802060e+003,3.431702e-001
1.803024e+003,1.758804e+000
1.803988e+003,9.821777e-001
1.804952e+003,3.998184e-001
1.805917e+003,1.637810e+000
1.806881e+003,3.185265e+000
1.807845e+003,3.430832e+000
1.808809e+003,2.771881e+000
1.809773e+003,2.303215e+000
1.810738e+003,2.302353e+000
1.811702e+003,2.410934e+000
1.812666e+003,2.394028e+000
1.813630e+003,2.293709e+000
1.814595e+003,2.204781e+000
1.815559e+003,2.016205e+000
1.816523e+003,1.133194e+000
1.817487e+003,-5.824127e-001
1.818452e+003,-1.152809e+000
1.819416e+003,-7.573700e-002
1.820380e+003,1.160866e+000
1.821344e+003,2.642670e+000
1.822309e+003,3.372246e+000
1.823273e+003,2.156395e+000
1.824237e+003,5.087891e-001
1.825201e+003,-1.231842e-001
1.826166e+003,6.121063e-002
1.827130e+003,5.014877e-001
1.828094e+003,1.051292e+000
1.829058e+003,1.253281e+000
1.830022e+003,8.098831e-001
1.830987e+003,2.311401e-001
1.831951e+003,-2.351608e-001
1.832915e+003,-4.529037e-001
1.833879e+003,-6.309509e-002
1.834844e+003,7.170715e-001
1.835808e+003,1.278130e+000
1.836772e+003,1.514893e+000
1.837736e+003,1.454521e+000
1.838700e+003,1.068001e+000
1.839665e+003,6.393433e-001
1.840629e+003,4.261627e-001
1.841593e+003,4.543762e-001
1.842557e+003,7.438126e-001
1.843522e+003,1.289909e+000
1.844486e+003,1.999741e+000
1.845450e+003,3.515121e+000
1.846414e+003,4.063133e+000
1.847379e+003,2.519470e+000
1.848343e+003,1.367264e+000
1.849307e+003,1.886948e+000
1.850271e+003,2.526634e+000
1.851236e+003,1.951256e+000
1.852200e+003,9.616318e-001
1.853164e+003,7.247467e-001
1.854128e+003,1.178711e+000
1.855093e+003,1.740196e+000
1.856057e+003,2.159645e+000
1.857021e+003,2.130615e+000
1.857985e+003,1.296356e+000
1.858949e+003,1.683426e-001
1.859914e+003,-4.882813e-001
1.860878e+003,-6.325531e-001
1.861842e+003,1.012497e-001
1.862806e+003,1.725197e+000
1.863771e+003,2.655418e+000
1.864735e+003,2.500008e+000
1.865699e+003,2.137222e+000
1.866663e+003,1.971436e+000
1.867627e+003,1.757278e+000
1.868592e+003,9.424286e-001
1.869556e+003,4.107666e-002
1.870520e+003,2.730560e-001
1.871484e+003,1.444305e+000
1.872449e+003,2.356888e+000
1.873413e+003,3.120064e+000
1.874377e+003,3.445175e+000
1.875341e+003,2.487282e+000
1.876306e+003,1.764862e+000
1.877270e+003,2.772301e+000
1.878234e+003,3.740288e+000
1.879198e+003,2.385689e+000
1.880163e+003,-7.601166e-002
1.881127e+003,-1.250481e+000
1.882091e+003,-9.346008e-001
1.883055e+003,-3.267670e-001
1.884020e+003,4.357910e-002
1.884984e+003,6.079254e-001
1.885948e+003,1.785728e+000
1.886912e+003,3.110641e+000
1.887876e+003,3.578400e+000
1.888841e+003,3.299225e+000
1.889805e+003,3.635239e+000
1.890769e+003,4.802933e+000
1.891733e+003,5.424492e+000
1.892698e+003,5.305267e+000
1.893662e+003,4.633804e+000
1.894626e+003,2.686264e+000
1.895590e+003,1.286026e+000
1.896554e+003,2.466408e+000
1.897519e+003,4.377045e+000
1.898483e+003,4.705231e+000
1.899447e+003,3.729622e+000
1.900411e+003,2.686836e+000
1.901376e+003,1.739525e+000
1.902340e+003,1.770531e+000
1.903304e+003,4.074432e+000
1.904268e+003,5.891762e+000
1.905233e+003,5.296402e+000
1.906197e+003,3.688385e+000
1.907161e+003,1.885475e+000
1.908125e+003,4.789200e-001
1.909090e+003,4.208755e-001
1.910054e+003,1.548042e+000
1.911018e+003,3.094017e+000
1.911982e+003,4.718224e+000
1.912947e+003,6.091751e+000
1.913911e+003,6.963669e+000
1.914875e+003,7.555092e+000
1.915839e+003,8.229797e+000
1.916803e+003,8.795319e+000
1.917768e+003,8.329636e+000
1.918732e+003,6.585121e+000
1.919696e+003,5.821625e+000
1.920660e+003,6.723610e+000
1.921625e+003,6.768379e+000
1.922589e+003,4.509277e+000
1.923553e+003,2.697098e+000
1.924517e+003,3.223557e+000
1.925481e+003,4.454613e+000
1.926446e+003,5.162270e+000
1.927410e+003,5.462837e+000
1.928374e+003,5.546677e+000
1.929338e+003,5.429268e+000
1.930303e+003,5.381943e+000
1.931267e+003,5.526802e+000
1.932231e+003,5.851875e+000
1.933195e+003,6.726532e+000
1.934160e+003,7.216949e+000
1.935124e+003,6.278053e+000
1.936088e+003,4.834076e+000
1.937052e+003,3.830002e+000
1.938017e+003,3.431152e+000
1.938981e+003,3.938591e+000
1.939945e+003,5.083099e+000
1.940909e+003,5.703430e+000
1.941874e+003,5.314537e+000
1.942838e+003,4.813942e+000
1.943802e+003,5.087624e+000
1.944766e+003,5.857231e+000
1.945730e+003,6.557487e+000
1.946695e+003,7.091072e+000
1.947659e+003,6.748886e+000
1.948623e+003,5.355865e+000
1.949587e+003,5.083405e+000
1.950552e+003,6.596588e+000
1.951516e+003,7.494797e+000
1.952480e+003,6.612976e+000
1.953444e+003,5.749908e+000
1.954408e+003,6.437119e+000
1.955373e+003,7.479797e+000
1.956337e+003,6.927444e+000
1.957301e+003,5.444527e+000
1.958265e+003,5.385254e+000
1.959230e+003,7.054665e+000
1.960194e+003,8.012260e+000
1.961158e+003,7.225029e+000
1.962122e+003,6.580933e+000
1.963087e+003,6.831039e+000
1.964051e+003,7.048164e+000
1.965015e+003,6.418785e+000
1.965979e+003,5.852890e+000
1.966944e+003,6.567627e+000
1.967908e+003,7.830048e+000
1.968872e+003,8.200638e+000
1.969836e+003,7.595978e+000
1.970801e+003,6.767693e+000
1.971765e+003,6.106956e+000
1.972729e+003,6.142220e+000
1.973693e+003,7.576096e+000
1.974657e+003,9.156563e+000
1.975622e+003,8.464371e+000
1.976586e+003,6.595566e+000
1.977550e+003,6.886116e+000
1.978514e+003,8.974869e+000
1.979479e+003,1.031751e+001
1.980443e+003,1.053545e+001
1.981407e+003,1.036951e+001
1.982371e+003,1.009184e+001
1.983335e+003,9.998543e+000
1.984300e+003,1.033950e+001
1.985264e+003,1.062757e+001
1.986228e+003,1.008630e+001
1.987192e+003,8.942924e+000
1.988157e+003,8.405670e+000
1.989121e+003,8.625320e+000
1.990085e+003,8.800758e+000
1.991049e+003,8.902153e+000
1.992014e+003,9.082947e+000
1.992978e+003,9.123665e+000
1.993942e+003,9.512398e+000
1.994906e+003,1.125423e+001
1.995871e+003,1.255042e+001
1.996835e+003,1.144036e+001
1.997799e+003,9.465088e+000
1.998763e+003,9.019569e+000
1.999728e+003,9.859192e+000
