5.003444e+002,2.512170e+001
5.013087e+002,2.588052e+001
5.022729e+002,2.471176e+001
5.032371e+002,2.246426e+001
5.042014e+002,2.106848e+001
5.051656e+002,2.048346e+001
5.061298e+002,2.036264e+001
5.070941e+002,2.039923e+001
5.080583e+002,2.057953e+001
5.090225e+002,1.996228e+001
5.099868e+002,1.715625e+001
5.109510e+002,1.517331e+001
5.119152e+002,1.636707e+001
5.128795e+002,2.111826e+001
5.138437e+002,2.425046e+001
5.148079e+002,2.279941e+001
5.157722e+002,2.065024e+001
5.167364e+002,1.910773e+001
5.177006e+002,1.833676e+001
5.186649e+002,1.760742e+001
5.196291e+002,1.639957e+001
5.205933e+002,1.506192e+001
5.215576e+002,1.295395e+001
5.225218e+002,1.012421e+001
5.234860e+002,7.836487e+000
5.244503e+002,8.809814e+000
5.254145e+002,1.493109e+001
5.263787e+002,1.746533e+001
5.273430e+002,1.376611e+001
5.283072e+002,8.284760e+000
5.292714e+002,7.448914e+000
5.302357e+002,1.421387e+001
5.311999e+002,1.843292e+001
5.321641e+002,1.885706e+001
5.331284e+002,1.755447e+001
5.340926e+002,1.545081e+001
5.350568e+002,1.261746e+001
5.360211e+002,1.017389e+001
5.369853e+002,9.801361e+000
5.379495e+002,1.043591e+001
5.389138e+002,1.135733e+001
5.398780e+002,1.214050e+001
5.408422e+002,1.267773e+001
5.418065e+002,1.277280e+001
5.427707e+002,1.245596e+001
5.437349e+002,1.168555e+001
5.446992e+002,1.010464e+001
5.456634e+002,8.179413e+000
5.466276e+002,7.710175e+000
5.475919e+002,1.179205e+001
5.485561e+002,1.360791e+001
5.495203e+002,1.089407e+001
5.504846e+002,6.223114e+000
5.514488e+002,3.584137e+000
5.524130e+002,5.448761e+000
5.533773e+002,7.443024e+000
5.543415e+002,6.994415e+000
5.553057e+002,5.593079e+000
5.562700e+002,4.742767e+000
5.572342e+002,5.321960e+000
5.581984e+002,6.534058e+000
5.591627e+002,6.901367e+000
5.601269e+002,6.746277e+000
5.610911e+002,6.008911e+000
5.620554e+002,4.487762e+000
5.630196e+002,2.279114e+000
5.639838e+002,1.324524e+000
5.649481e+002,2.629730e+000
5.659123e+002,3.739380e+000
5.668765e+002,4.761566e+000
5.678408e+002,5.721527e+000
5.688050e+002,6.194275e+000
5.697692e+002,5.282410e+000
5.707335e+002,3.977448e+000
5.716977e+002,2.493134e+000
5.726619e+002,1.086639e+000
5.736262e+002,1.792603e-001
5.745904e+002,2.254028e-001
5.755546e+002,4.174500e-001
5.765189e+002,-1.402374e+000
5.774831e+002,-4.316376e+000
5.784473e+002,-6.274078e+000
5.794116e+002,-5.764282e+000
5.803758e+002,-2.829865e+000
5.813400e+002,-3.096313e-001
5.823043e+002,1.622406e+000
5.832685e+002,2.752563e+000
5.842327e+002,2.958099e+000
5.851970e+002,2.569855e+000
5.861612e+002,2.545410e+000
5.871254e+002,3.192963e+000
5.880897e+002,3.573761e+000
5.890539e+002,3.152130e+000
5.900181e+002,2.248871e+000
5.909824e+002,1.560486e+000
5.919466e+002,1.772522e+000
5.929108e+002,2.040314e+000
5.938751e+002,1.268097e+000
5.948393e+002,-4.263306e-002
5.958035e+002,-1.114349e+000
5.967678e+002,-1.338684e+000
5.977320e+002,-7.056885e-001
5.986962e+002,7.858276e-002
5.996605e+002,6.651001e-001
6.006247e+002,1.267456e+000
6.015889e+002,2.256012e+000
6.025532e+002,3.584900e+000
6.035174e+002,4.124603e+000
6.044816e+002,3.205109e+000
6.054459e+002,2.223846e+000
6.064101e+002,1.402985e+000
6.073743e+002,6.112366e-001
6.083386e+002,-5.567322e-001
6.093028e+002,-2.724915e+000
6.102670e+002,-4.168060e+000
6.112313e+002,-3.547882e+000
6.121955e+002,-1.723969e+000
6.131597e+002,4.213562e-001
6.141240e+002,2.239502e+000
6.150882e+002,3.527435e+000
6.160524e+002,3.232239e+000
6.170167e+002,1.783264e+000
6.179809e+002,5.411072e-001
6.189451e+002,-7.083130e-002
6.199094e+002,-2.256775e-001
6.208736e+002,-2.059021e-001
6.218378e+002,1.389893e+000
6.228021e+002,2.061676e+000
6.237663e+002,8.648071e-001
6.247305e+002,-1.111816e+000
6.256948e+002,-2.105042e+000
6.266590e+002,-1.182373e+000
6.276232e+002,-5.281067e-001
6.285875e+002,-2.048004e+000
6.295517e+002,-3.826111e+000
6.305159e+002,-3.377441e+000
6.314802e+002,3.911743e-001
6.324444e+002,5.269623e+000
6.334086e+002,4.808167e+000
6.343729e+002,8.497620e-001
6.353371e+002,-3.093140e+000
6.363013e+002,-6.036530e+000
6.372656e+002,-8.024261e+000
6.382298e+002,-8.956268e+000
6.391940e+002,-8.155212e+000
6.401583e+002,-7.190613e+000
6.411225e+002,-5.155243e+000
6.420867e+002,-2.847168e+000
6.430510e+002,-1.596008e+000
6.440152e+002,-2.381836e+000
6.449794e+002,-3.117157e+000
6.459437e+002,-1.953003e+000
6.469079e+002,-7.623901e-001
6.478721e+002,-1.422302e+000
6.488364e+002,-4.249634e+000
6.498006e+002,-7.265747e+000
6.507648e+002,-6.538788e+000
6.517291e+002,-3.526093e+000
6.526933e+002,-1.297913e+000
6.536575e+002,-4.107056e-001
6.546218e+002,-9.132385e-001
6.555860e+002,-3.086639e+000
6.565502e+002,-9.101501e+000
6.575145e+002,-1.183319e+001
6.584787e+002,-9.098328e+000
6.594429e+002,-5.255341e+000
6.604072e+002,-3.782257e+000
6.613714e+002,-5.340088e+000
6.623356e+002,-7.000977e+000
6.632999e+002,-7.312469e+000
6.642641e+002,-7.775543e+000
6.652283e+002,-9.601440e+000
6.661926e+002,-1.227115e+001
6.671568e+002,-1.382419e+001
6.681210e+002,-1.148416e+001
6.690853e+002,-7.019104e+000
6.700495e+002,-4.912384e+000
6.710137e+002,-5.165131e+000
6.719780e+002,-6.457764e+000
6.729422e+002,-7.554291e+000
6.739064e+002,-8.705963e+000
6.748707e+002,-8.540894e+000
6.758349e+002,-6.188263e+000
6.767991e+002,-4.058105e+000
6.777634e+002,-2.726593e+000
6.787276e+002,-2.054108e+000
6.796918e+002,-2.041840e+000
6.806561e+002,-4.484528e+000
6.816203e+002,-6.117004e+000
6.825845e+002,-4.841888e+000
6.835488e+002,-2.037689e+000
6.845130e+002,-8.956909e-002
6.854772e+002,-8.073425e-001
6.864415e+002,-2.617218e+000
6.874057e+002,-1.998047e+000
6.883699e+002,-1.032715e-001
6.893342e+002,7.488708e-001
6.902984e+002,-7.152100e-001
6.912626e+002,-4.034790e+000
6.922269e+002,-6.623138e+000
6.931911e+002,-8.927887e+000
6.941553e+002,-8.934357e+000
6.951196e+002,-4.846527e+000
6.960838e+002,6.221924e-001
6.970480e+002,3.198151e+000
6.980123e+002,1.104797e+000
6.989765e+002,-1.332703e+000
6.999407e+002,-3.334229e+000
7.009050e+002,-4.268799e+000
7.018692e+002,-2.692993e+000
7.028334e+002,1.343231e+000
7.037977e+002,5.123108e+000
7.047619e+002,3.557648e+000
7.057261e+002,-8.849792e-001
7.066904e+002,-3.768799e+000
7.076546e+002,-4.399811e+000
7.086188e+002,-3.437836e+000
7.095831e+002,-1.739136e+000
7.105473e+002,1.344635e+000
7.115115e+002,2.323486e+000
7.124758e+002,-4.644470e-001
7.134400e+002,-3.435242e+000
7.144042e+002,-4.104340e+000
7.153685e+002,-2.324585e+000
7.163327e+002,-7.357788e-001
7.172969e+002,-6.610107e-001
7.182612e+002,-8.666687e-001
7.192254e+002,-9.200134e-001
7.201896e+002,-1.015930e+000
7.211539e+002,-1.802094e+000
7.221181e+002,-3.964508e+000
7.230823e+002,-6.389343e+000
7.240466e+002,-5.796478e+000
7.250108e+002,-2.656342e+000
7.259750e+002,4.868164e-001
7.269393e+002,1.898224e+000
7.279035e+002,1.507690e+000
7.288677e+002,1.233643e+000
7.298320e+002,3.212372e+000
7.307962e+002,3.695801e+000
7.317604e+002,1.053192e+000
7.327247e+002,-2.609802e+000
7.336889e+002,-4.476044e+000
7.346531e+002,-3.829651e+000
7.356174e+002,-3.196381e+000
7.365816e+002,-3.689392e+000
7.375458e+002,-4.007599e+000
7.385101e+002,-2.874786e+000
7.394743e+002,-1.999817e-001
7.404385e+002,2.769104e+000
7.414028e+002,4.024780e+000
7.423670e+002,3.200531e+000
7.433312e+002,1.788696e+000
7.442955e+002,2.331848e-001
7.452597e+002,-8.419800e-001
7.462239e+002,-8.649292e-001
7.471882e+002,3.570862e-001
7.481524e+002,1.218292e+000
7.491166e+002,6.951599e-001
7.500809e+002,2.076111e-001
7.510451e+002,6.059570e-001
7.520093e+002,1.574554e+000
7.529736e+002,1.872742e+000
7.539378e+002,7.512817e-001
7.549020e+002,-1.475525e-001
7.558663e+002,4.431458e-001
7.568306e+002,1.715027e+000
7.577948e+002,2.347260e+000
7.587590e+002,1.499756e+000
7.597233e+002,-3.145142e-001
7.606875e+002,-7.870178e-001
7.616517e+002,9.649658e-002
7.626160e+002,5.744019e-001
7.635802e+002,2.844238e-002
7.645444e+002,-8.418884e-001
7.655087e+002,-5.168152e-001
7.664729e+002,1.909912e+000
7.674371e+002,3.312927e+000
7.684014e+002,3.185425e+000
7.693656e+002,2.433868e+000
7.703298e+002,1.268829e+000
7.712941e+002,-5.706787e-002
7.722583e+002,-6.065369e-001
7.732225e+002,8.969421e-001
7.741868e+002,2.923981e+000
7.751510e+002,4.368073e+000
7.761152e+002,5.293549e+000
7.770795e+002,6.157043e+000
7.780437e+002,7.327545e+000
7.790079e+002,8.580383e+000
7.799722e+002,8.382965e+000
7.809364e+002,6.633301e+000
7.819006e+002,5.044952e+000
7.828649e+002,4.863220e+000
7.838291e+002,5.657806e+000
7.847933e+002,5.333466e+000
7.857576e+002,2.094177e+000
7.867218e+002,-1.383362e-001
7.876860e+002,7.464600e-002
7.886503e+002,1.401764e+000
7.896145e+002,3.180756e+000
7.905787e+002,5.054474e+000
7.915430e+002,6.121033e+000
7.925072e+002,4.095032e+000
7.934714e+002,9.807434e-001
7.944357e+002,-7.127075e-001
7.953999e+002,-6.522217e-001
7.963641e+002,4.612427e-001
7.973284e+002,1.796509e+000
7.982926e+002,3.417145e+000
7.992568e+002,3.749298e+000
8.002211e+002,1.017609e+000
8.011853e+002,-1.036072e+000
8.021495e+002,1.519165e-001
8.031138e+002,4.013885e+000
8.040780e+002,7.197632e+000
8.050422e+002,8.545837e+000
8.060065e+002,9.067230e+000
8.069707e+002,8.536743e+000
8.079349e+002,7.474670e+000
8.088992e+002,6.314270e+000
8.098634e+002,5.405884e+000
8.108276e+002,5.141388e+000
8.117919e+002,6.189789e+000
8.127561e+002,7.531311e+000
8.137203e+002,8.406006e+000
8.146846e+002,8.991364e+000
8.156488e+002,8.614624e+000
8.166130e+002,5.876862e+000
8.175773e+002,-2.898254e-001
8.185415e+002,-2.774139e+000
8.195057e+002,3.923340e-001
8.204700e+002,3.479187e+000
8.214342e+002,4.433533e+000
8.223984e+002,3.874054e+000
8.233627e+002,3.724030e+000
8.243269e+002,4.997955e+000
8.252911e+002,6.261353e+000
8.262554e+002,7.185760e+000
8.272196e+002,7.366882e+000
8.281838e+002,5.605164e+000
8.291481e+002,1.913116e+000
8.301123e+002,-1.618347e+000
8.310765e+002,-7.980347e-001
8.320408e+002,3.845123e+000
8.330050e+002,5.745636e+000
8.339692e+002,4.019653e+000
8.349335e+002,1.484161e+000
8.358977e+002,1.243866e+000
8.368619e+002,3.882141e+000
8.378262e+002,5.743927e+000
8.387904e+002,5.600494e+000
8.397546e+002,5.480164e+000
8.407189e+002,5.896271e+000
8.416831e+002,6.727142e+000
8.426473e+002,7.578308e+000
8.436116e+002,8.217957e+000
8.445758e+002,9.341095e+000
8.455400e+002,1.226715e+001
8.465043e+002,1.516504e+001
8.474685e+002,1.636667e+001
8.484327e+002,1.560675e+001
8.493970e+002,1.338940e+001
8.503612e+002,1.002811e+001
8.513254e+002,4.901123e+000
8.522897e+002,3.048706e+000
8.532539e+002,6.443817e+000
8.542181e+002,9.731323e+000
8.551824e+002,9.275024e+000
8.561466e+002,5.988861e+000
8.571108e+002,5.318787e+000
8.580751e+002,1.034161e+001
8.590393e+002,1.403323e+001
8.600035e+002,1.372241e+001
8.609678e+002,1.171143e+001
8.619320e+002,1.028641e+001
8.628962e+002,1.043127e+001
8.638605e+002,1.187708e+001
8.648247e+002,1.546561e+001
8.657889e+002,1.962177e+001
8.667532e+002,2.076080e+001
8.677174e+002,1.841373e+001
8.686816e+002,1.461349e+001
8.696459e+002,1.142670e+001
8.706101e+002,8.800323e+000
8.715743e+002,8.719452e+000
8.725386e+002,1.370093e+001
8.735028e+002,1.783829e+001
8.744670e+002,1.895419e+001
8.754313e+002,1.798267e+001
8.763955e+002,1.690915e+001
8.773597e+002,1.630020e+001
8.783240e+002,1.650293e+001
8.792882e+002,1.847485e+001
8.802524e+002,2.055295e+001
8.812167e+002,2.093964e+001
8.821809e+002,1.959601e+001
8.831451e+002,1.824716e+001
8.841094e+002,1.930634e+001
8.850736e+002,2.277026e+001
8.860378e+002,2.362033e+001
8.870021e+002,2.087103e+001
8.879663e+002,1.866479e+001
8.889305e+002,1.979538e+001
8.898948e+002,2.338525e+001
8.908590e+002,2.519977e+001
8.918232e+002,2.332993e+001
8.927875e+002,2.296991e+001
8.937517e+002,2.706958e+001
8.947159e+002,3.162698e+001
8.956802e+002,3.249188e+001
8.966444e+002,2.905548e+001
8.976086e+002,2.507901e+001
8.985729e+002,2.476782e+001
8.995371e+002,2.659259e+001
9.005013e+002,2.745468e+001
9.014656e+002,2.754321e+001
9.024298e+002,2.776318e+001
9.033940e+002,2.866934e+001
9.043583e+002,2.986826e+001
9.053225e+002,3.002826e+001
9.062867e+002,2.709549e+001
9.072510e+002,2.542111e+001
9.082152e+002,2.687830e+001
9.091794e+002,2.910474e+001
9.101437e+002,2.927014e+001
9.111079e+002,2.686963e+001
9.120721e+002,2.517456e+001
9.130364e+002,2.673932e+001
9.140006e+002,2.856360e+001
9.149648e+002,2.929999e+001
9.159291e+002,2.925763e+001
9.168933e+002,2.898352e+001
9.178575e+002,2.874884e+001
9.188218e+002,2.859711e+001
9.197860e+002,2.944482e+001
9.207502e+002,3.123578e+001
9.217145e+002,3.175525e+001
9.226787e+002,3.032642e+001
9.236429e+002,2.838312e+001
9.246072e+002,2.746948e+001
9.255714e+002,2.742230e+001
9.265356e+002,2.812622e+001
9.274999e+002,3.193640e+001
9.284641e+002,3.365552e+001
9.294283e+002,2.974677e+001
9.303926e+002,2.304755e+001
9.313568e+002,1.852081e+001
9.323210e+002,1.873242e+001
9.332853e+002,2.132623e+001
9.342495e+002,2.393274e+001
9.352137e+002,2.599274e+001
9.361780e+002,2.630103e+001
9.371422e+002,2.485962e+001
9.381064e+002,2.305042e+001
9.390707e+002,2.251715e+001
9.400349e+002,2.327209e+001
9.409991e+002,2.306696e+001
9.419634e+002,2.126538e+001
9.429276e+002,1.932129e+001
9.438918e+002,1.675092e+001
9.448561e+002,1.466119e+001
9.458203e+002,1.533472e+001
9.467845e+002,2.005975e+001
9.477488e+002,2.472040e+001
9.487130e+002,2.570288e+001
9.496772e+002,2.556824e+001
9.506415e+002,2.610449e+001
9.516057e+002,2.751636e+001
9.525699e+002,2.930109e+001
9.535342e+002,3.098480e+001
9.544984e+002,3.223260e+001
9.554626e+002,3.057941e+001
9.564269e+002,2.571259e+001
9.573911e+002,2.215454e+001
9.583553e+002,2.097888e+001
9.593196e+002,2.167303e+001
9.602838e+002,2.400311e+001
9.612480e+002,2.859583e+001
9.622123e+002,3.163763e+001
9.631765e+002,3.089441e+001
9.641407e+002,2.976813e+001
9.651050e+002,3.016144e+001
9.660692e+002,3.118866e+001
9.670334e+002,3.057214e+001
9.679977e+002,2.700555e+001
9.689619e+002,2.266199e+001
9.699261e+002,2.204211e+001
9.708904e+002,2.382043e+001
9.718546e+002,2.536530e+001
9.728188e+002,2.607849e+001
9.737831e+002,2.595697e+001
9.747473e+002,2.480707e+001
9.757115e+002,2.232294e+001
9.766758e+002,2.106274e+001
9.776400e+002,2.271387e+001
9.786042e+002,2.400989e+001
9.795685e+002,2.350128e+001
9.805327e+002,2.210754e+001
9.814969e+002,2.136444e+001
9.824612e+002,2.196564e+001
9.834254e+002,2.321344e+001
9.843896e+002,2.444952e+001
9.853539e+002,2.544891e+001
9.863181e+002,2.587201e+001
9.872823e+002,2.566321e+001
9.882466e+002,2.540179e+001
9.892108e+002,2.587769e+001
9.901750e+002,2.733673e+001
9.911393e+002,2.855267e+001
9.921035e+002,2.836609e+001
9.930677e+002,2.811755e+001
9.940320e+002,2.730145e+001
9.949962e+002,2.744708e+001
9.959604e+002,3.056097e+001
9.969247e+002,3.665619e+001
9.978889e+002,4.231976e+001
9.988531e+002,4.523956e+001
9.998174e+002,4.722375e+001
1.000782e+003,4.998462e+001
1.001746e+003,5.293140e+001
1.002710e+003,5.497235e+001
1.003674e+003,5.559839e+001
1.004639e+003,5.509644e+001
1.005603e+003,5.378540e+001
1.006567e+003,5.146893e+001
1.007531e+003,5.163513e+001
1.008495e+003,5.563263e+001
1.009460e+003,5.940869e+001
1.010424e+003,6.060040e+001
1.011388e+003,5.973199e+001
1.012352e+003,5.844629e+001
1.013317e+003,5.616205e+001
1.014281e+003,5.469818e+001
1.015245e+003,5.652020e+001
1.016209e+003,5.733765e+001
1.017174e+003,5.297327e+001
1.018138e+003,4.430817e+001
1.019102e+003,3.610443e+001
1.020066e+003,3.237592e+001
1.021031e+003,3.176697e+001
1.021995e+003,2.994580e+001
1.022959e+003,2.690204e+001
1.023923e+003,2.387451e+001
1.024887e+003,2.108600e+001
1.025852e+003,1.867096e+001
1.026816e+003,1.722742e+001
1.027780e+003,1.741327e+001
1.028744e+003,1.656476e+001
1.029709e+003,1.208710e+001
1.030673e+003,9.232239e+000
1.031637e+003,1.062036e+001
1.032601e+003,1.396588e+001
1.033566e+003,1.627142e+001
1.034530e+003,1.655493e+001
1.035494e+003,1.581824e+001
1.036458e+003,1.424420e+001
1.037422e+003,1.270557e+001
1.038387e+003,1.334595e+001
1.039351e+003,1.581433e+001
1.040315e+003,1.728845e+001
1.041279e+003,1.552362e+001
1.042244e+003,1.160028e+001
1.043208e+003,1.041010e+001
1.044172e+003,1.436609e+001
1.045136e+003,1.635785e+001
1.046101e+003,1.583356e+001
1.047065e+003,1.417926e+001
1.048029e+003,1.120288e+001
1.048993e+003,7.630676e+000
1.049958e+003,5.944397e+000
1.050922e+003,8.034424e+000
1.051886e+003,1.096844e+001
1.052850e+003,1.151880e+001
1.053814e+003,1.100513e+001
1.054779e+003,1.110773e+001
1.055743e+003,1.212903e+001
1.056707e+003,1.326392e+001
1.057671e+003,1.355286e+001
1.058636e+003,1.292871e+001
1.059600e+003,1.246405e+001
1.060564e+003,1.293054e+001
1.061528e+003,1.318677e+001
1.062493e+003,1.207825e+001
1.063457e+003,1.077252e+001
1.064421e+003,1.125867e+001
1.065385e+003,1.379889e+001
1.066349e+003,1.533002e+001
1.067314e+003,1.348212e+001
1.068278e+003,1.112024e+001
1.069242e+003,9.992798e+000
1.070206e+003,1.001093e+001
1.071171e+003,1.127960e+001
1.072135e+003,1.344611e+001
1.073099e+003,1.494171e+001
1.074063e+003,1.319299e+001
1.075028e+003,7.846741e+000
1.075992e+003,5.395386e+000
1.076956e+003,7.125000e+000
1.077920e+003,8.519653e+000
1.078885e+003,7.367188e+000
1.079849e+003,5.402344e+000
1.080813e+003,5.856445e+000
1.081777e+003,9.573669e+000
1.082741e+003,1.360797e+001
1.083706e+003,1.779968e+001
1.084670e+003,2.005780e+001
1.085634e+003,1.779773e+001
1.086598e+003,1.285114e+001
1.087563e+003,8.648865e+000
1.088527e+003,7.275513e+000
1.089491e+003,8.118896e+000
1.090455e+003,9.827820e+000
1.091420e+003,1.229230e+001
1.092384e+003,1.259473e+001
1.093348e+003,9.303650e+000
1.094312e+003,6.063354e+000
1.095276e+003,5.517212e+000
1.096241e+003,6.980225e+000
1.097205e+003,7.765137e+000
1.098169e+003,7.004089e+000
1.099133e+003,6.526428e+000
1.100098e+003,7.903564e+000
1.101062e+003,9.224670e+000
1.102026e+003,8.861084e+000
1.102990e+003,7.487366e+000
1.103955e+003,6.978394e+000
1.104919e+003,8.392212e+000
1.105883e+003,1.047711e+001
1.106847e+003,1.049188e+001
1.107812e+003,8.380859e+000
1.108776e+003,7.877991e+000
1.109740e+003,9.691223e+000
1.110704e+003,1.198389e+001
1.111668e+003,1.366296e+001
1.112633e+003,1.508264e+001
1.113597e+003,1.719684e+001
1.114561e+003,2.084375e+001
1.115525e+003,2.271075e+001
1.116490e+003,2.054016e+001
1.117454e+003,1.765173e+001
1.118418e+003,1.549347e+001
1.119382e+003,1.489221e+001
1.120347e+003,1.692181e+001
1.121311e+003,2.198663e+001
1.122275e+003,2.762640e+001
1.123239e+003,2.936975e+001
1.124203e+003,2.786652e+001
1.125168e+003,2.732367e+001
1.126132e+003,2.840363e+001
1.127096e+003,2.974237e+001
1.128060e+003,2.987195e+001
1.129025e+003,2.908875e+001
1.129989e+003,2.938940e+001
1.130953e+003,3.120892e+001
1.131917e+003,3.314783e+001
1.132882e+003,3.486908e+001
1.133846e+003,3.677161e+001
1.134810e+003,3.930951e+001
1.135774e+003,4.226172e+001
1.136739e+003,4.485956e+001
1.137703e+003,4.666980e+001
1.138667e+003,4.852216e+001
1.139631e+003,5.206769e+001
1.140595e+003,5.712445e+001
1.141560e+003,6.191876e+001
1.142524e+003,6.604480e+001
1.143488e+003,7.198462e+001
1.144452e+003,8.189447e+001
1.145417e+003,9.487122e+001
1.146381e+003,1.077356e+002
1.147345e+003,1.204548e+002
1.148309e+003,1.325759e+002
1.149274e+003,1.435278e+002
1.150238e+003,1.547122e+002
1.151202e+003,1.679500e+002
1.152166e+003,1.819964e+002
1.153130e+003,1.945630e+002
1.154095e+003,2.042557e+002
1.155059e+003,2.110019e+002
1.156023e+003,2.154209e+002
1.156987e+003,2.171590e+002
1.157952e+003,2.145796e+002
1.158916e+003,2.080122e+002
1.159880e+003,1.989782e+002
1.160844e+003,1.861285e+002
1.161809e+003,1.709195e+002
1.162773e+003,1.579938e+002
1.163737e+003,1.482451e+002
1.164701e+003,1.369468e+002
1.165666e+003,1.192294e+002
1.166630e+003,1.040901e+002
1.167594e+003,9.592676e+001
1.168558e+003,9.185986e+001
1.169522e+003,8.760431e+001
1.170487e+003,8.199377e+001
1.171451e+003,7.788550e+001
1.172415e+003,7.876324e+001
1.173379e+003,8.333521e+001
1.174344e+003,8.518707e+001
1.175308e+003,8.447937e+001
1.176272e+003,8.289740e+001
1.177236e+003,8.069226e+001
1.178201e+003,7.829999e+001
1.179165e+003,7.626007e+001
1.180129e+003,7.435931e+001
1.181093e+003,7.126764e+001
1.182057e+003,6.522925e+001
1.183022e+003,6.057874e+001
1.183986e+003,5.997333e+001
1.184950e+003,6.062415e+001
1.185914e+003,5.956433e+001
1.186879e+003,5.691064e+001
1.187843e+003,5.515887e+001
1.188807e+003,5.626642e+001
1.189771e+003,5.929767e+001
1.190736e+003,6.213983e+001
1.191700e+003,6.487341e+001
1.192664e+003,6.576459e+001
1.193628e+003,6.394543e+001
1.194593e+003,6.157526e+001
1.195557e+003,6.029767e+001
1.196521e+003,5.961322e+001
1.197485e+003,5.781287e+001
1.198449e+003,5.440271e+001
1.199414e+003,5.083051e+001
1.200378e+003,4.675079e+001
1.201342e+003,4.366858e+001
1.202306e+003,4.337421e+001
1.203271e+003,4.456836e+001
1.204235e+003,4.462604e+001
1.205199e+003,4.235419e+001
1.206163e+003,3.897015e+001
1.207128e+003,3.639221e+001
1.208092e+003,3.469855e+001
1.209056e+003,3.315674e+001
1.210020e+003,3.252600e+001
1.210984e+003,3.065338e+001
1.211949e+003,2.562421e+001
1.212913e+003,1.969257e+001
1.213877e+003,1.599115e+001
1.214841e+003,1.476630e+001
1.215806e+003,1.389185e+001
1.216770e+003,1.287823e+001
1.217734e+003,1.133154e+001
1.218698e+003,8.239990e+000
1.219663e+003,4.755188e+000
1.220627e+003,2.195374e+000
1.221591e+003,9.049072e-001
1.222555e+003,8.134155e-001
1.223520e+003,1.971863e+000
1.224484e+003,4.041077e+000
1.225448e+003,4.848816e+000
1.226412e+003,3.899658e+000
1.227376e+003,2.423340e+000
1.228341e+003,-8.299561e-001
1.229305e+003,-3.398804e+000
1.230269e+003,-3.422852e+000
1.231233e+003,-1.988525e+000
1.232198e+003,-1.378967e+000
1.233162e+003,-2.103271e+000
1.234126e+003,-2.397217e+000
1.235090e+003,-4.600830e-001
1.236055e+003,1.585510e+000
1.237019e+003,1.121338e+000
1.237983e+003,-1.118225e+000
1.238947e+003,-2.812378e+000
1.239911e+003,-2.856995e+000
1.240876e+003,-2.061218e+000
1.241840e+003,-1.710754e+000
1.242804e+003,-1.794373e+000
1.243768e+003,-2.195190e+000
1.244733e+003,-4.477539e+000
1.245697e+003,-4.825745e+000
1.246661e+003,-1.739197e+000
1.247625e+003,1.754639e+000
1.248590e+003,3.468994e+000
1.249554e+003,3.910278e+000
1.250518e+003,5.114197e+000
1.251482e+003,7.970764e+000
1.252447e+003,1.031458e+001
1.253411e+003,9.084534e+000
1.254375e+003,6.122070e+000
1.255339e+003,5.200256e+000
1.256303e+003,6.545898e+000
1.257268e+003,8.300476e+000
1.258232e+003,9.317322e+000
1.259196e+003,9.576782e+000
1.260160e+003,9.228943e+000
1.261125e+003,8.258240e+000
1.262089e+003,8.416992e+000
1.263053e+003,1.089691e+001
1.264017e+003,1.270966e+001
1.264982e+003,1.253033e+001
1.265946e+003,1.205347e+001
1.266910e+003,1.334094e+001
1.267874e+003,1.601770e+001
1.268839e+003,1.778442e+001
1.269803e+003,1.711298e+001
1.270767e+003,1.531073e+001
1.271731e+003,1.506012e+001
1.272695e+003,1.639624e+001
1.273660e+003,1.656073e+001
1.274624e+003,1.487463e+001
1.275588e+003,1.244110e+001
1.276552e+003,9.752319e+000
1.277517e+003,7.228088e+000
1.278481e+003,5.255859e+000
1.279445e+003,3.759949e+000
1.280409e+003,2.835571e+000
1.281374e+003,2.524902e+000
1.282338e+003,2.961243e+000
1.283302e+003,4.892212e+000
1.284266e+003,7.035828e+000
1.285230e+003,8.224792e+000
1.286195e+003,8.044556e+000
1.287159e+003,6.267761e+000
1.288123e+003,2.807983e+000
1.289087e+003,-1.409546e+000
1.290052e+003,-4.089600e+000
1.291016e+003,-5.161621e+000
1.291980e+003,-5.493530e+000
1.292944e+003,-4.973572e+000
1.293909e+003,-4.426331e+000
1.294873e+003,-3.350769e+000
1.295837e+003,-2.451172e+000
1.296801e+003,-3.692627e+000
1.297766e+003,-6.949158e+000
1.298730e+003,-7.753357e+000
1.299694e+003,-2.533508e+000
1.300658e+003,3.288635e+000
1.301622e+003,3.511658e+000
1.302587e+003,6.627197e-001
1.303551e+003,-1.749084e+000
1.304515e+003,-2.951599e+000
1.305479e+003,-3.773865e+000
1.306444e+003,-5.234497e+000
1.307408e+003,-6.729248e+000
1.308372e+003,-5.254395e+000
1.309336e+003,1.186340e+000
1.310301e+003,4.282410e+000
1.311265e+003,1.501587e+000
1.312229e+003,-1.639526e+000
1.313193e+003,-4.397949e+000
1.314157e+003,-6.307617e+000
1.315122e+003,-6.660889e+000
1.316086e+003,-5.803345e+000
1.317050e+003,-5.089050e+000
1.318014e+003,-5.302490e+000
1.318979e+003,-5.822021e+000
1.319943e+003,-5.905640e+000
1.320907e+003,-5.339539e+000
1.321871e+003,-3.349060e+000
1.322836e+003,5.383301e-001
1.323800e+003,2.976013e+000
1.324764e+003,9.601440e-001
1.325728e+003,-2.869141e+000
1.326693e+003,-3.893250e+000
1.327657e+003,-2.084106e+000
1.328621e+003,-7.960815e-001
1.329585e+003,-4.878540e-001
1.330549e+003,2.539063e-002
1.331514e+003,9.506836e-001
1.332478e+003,1.522766e+000
1.333442e+003,8.039551e-001
1.334406e+003,-6.423340e-001
1.335371e+003,-8.567505e-001
1.336335e+003,1.237854e+000
1.337299e+003,3.624695e+000
1.338263e+003,2.144226e+000
1.339228e+003,-3.927917e+000
1.340192e+003,-6.911621e+000
1.341156e+003,-5.136597e+000
1.342120e+003,-3.020508e+000
1.343084e+003,-1.249146e+000
1.344049e+003,2.281494e-001
1.345013e+003,2.185852e+000
1.345977e+003,4.238525e+000
1.346941e+003,4.570618e+000
1.347906e+003,2.403809e+000
1.348870e+003,6.866455e-002
1.349834e+003,-5.142822e-001
1.350798e+003,1.451416e-001
1.351763e+003,1.807922e+000
1.352727e+003,4.151306e+000
1.353691e+003,4.684814e+000
1.354655e+003,2.116882e+000
1.355620e+003,-1.023682e+000
1.356584e+003,-1.503540e+000
1.357548e+003,4.227295e-001
1.358512e+003,1.561218e+000
1.359476e+003,1.023987e+000
1.360441e+003,8.059692e-001
1.361405e+003,3.008423e+000
1.362369e+003,4.228149e+000
1.363333e+003,1.588135e+000
1.364298e+003,-2.495728e+000
1.365262e+003,-4.157959e+000
1.366226e+003,-2.851196e+000
1.367190e+003,-1.632507e+000
1.368155e+003,-3.254333e+000
1.369119e+003,-6.664246e+000
1.370083e+003,-8.519592e+000
1.371047e+003,-8.446655e+000
1.372011e+003,-7.409119e+000
1.372976e+003,-4.527710e+000
1.373940e+003,-2.476257e+000
1.374904e+003,-2.450195e+000
1.375868e+003,-3.405884e+000
1.376833e+003,-4.299438e+000
1.377797e+003,-5.042603e+000
1.378761e+003,-5.845032e+000
1.379725e+003,-6.918945e+000
1.380690e+003,-7.414612e+000
1.381654e+003,-5.974182e+000
1.382618e+003,-3.500244e+000
1.383582e+003,-9.046631e-001
1.384547e+003,1.588013e+000
1.385511e+003,3.208496e+000
1.386475e+003,3.346497e+000
1.387439e+003,2.708313e+000
1.388403e+003,2.179688e+000
1.389368e+003,1.735168e+000
1.390332e+003,2.437195e+000
1.391296e+003,5.671021e+000
1.392260e+003,7.658447e+000
1.393225e+003,6.852112e+000
1.394189e+003,5.359314e+000
1.395153e+003,3.974854e+000
1.396117e+003,2.885315e+000
1.397082e+003,2.132019e+000
1.398046e+003,1.814209e+000
1.399010e+003,2.230835e+000
1.399974e+003,3.550110e+000
1.400938e+003,4.759949e+000
1.401903e+003,3.298523e+000
1.402867e+003,-1.453308e+000
1.403831e+003,-2.350159e+000
1.404795e+003,3.308838e+000
1.405760e+003,8.288513e+000
1.406724e+003,9.442322e+000
1.407688e+003,8.161804e+000
1.408652e+003,5.960876e+000
1.409617e+003,3.664490e+000
1.410581e+003,2.854004e+000
1.411545e+003,4.465454e+000
1.412509e+003,5.910278e+000
1.413474e+003,3.527588e+000
1.414438e+003,-3.273315e-001
1.415402e+003,-7.389526e-001
1.416366e+003,2.029846e+000
1.417330e+003,4.346680e+000
1.418295e+003,4.807678e+000
1.419259e+003,4.382751e+000
1.420223e+003,3.759460e+000
1.421187e+003,2.867188e+000
1.422152e+003,2.367615e+000
1.423116e+003,2.599121e+000
1.424080e+003,3.207397e+000
1.425044e+003,3.621704e+000
1.426009e+003,4.381531e+000
1.426973e+003,7.077393e+000
1.427937e+003,9.395508e+000
1.428901e+003,7.784668e+000
1.429865e+003,2.956116e+000
1.430830e+003,-8.587036e-001
1.431794e+003,-9.970093e-001
1.432758e+003,9.216309e-001
1.433722e+003,1.974792e+000
1.434687e+003,2.336670e+000
1.435651e+003,5.104309e+000
1.436615e+003,1.337079e+001
1.437579e+003,1.748474e+001
1.438544e+003,1.335394e+001
1.439508e+003,8.391602e+000
1.440472e+003,7.860107e+000
1.441436e+003,1.038428e+001
1.442401e+003,1.290924e+001
1.443365e+003,1.435657e+001
1.444329e+003,1.396472e+001
1.445293e+003,1.072784e+001
1.446257e+003,6.935120e+000
1.447222e+003,7.400940e+000
1.448186e+003,1.118738e+001
1.449150e+003,1.331763e+001
1.450114e+003,1.294092e+001
1.451079e+003,1.228918e+001
1.452043e+003,1.325018e+001
1.453007e+003,1.442078e+001
1.453971e+003,1.310181e+001
1.454936e+003,9.606384e+000
1.455900e+003,7.338745e+000
1.456864e+003,7.183167e+000
1.457828e+003,8.235901e+000
1.458792e+003,1.127203e+001
1.459757e+003,1.376520e+001
1.460721e+003,1.266956e+001
1.461685e+003,9.709412e+000
1.462649e+003,9.169556e+000
1.463614e+003,1.196576e+001
1.464578e+003,1.388074e+001
1.465542e+003,1.061316e+001
1.466506e+003,4.477600e+000
1.467471e+003,3.020508e+000
1.468435e+003,7.743225e+000
1.469399e+003,1.121844e+001
1.470363e+003,1.205048e+001
1.471328e+003,1.228870e+001
1.472292e+003,1.220728e+001
1.473256e+003,1.132990e+001
1.474220e+003,8.920776e+000
1.475184e+003,6.210754e+000
1.476149e+003,4.834412e+000
1.477113e+003,5.273865e+000
1.478077e+003,7.526672e+000
1.479041e+003,1.193445e+001
1.480006e+003,1.749304e+001
1.480970e+003,2.011127e+001
1.481934e+003,1.873663e+001
1.482898e+003,1.736328e+001
1.483863e+003,1.516150e+001
1.484827e+003,1.399146e+001
1.485791e+003,1.519385e+001
1.486755e+003,1.737982e+001
1.487719e+003,1.950073e+001
1.488684e+003,2.114697e+001
1.489648e+003,2.180304e+001
1.490612e+003,2.149243e+001
1.491576e+003,2.144659e+001
1.492541e+003,2.235870e+001
1.493505e+003,2.433167e+001
1.494469e+003,2.844946e+001
1.495433e+003,3.391742e+001
1.496398e+003,3.736237e+001
1.497362e+003,3.805481e+001
1.498326e+003,3.935846e+001
1.499290e+003,4.363281e+001
1.500255e+003,4.894562e+001
1.501219e+003,5.210590e+001
1.502183e+003,5.356146e+001
1.503147e+003,5.658887e+001
1.504111e+003,6.180597e+001
1.505076e+003,6.915491e+001
1.506040e+003,7.946899e+001
1.507004e+003,9.122760e+001
1.507968e+003,1.034410e+002
1.508933e+003,1.156775e+002
1.509897e+003,1.263409e+002
1.510861e+003,1.358262e+002
1.511825e+003,1.483958e+002
1.512790e+003,1.675702e+002
1.513754e+003,1.896180e+002
1.514718e+003,2.071805e+002
1.515682e+003,2.200284e+002
1.516646e+003,2.363964e+002
1.517611e+003,2.601703e+002
1.518575e+003,2.804484e+002
1.519539e+003,2.933215e+002
1.520503e+003,3.029299e+002
1.521468e+003,3.120839e+002
1.522432e+003,3.185973e+002
1.523396e+003,3.185173e+002
1.524360e+003,3.121440e+002
1.525325e+003,3.040110e+002
1.526289e+003,2.972219e+002
1.527253e+003,2.896151e+002
1.528217e+003,2.768429e+002
1.529182e+003,2.590674e+002
1.530146e+003,2.422601e+002
1.531110e+003,2.288669e+002
1.532074e+003,2.111564e+002
1.533039e+003,1.841672e+002
1.534003e+003,1.572183e+002
1.534967e+003,1.345001e+002
1.535931e+003,1.150591e+002
1.536896e+003,9.760089e+001
1.537860e+003,8.181219e+001
1.538824e+003,6.713171e+001
1.539788e+003,5.331207e+001
1.540752e+003,4.244604e+001
1.541717e+003,3.773718e+001
1.542681e+003,3.827246e+001
1.543645e+003,3.718359e+001
1.544609e+003,3.422253e+001
1.545573e+003,3.091357e+001
1.546538e+003,2.585321e+001
1.547502e+003,2.144440e+001
1.548466e+003,1.834607e+001
1.549430e+003,1.720709e+001
1.550395e+003,1.987225e+001
1.551359e+003,2.451593e+001
1.552323e+003,2.629443e+001
1.553287e+003,2.369086e+001
1.554252e+003,1.998279e+001
1.555216e+003,1.785474e+001
1.556180e+003,1.691296e+001
1.557144e+003,1.664789e+001
1.558109e+003,1.718787e+001
1.559073e+003,1.611481e+001
1.560037e+003,1.150641e+001
1.561001e+003,8.314087e+000
1.561966e+003,9.632202e+000
1.562930e+003,1.245587e+001
1.563894e+003,1.386719e+001
1.564858e+003,1.422437e+001
1.565823e+003,1.528253e+001
1.566787e+003,1.723199e+001
1.567751e+003,1.782318e+001
1.568715e+003,1.554761e+001
1.569679e+003,1.252753e+001
1.570644e+003,1.121027e+001
1.571608e+003,1.098370e+001
1.572572e+003,1.051788e+001
1.573536e+003,9.961060e+000
1.574500e+003,9.830505e+000
1.575465e+003,9.983459e+000
1.576429e+003,1.086334e+001
1.577393e+003,1.375598e+001
1.578357e+003,1.703278e+001
1.579322e+003,1.689819e+001
1.580286e+003,1.359210e+001
1.581250e+003,1.263586e+001
1.582214e+003,1.642847e+001
1.583179e+003,2.012073e+001
1.584143e+003,2.015039e+001
1.585107e+003,1.777301e+001
1.586071e+003,1.401422e+001
1.587036e+003,1.010742e+001
1.588000e+003,9.277710e+000
1.588964e+003,1.215033e+001
1.589928e+003,1.549310e+001
1.590893e+003,1.761218e+001
1.591857e+003,1.868793e+001
1.592821e+003,1.868799e+001
1.593785e+003,1.785767e+001
1.594750e+003,1.719379e+001
1.595714e+003,1.658972e+001
1.596678e+003,1.681390e+001
1.597642e+003,1.899225e+001
1.598606e+003,2.095038e+001
1.599571e+003,2.034296e+001
1.600535e+003,1.904626e+001
1.601499e+003,1.995300e+001
1.602463e+003,2.257397e+001
1.603427e+003,2.352667e+001
1.604392e+003,2.127631e+001
1.605356e+003,1.855835e+001
1.606320e+003,1.840857e+001
1.607284e+003,1.987354e+001
1.608249e+003,2.031018e+001
1.609213e+003,1.970923e+001
1.610177e+003,1.801868e+001
1.611141e+003,1.447095e+001
1.612106e+003,1.175000e+001
1.613070e+003,1.141577e+001
1.614034e+003,1.213898e+001
1.614998e+003,1.331512e+001
1.615963e+003,1.478723e+001
1.616927e+003,1.701025e+001
1.617891e+003,1.952112e+001
1.618855e+003,1.928229e+001
1.619820e+003,1.390186e+001
1.620784e+003,7.116333e+000
1.621748e+003,4.839172e+000
1.622712e+003,6.788574e+000
1.623677e+003,9.025513e+000
1.624641e+003,1.166101e+001
1.625605e+003,1.397229e+001
1.626569e+003,1.526135e+001
1.627533e+003,1.562598e+001
1.628498e+003,1.520917e+001
1.629462e+003,1.453314e+001
1.630426e+003,1.379504e+001
1.631390e+003,1.306305e+001
1.632354e+003,1.253467e+001
1.633319e+003,1.219122e+001
1.634283e+003,1.161523e+001
1.635247e+003,1.032758e+001
1.636211e+003,8.976563e+000
1.637176e+003,9.279785e+000
1.638140e+003,1.116876e+001
1.639104e+003,1.144592e+001
1.640068e+003,9.385925e+000
1.641033e+003,7.624268e+000
1.641997e+003,6.830627e+000
1.642961e+003,6.732361e+000
1.643925e+003,7.018555e+000
1.644890e+003,7.917969e+000
1.645854e+003,9.950134e+000
1.646818e+003,1.265411e+001
1.647782e+003,1.506146e+001
1.648747e+003,1.682562e+001
1.649711e+003,1.808862e+001
1.650675e+003,1.926465e+001
1.651639e+003,1.997736e+001
1.652604e+003,1.880499e+001
1.653568e+003,1.567029e+001
1.654532e+003,1.257520e+001
1.655496e+003,9.151123e+000
1.656460e+003,7.569580e+000
1.657425e+003,1.021191e+001
1.658389e+003,1.271185e+001
1.659353e+003,1.217584e+001
1.660317e+003,1.067151e+001
1.661281e+003,1.033875e+001
1.662246e+003,1.097083e+001
1.663210e+003,1.156604e+001
1.664174e+003,1.187030e+001
1.665138e+003,1.183319e+001
1.666103e+003,1.109119e+001
1.667067e+003,1.013312e+001
1.668031e+003,1.068835e+001
1.668995e+003,1.258643e+001
1.669960e+003,1.182220e+001
1.670924e+003,7.218445e+000
1.671888e+003,4.148987e+000
1.672852e+003,4.784973e+000
1.673817e+003,6.297485e+000
1.674781e+003,7.353210e+000
1.675745e+003,7.899475e+000
1.676709e+003,7.619690e+000
1.677674e+003,6.763428e+000
1.678638e+003,6.063477e+000
1.679602e+003,5.757324e+000
1.680566e+003,5.653198e+000
1.681531e+003,6.048645e+000
1.682495e+003,6.329773e+000
1.683459e+003,4.646301e+000
1.684423e+003,1.315002e+000
1.685387e+003,-5.924072e-001
1.686352e+003,-6.488647e-001
1.687316e+003,2.799683e-001
1.688280e+003,2.382690e+000
1.689244e+003,4.521729e+000
1.690208e+003,6.019409e+000
1.691173e+003,6.821472e+000
1.692137e+003,6.821289e+000
1.693101e+003,6.350586e+000
1.694065e+003,5.687439e+000
1.695030e+003,4.632568e+000
1.695994e+003,3.705994e+000
1.696958e+003,3.290100e+000
1.697922e+003,3.399536e+000
1.698887e+003,4.616333e+000
1.699851e+003,6.354553e+000
1.700815e+003,6.148254e+000
1.701779e+003,3.730530e+000
1.702744e+003,2.279175e+000
1.703708e+003,3.297607e+000
1.704672e+003,4.708801e+000
1.705636e+003,4.642212e+000
1.706601e+003,3.729248e+000
1.707565e+003,3.409180e+000
1.708529e+003,3.631531e+000
1.709493e+003,3.602051e+000
1.710458e+003,3.170044e+000
1.711422e+003,2.620605e+000
1.712386e+003,1.832642e+000
1.713350e+003,1.689392e+000
1.714314e+003,3.578796e+000
1.715279e+003,5.687317e+000
1.716243e+003,4.604980e+000
1.717207e+003,9.492188e-001
1.718171e+003,-1.433594e+000
1.719135e+003,-1.422913e+000
1.720100e+003,-1.192017e-001
1.721064e+003,2.138123e+000
1.722028e+003,3.738220e+000
1.722992e+003,1.915527e+000
1.723957e+003,-2.099609e+000
1.724921e+003,-2.437439e+000
1.725885e+003,1.293823e+000
1.726849e+003,2.890015e+000
1.727814e+003,4.382324e-001
1.728778e+003,-1.981140e+000
1.729742e+003,-3.329834e+000
1.730706e+003,-3.434753e+000
1.731671e+003,-1.517090e+000
1.732635e+003,1.013550e+000
1.733599e+003,2.044373e+000
1.734563e+003,1.478882e+000
1.735528e+003,1.013184e-002
1.736492e+003,-2.110352e+000
1.737456e+003,-3.905457e+000
1.738420e+003,-4.171387e+000
1.739385e+003,-3.438293e+000
1.740349e+003,-2.746643e+000
1.741313e+003,-1.616699e+000
1.742277e+003,-1.955688e+000
1.743241e+003,-5.341675e+000
1.744206e+003,-7.183716e+000
1.745170e+003,-6.181763e+000
1.746134e+003,-4.637329e+000
1.747098e+003,-3.413330e+000
1.748063e+003,-2.680603e+000
1.749027e+003,-2.981079e+000
1.749991e+003,-3.671509e+000
1.750955e+003,-2.761414e+000
1.751919e+003,-7.489014e-002
1.752884e+003,1.234802e+000
1.753848e+003,-1.495056e+000
1.754812e+003,-5.972351e+000
1.755776e+003,-7.257141e+000
1.756741e+003,-5.239197e+000
1.757705e+003,-4.261841e+000
1.758669e+003,-4.940796e+000
1.759633e+003,-5.522583e+000
1.760598e+003,-5.981873e+000
1.761562e+003,-6.541260e+000
1.762526e+003,-7.285400e+000
1.763490e+003,-7.627380e+000
1.764455e+003,-7.288879e+000
1.765419e+003,-6.128357e+000
1.766383e+003,-3.442993e+000
1.767347e+003,6.683350e-002
1.768312e+003,1.925415e+000
1.769276e+003,8.836060e-001
1.770240e+003,-1.855713e+000
1.771204e+003,-5.444763e+000
1.772168e+003,-8.637573e+000
1.773133e+003,-8.706604e+000
1.774097e+003,-6.016663e+000
1.775061e+003,-4.054382e+000
1.776025e+003,-3.412537e+000
1.776990e+003,-3.848694e+000
1.777954e+003,-5.724915e+000
1.778918e+003,-6.718872e+000
1.779882e+003,-4.434875e+000
1.780846e+003,-1.418396e+000
1.781811e+003,-9.457397e-001
1.782775e+003,-2.311951e+000
1.783739e+003,-3.406738e+000
1.784703e+003,-3.822571e+000
1.785668e+003,-4.229797e+000
1.786632e+003,-5.279846e+000
1.787596e+003,-6.575378e+000
1.788560e+003,-8.002380e+000
1.789525e+003,-8.653992e+000
1.790489e+003,-6.833313e+000
1.791453e+003,-3.675903e+000
1.792417e+003,-2.634155e+000
1.793382e+003,-4.207520e+000
1.794346e+003,-5.681396e+000
1.795310e+003,-5.689941e+000
1.796274e+003,-4.599670e+000
1.797239e+003,-2.409729e+000
1.798203e+003,5.670776e-001
1.799167e+003,2.284790e+000
1.800131e+003,2.100830e+000
1.801095e+003,9.979248e-001
1.802060e+003,-1.409546e+000
1.803024e+003,-2.934875e+000
1.803988e+003,-3.195374e+000
1.804952e+003,-3.147644e+000
1.805917e+003,-3.774353e+000
1.806881e+003,-3.880127e+000
1.807845e+003,-1.047668e+000
1.808809e+003,3.028137e+000
1.809773e+003,4.398071e+000
1.810738e+003,2.585938e+000
1.811702e+003,7.316284e-001
1.812666e+003,7.766724e-001
1.813630e+003,1.624268e+000
1.814595e+003,1.917786e+000
1.815559e+003,1.558289e+000
1.816523e+003,2.879028e-001
1.817487e+003,-1.944397e+000
1.818452e+003,-3.812561e+000
1.819416e+003,-5.438293e+000
1.820380e+003,-5.302307e+000
1.821344e+003,-1.895325e+000
1.822309e+003,1.246216e+000
1.823273e+003,1.944214e+000
1.824237e+003,1.875854e+000
1.825201e+003,2.931213e+000
1.826166e+003,4.334778e+000
1.827130e+003,3.725769e+000
1.828094e+003,6.688232e-001
1.829058e+003,-2.242371e+000
1.830022e+003,-3.891907e+000
1.830987e+003,-4.322815e+000
1.831951e+003,-2.691345e+000
1.832915e+003,-4.906616e-001
1.833879e+003,-2.396851e-001
1.834844e+003,-1.303467e+000
1.835808e+003,-1.399719e+000
1.836772e+003,-2.020264e-001
1.837736e+003,1.361450e+000
1.838700e+003,2.815735e+000
1.839665e+003,2.779663e+000
1.840629e+003,-2.799072e-001
1.841593e+003,-4.406982e+000
1.842557e+003,-5.591614e+000
1.843522e+003,-3.889221e+000
1.844486e+003,-2.465576e+000
1.845450e+003,-8.337402e-001
1.846414e+003,2.315674e-001
1.847379e+003,6.487427e-001
1.848343e+003,-3.164673e-001
1.849307e+003,-4.225281e+000
1.850271e+003,-7.869568e+000
1.851236e+003,-8.500549e+000
1.852200e+003,-7.470093e+000
1.853164e+003,-6.986511e+000
1.854128e+003,-7.485596e+000
1.855093e+003,-8.511597e+000
1.856057e+003,-9.461609e+000
1.857021e+003,-8.881165e+000
1.857985e+003,-5.371582e+000
1.858949e+003,-1.466187e+000
1.859914e+003,-2.400269e+000
1.860878e+003,-6.835938e+000
1.861842e+003,-6.959900e+000
1.862806e+003,-2.693604e+000
1.863771e+003,-5.310059e-001
1.864735e+003,-2.115967e+000
1.865699e+003,-3.673035e+000
1.866663e+003,-3.221924e+000
1.867627e+003,-2.424500e+000
1.868592e+003,-3.304626e+000
1.869556e+003,-4.971680e+000
1.870520e+003,-4.864929e+000
1.871484e+003,-3.421082e+000
1.872449e+003,-3.628845e+000
1.873413e+003,-5.743286e+000
1.874377e+003,-6.502380e+000
1.875341e+003,-5.058594e+000
1.876306e+003,-3.301453e+000
1.877270e+003,-1.797363e+000
1.878234e+003,-1.024414e+000
1.879198e+003,-1.793335e+000
1.880163e+003,-3.264465e+000
1.881127e+003,-4.002319e+000
1.882091e+003,-3.793884e+000
1.883055e+003,-3.250305e+000
1.884020e+003,-2.633728e+000
1.884984e+003,-1.347961e+000
1.885948e+003,1.253723e+000
1.886912e+003,3.707642e+000
1.887876e+003,2.739075e+000
1.888841e+003,-1.192261e+000
1.889805e+003,-2.642883e+000
1.890769e+003,-1.233582e+000
1.891733e+003,7.725220e-001
1.892698e+003,3.614014e+000
1.893662e+003,5.383667e+000
1.894626e+003,4.856689e+000
1.895590e+003,4.013977e+000
1.896554e+003,4.517761e+000
1.897519e+003,5.531738e+000
1.898483e+003,5.984802e+000
1.899447e+003,5.626099e+000
1.900411e+003,4.373596e+000
1.901376e+003,2.231812e+000
1.902340e+003,7.416992e-001
1.903304e+003,1.181519e+000
1.904268e+003,1.186951e+000
1.905233e+003,-1.644531e+000
1.906197e+003,-4.487061e+000
1.907161e+003,-4.015747e+000
1.908125e+003,-1.502380e+000
1.909090e+003,5.344849e-001
1.910054e+003,1.611206e+000
1.911018e+003,2.320862e+000
1.911982e+003,2.990417e+000
1.912947e+003,3.399902e+000
1.913911e+003,3.311829e+000
1.914875e+003,2.684937e+000
1.915839e+003,1.198853e+000
1.916803e+003,-8.975830e-001
1.917768e+003,-8.449097e-001
1.918732e+003,2.233459e+000
1.919696e+003,2.741150e+000
1.920660e+003,-5.239868e-001
1.921625e+003,-2.714172e+000
1.922589e+003,-3.199158e+000
1.923553e+003,-2.175964e+000
1.924517e+003,1.932068e+000
1.925481e+003,6.100586e+000
1.926446e+003,7.628235e+000
1.927410e+003,7.344116e+000
1.928374e+003,6.768982e+000
1.929338e+003,5.882751e+000
1.930303e+003,4.440430e+000
1.931267e+003,2.464050e+000
1.932231e+003,1.040527e+000
1.933195e+003,5.179443e-001
1.934160e+003,2.596436e-001
1.935124e+003,-3.757935e-001
1.936088e+003,-1.023743e+000
1.937052e+003,-8.060303e-001
1.938017e+003,8.123779e-002
1.938981e+003,7.332764e-001
1.939945e+003,1.055725e+000
1.940909e+003,2.033264e+000
1.941874e+003,3.862427e+000
1.942838e+003,4.336060e+000
1.943802e+003,1.464294e+000
1.944766e+003,-2.135376e+000
1.945730e+003,-1.404846e+000
1.946695e+003,2.800171e+000
1.947659e+003,4.940125e+000
1.948623e+003,4.807617e+000
1.949587e+003,3.989014e+000
1.950552e+003,2.332214e+000
1.951516e+003,1.996155e+000
1.952480e+003,4.232239e+000
1.953444e+003,6.802246e+000
1.954408e+003,8.452454e+000
1.955373e+003,8.944275e+000
1.956337e+003,7.998352e+000
1.957301e+003,6.177185e+000
1.958265e+003,4.189941e+000
1.959230e+003,1.944153e+000
1.960194e+003,8.603516e-001
1.961158e+003,5.718994e-001
1.962122e+003,1.392822e+000
1.963087e+003,4.997559e+000
1.964051e+003,7.943726e+000
1.965015e+003,8.830933e+000
1.965979e+003,8.127014e+000
1.966944e+003,4.546509e+000
1.967908e+003,1.799927e-001
1.968872e+003,-1.057068e+000
1.969836e+003,9.942017e-001
1.970801e+003,3.749451e+000
1.971765e+003,6.018250e+000
1.972729e+003,7.528198e+000
1.973693e+003,7.904724e+000
1.974657e+003,7.765686e+000
1.975622e+003,8.003662e+000
1.976586e+003,8.277466e+000
1.977550e+003,7.889221e+000
1.978514e+003,7.031372e+000
1.979479e+003,6.169617e+000
1.980443e+003,5.359619e+000
1.981407e+003,5.240662e+000
1.982371e+003,6.191223e+000
1.983335e+003,7.347656e+000
1.984300e+003,7.905090e+000
1.985264e+003,8.106323e+000
1.986228e+003,8.541138e+000
1.987192e+003,9.070190e+000
1.988157e+003,8.956421e+000
1.989121e+003,8.079224e+000
1.990085e+003,7.797913e+000
1.991049e+003,8.898254e+000
1.992014e+003,9.332092e+000
1.992978e+003,8.288269e+000
1.993942e+003,7.002625e+000
1.994906e+003,5.387329e+000
1.995871e+003,4.222351e+000
1.996835e+003,4.820557e+000
1.997799e+003,5.975403e+000
1.998763e+003,5.188293e+000
1.999728e+003,2.936890e+000
