5.003444e+002,1.986625e+002
5.013087e+002,1.938125e+002
5.022729e+002,1.878169e+002
5.032371e+002,1.821760e+002
5.042014e+002,1.792484e+002
5.051656e+002,1.787079e+002
5.061298e+002,1.777755e+002
5.070941e+002,1.734377e+002
5.080583e+002,1.639170e+002
5.090225e+002,1.593359e+002
5.099868e+002,1.618358e+002
5.109510e+002,1.652050e+002
5.119152e+002,1.667378e+002
5.128795e+002,1.663097e+002
5.138437e+002,1.647693e+002
5.148079e+002,1.628219e+002
5.157722e+002,1.598628e+002
5.167364e+002,1.539240e+002
5.177006e+002,1.455420e+002
5.186649e+002,1.380911e+002
5.196291e+002,1.378691e+002
5.205933e+002,1.410426e+002
5.215576e+002,1.421216e+002
5.225218e+002,1.401248e+002
5.234860e+002,1.366298e+002
5.244503e+002,1.352643e+002
5.254145e+002,1.379044e+002
5.263787e+002,1.387762e+002
5.273430e+002,1.372458e+002
5.283072e+002,1.344111e+002
5.292714e+002,1.313590e+002
5.302357e+002,1.267771e+002
5.311999e+002,1.226571e+002
5.321641e+002,1.204741e+002
5.331284e+002,1.193622e+002
5.340926e+002,1.182256e+002
5.350568e+002,1.162726e+002
5.360211e+002,1.142063e+002
5.369853e+002,1.146187e+002
5.379495e+002,1.155460e+002
5.389138e+002,1.146285e+002
5.398780e+002,1.110575e+002
5.408422e+002,1.061788e+002
5.418065e+002,1.042386e+002
5.427707e+002,1.047791e+002
5.437349e+002,1.048071e+002
5.446992e+002,1.034030e+002
5.456634e+002,1.008621e+002
5.466276e+002,9.846851e+001
5.475919e+002,9.672498e+001
5.485561e+002,9.506946e+001
5.495203e+002,9.275598e+001
5.504846e+002,9.020667e+001
5.514488e+002,8.867493e+001
5.524130e+002,9.014392e+001
5.533773e+002,9.004224e+001
5.543415e+002,8.470337e+001
5.553057e+002,7.769104e+001
5.562700e+002,7.276770e+001
5.572342e+002,7.211829e+001
5.581984e+002,7.333057e+001
5.591627e+002,7.051758e+001
5.601269e+002,6.566956e+001
5.610911e+002,6.214087e+001
5.620554e+002,6.153857e+001
5.630196e+002,6.319812e+001
5.639838e+002,6.342188e+001
5.649481e+002,6.132471e+001
5.659123e+002,5.918640e+001
5.668765e+002,5.856299e+001
5.678408e+002,5.909656e+001
5.688050e+002,5.858594e+001
5.697692e+002,5.417615e+001
5.707335e+002,4.979529e+001
5.716977e+002,4.724731e+001
5.726619e+002,4.577185e+001
5.736262e+002,4.415271e+001
5.745904e+002,4.155798e+001
5.755546e+002,3.925916e+001
5.765189e+002,3.836707e+001
5.774831e+002,3.817542e+001
5.784473e+002,3.869189e+001
5.794116e+002,4.017834e+001
5.803758e+002,4.280225e+001
5.813400e+002,4.280273e+001
5.823043e+002,3.859094e+001
5.832685e+002,3.426514e+001
5.842327e+002,3.173816e+001
5.851970e+002,3.120251e+001
5.861612e+002,3.120190e+001
5.871254e+002,3.111292e+001
5.880897e+002,3.117798e+001
5.890539e+002,3.111157e+001
5.900181e+002,3.093079e+001
5.909824e+002,3.091528e+001
5.919466e+002,3.157922e+001
5.929108e+002,3.236865e+001
5.938751e+002,3.283789e+001
5.948393e+002,3.292310e+001
5.958035e+002,3.242749e+001
5.967678e+002,3.132129e+001
5.977320e+002,3.006140e+001
5.986962e+002,3.064478e+001
5.996605e+002,3.244812e+001
6.006247e+002,3.334863e+001
6.015889e+002,3.201257e+001
6.025532e+002,2.871057e+001
6.035174e+002,2.634424e+001
6.044816e+002,2.605627e+001
6.054459e+002,2.579504e+001
6.064101e+002,2.524500e+001
6.073743e+002,2.446643e+001
6.083386e+002,2.362854e+001
6.093028e+002,2.271179e+001
6.102670e+002,2.246936e+001
6.112313e+002,2.402454e+001
6.121955e+002,2.605017e+001
6.131597e+002,2.631299e+001
6.141240e+002,2.335168e+001
6.150882e+002,1.857324e+001
6.160524e+002,1.974939e+001
6.170167e+002,2.607800e+001
6.179809e+002,3.077710e+001
6.189451e+002,2.985657e+001
6.199094e+002,2.392346e+001
6.208736e+002,2.003931e+001
6.218378e+002,2.114429e+001
6.228021e+002,2.246606e+001
6.237663e+002,2.438928e+001
6.247305e+002,2.630383e+001
6.256948e+002,2.685706e+001
6.266590e+002,2.432654e+001
6.276232e+002,2.152234e+001
6.285875e+002,2.073096e+001
6.295517e+002,2.124768e+001
6.305159e+002,2.258118e+001
6.314802e+002,2.415234e+001
6.324444e+002,2.498938e+001
6.334086e+002,2.215051e+001
6.343729e+002,1.734290e+001
6.353371e+002,1.370166e+001
6.363013e+002,1.222412e+001
6.372656e+002,1.228882e+001
6.382298e+002,1.222791e+001
6.391940e+002,1.219434e+001
6.401583e+002,1.124817e+001
6.411225e+002,9.846924e+000
6.420867e+002,8.596558e+000
6.430510e+002,7.810669e+000
6.440152e+002,7.236206e+000
6.449794e+002,5.944214e+000
6.459437e+002,3.026489e+000
6.469079e+002,-2.752686e-001
6.478721e+002,-2.657593e+000
6.488364e+002,-3.646118e+000
6.498006e+002,-4.071411e+000
6.507648e+002,-6.363647e+000
6.517291e+002,-9.576172e+000
6.526933e+002,-1.046313e+001
6.536575e+002,-8.336182e+000
6.546218e+002,-4.872437e+000
6.555860e+002,-3.229614e+000
6.565502e+002,-4.271484e+000
6.575145e+002,-5.888794e+000
6.584787e+002,-9.751587e+000
6.594429e+002,-1.273950e+001
6.604072e+002,-1.127930e+001
6.613714e+002,-4.227905e+000
6.623356e+002,7.342529e-001
6.632999e+002,-2.612915e+000
6.642641e+002,-7.512817e+000
6.652283e+002,-1.059314e+001
6.661926e+002,-1.105078e+001
6.671568e+002,-9.842529e+000
6.681210e+002,-7.953613e+000
6.690853e+002,-6.097778e+000
6.700495e+002,-5.578369e+000
6.710137e+002,-6.275391e+000
6.719780e+002,-6.703247e+000
6.729422e+002,-5.186279e+000
6.739064e+002,-1.235840e+000
6.748707e+002,1.613770e-001
6.758349e+002,-2.310547e+000
6.767991e+002,-5.238770e+000
6.777634e+002,-7.258057e+000
6.787276e+002,-7.867676e+000
6.796918e+002,-6.620728e+000
6.806561e+002,-2.052124e+000
6.816203e+002,1.893921e+000
6.825845e+002,4.088501e+000
6.835488e+002,4.588501e+000
6.845130e+002,3.444824e+000
6.854772e+002,5.985107e-001
6.864415e+002,-2.375000e+000
6.874057e+002,-2.888062e+000
6.883699e+002,-2.165527e+000
6.893342e+002,-1.564087e+000
6.902984e+002,-1.651489e+000
6.912626e+002,-2.147583e+000
6.922269e+002,-2.383545e+000
6.931911e+002,-7.792969e-001
6.941553e+002,6.434326e-001
6.951196e+002,8.143311e-001
6.960838e+002,-2.783203e-002
6.970480e+002,-1.184937e+000
6.980123e+002,-2.595459e+000
6.989765e+002,-3.185303e+000
6.999407e+002,-2.990723e+000
7.009050e+002,-1.972900e+000
7.018692e+002,8.598633e-001
7.028334e+002,5.248413e+000
7.037977e+002,8.516602e+000
7.047619e+002,5.436890e+000
7.057261e+002,-8.865967e-001
7.066904e+002,-5.184937e+000
7.076546e+002,-6.645508e+000
7.086188e+002,-6.323608e+000
7.095831e+002,-5.828247e+000
7.105473e+002,-5.508545e+000
7.115115e+002,-4.857666e+000
7.124758e+002,-3.198242e+000
7.134400e+002,-2.292358e+000
7.144042e+002,-3.322754e+000
7.153685e+002,-6.040771e+000
7.163327e+002,-8.284546e+000
7.172969e+002,-9.549438e+000
7.182612e+002,-9.413452e+000
7.192254e+002,-6.719849e+000
7.201896e+002,-2.804321e+000
7.211539e+002,8.020020e-002
7.221181e+002,1.107178e-001
7.230823e+002,-1.997070e+000
7.240466e+002,-4.611450e+000
7.250108e+002,-7.007935e+000
7.259750e+002,-7.663940e+000
7.269393e+002,-5.884888e+000
7.279035e+002,-2.796021e+000
7.288677e+002,-2.675537e+000
7.298320e+002,-8.041626e+000
7.307962e+002,-1.083350e+001
7.317604e+002,-9.068237e+000
7.327247e+002,-4.871826e+000
7.336889e+002,-1.656860e+000
7.346531e+002,-1.382202e+000
7.356174e+002,-2.136230e+000
7.365816e+002,-1.437012e+000
7.375458e+002,-7.324219e-002
7.385101e+002,1.352661e+000
7.394743e+002,2.602539e+000
7.404385e+002,3.736084e+000
7.414028e+002,4.621704e+000
7.423670e+002,4.040527e+000
7.433312e+002,2.453857e+000
7.442955e+002,7.458496e-001
7.452597e+002,-7.126465e-001
7.462239e+002,-2.435669e+000
7.471882e+002,-5.552368e+000
7.481524e+002,-4.838867e+000
7.491166e+002,2.278809e+000
7.500809e+002,7.869507e+000
7.510451e+002,8.389648e+000
7.520093e+002,4.816528e+000
7.529736e+002,1.296143e+000
7.539378e+002,3.702393e-001
7.549020e+002,5.919189e-001
7.558663e+002,5.727539e-001
7.568306e+002,8.295898e-001
7.577948e+002,2.108276e+000
7.587590e+002,4.604248e+000
7.597233e+002,7.439819e+000
7.606875e+002,9.440430e+000
7.616517e+002,1.107288e+001
7.626160e+002,1.172717e+001
7.635802e+002,1.125952e+001
7.645444e+002,9.957153e+000
7.655087e+002,8.103149e+000
7.664729e+002,4.873535e+000
7.674371e+002,2.548950e+000
7.684014e+002,2.784424e-001
7.693656e+002,-5.649414e-001
7.703298e+002,2.144531e+000
7.712941e+002,8.154175e+000
7.722583e+002,1.305896e+001
7.732225e+002,1.207983e+001
7.741868e+002,1.006702e+001
7.751510e+002,1.123999e+001
7.761152e+002,1.478528e+001
7.770795e+002,1.789148e+001
7.780437e+002,1.798389e+001
7.790079e+002,1.537000e+001
7.799722e+002,1.429175e+001
7.809364e+002,1.489575e+001
7.819006e+002,1.496985e+001
7.828649e+002,1.298450e+001
7.838291e+002,1.039648e+001
7.847933e+002,1.163806e+001
7.857576e+002,2.053687e+001
7.867218e+002,2.487000e+001
7.876860e+002,2.014807e+001
7.886503e+002,1.356384e+001
7.896145e+002,1.130078e+001
7.905787e+002,1.484277e+001
7.915430e+002,1.971594e+001
7.925072e+002,2.073291e+001
7.934714e+002,1.960413e+001
7.944357e+002,1.852869e+001
7.953999e+002,1.823181e+001
7.963641e+002,1.892151e+001
7.973284e+002,2.065540e+001
7.982926e+002,2.353992e+001
7.992568e+002,2.557666e+001
8.002211e+002,2.697839e+001
8.011853e+002,2.510864e+001
8.021495e+002,1.720435e+001
8.031138e+002,6.566772e+000
8.040780e+002,2.751099e+000
8.050422e+002,1.120117e+001
8.060065e+002,1.890039e+001
8.069707e+002,2.078845e+001
8.079349e+002,1.977454e+001
8.088992e+002,1.874048e+001
8.098634e+002,1.908789e+001
8.108276e+002,2.042456e+001
8.117919e+002,2.202905e+001
8.127561e+002,2.272681e+001
8.137203e+002,2.212329e+001
8.146846e+002,2.081689e+001
8.156488e+002,1.945117e+001
8.166130e+002,1.838379e+001
8.175773e+002,1.752100e+001
8.185415e+002,1.640222e+001
8.195057e+002,1.266138e+001
8.204700e+002,1.039624e+001
8.214342e+002,1.224536e+001
8.223984e+002,1.665759e+001
8.233627e+002,1.942444e+001
8.243269e+002,1.875391e+001
8.252911e+002,1.741968e+001
8.262554e+002,1.640808e+001
8.272196e+002,1.597021e+001
8.281838e+002,1.638928e+001
8.291481e+002,1.768799e+001
8.301123e+002,1.964001e+001
8.310765e+002,2.214185e+001
8.320408e+002,2.479218e+001
8.330050e+002,2.578333e+001
8.339692e+002,2.504852e+001
8.349335e+002,2.305981e+001
8.358977e+002,1.945435e+001
8.368619e+002,1.375458e+001
8.378262e+002,1.261768e+001
8.387904e+002,2.024634e+001
8.397546e+002,2.681549e+001
8.407189e+002,3.038159e+001
8.416831e+002,3.126532e+001
8.426473e+002,2.959229e+001
8.436116e+002,2.453516e+001
8.445758e+002,2.121576e+001
8.455400e+002,2.673010e+001
8.465043e+002,3.479480e+001
8.474685e+002,3.942474e+001
8.484327e+002,3.930566e+001
8.493970e+002,3.636371e+001
8.503612e+002,3.285413e+001
8.513254e+002,2.806787e+001
8.522897e+002,2.710040e+001
8.532539e+002,3.170703e+001
8.542181e+002,3.652222e+001
8.551824e+002,3.870123e+001
8.561466e+002,3.922021e+001
8.571108e+002,4.146161e+001
8.580751e+002,4.627515e+001
8.590393e+002,4.958643e+001
8.600035e+002,4.933807e+001
8.609678e+002,4.841882e+001
8.619320e+002,5.055786e+001
8.628962e+002,5.692902e+001
8.638605e+002,6.392578e+001
8.648247e+002,6.541418e+001
8.657889e+002,6.356854e+001
8.667532e+002,6.313245e+001
8.677174e+002,6.471954e+001
8.686816e+002,6.763013e+001
8.696459e+002,7.158228e+001
8.706101e+002,7.733673e+001
8.715743e+002,8.055933e+001
8.725386e+002,7.899707e+001
8.735028e+002,7.816693e+001
8.744670e+002,7.900647e+001
8.754313e+002,8.072711e+001
8.763955e+002,8.246484e+001
8.773597e+002,8.444958e+001
8.783240e+002,8.590619e+001
8.792882e+002,8.439160e+001
8.802524e+002,8.281616e+001
8.812167e+002,8.467279e+001
8.821809e+002,9.005884e+001
8.831451e+002,9.587152e+001
8.841094e+002,9.803162e+001
8.850736e+002,9.724561e+001
8.860378e+002,1.003997e+002
8.870021e+002,1.083873e+002
8.879663e+002,1.153389e+002
8.889305e+002,1.169987e+002
8.898948e+002,1.142933e+002
8.908590e+002,1.130269e+002
8.918232e+002,1.151605e+002
8.927875e+002,1.172195e+002
8.937517e+002,1.179828e+002
8.947159e+002,1.187582e+002
8.956802e+002,1.203837e+002
8.966444e+002,1.226671e+002
8.976086e+002,1.247139e+002
8.985729e+002,1.264189e+002
8.995371e+002,1.278736e+002
9.005013e+002,1.279781e+002
9.014656e+002,1.274321e+002
9.024298e+002,1.284706e+002
9.033940e+002,1.326301e+002
9.043583e+002,1.388427e+002
9.053225e+002,1.424220e+002
9.062867e+002,1.395045e+002
9.072510e+002,1.379700e+002
9.082152e+002,1.408854e+002
9.091794e+002,1.447015e+002
9.101437e+002,1.449055e+002
9.111079e+002,1.406682e+002
9.120721e+002,1.377979e+002
9.130364e+002,1.410037e+002
9.140006e+002,1.444391e+002
9.149648e+002,1.455643e+002
9.159291e+002,1.449537e+002
9.168933e+002,1.434964e+002
9.178575e+002,1.415852e+002
9.188218e+002,1.394473e+002
9.197860e+002,1.393010e+002
9.207502e+002,1.409434e+002
9.217145e+002,1.414701e+002
9.226787e+002,1.414516e+002
9.236429e+002,1.405210e+002
9.246072e+002,1.368264e+002
9.255714e+002,1.289026e+002
9.265356e+002,1.234762e+002
9.274999e+002,1.244916e+002
9.284641e+002,1.245376e+002
9.294283e+002,1.196686e+002
9.303926e+002,1.127737e+002
9.313568e+002,1.096361e+002
9.323210e+002,1.134205e+002
9.332853e+002,1.190086e+002
9.342495e+002,1.174951e+002
9.352137e+002,1.121810e+002
9.361780e+002,1.083660e+002
9.371422e+002,1.076414e+002
9.381064e+002,1.080526e+002
9.390707e+002,1.061278e+002
9.400349e+002,1.003662e+002
9.409991e+002,9.823798e+001
9.419634e+002,1.027460e+002
9.429276e+002,1.062047e+002
9.438918e+002,1.069364e+002
9.448561e+002,1.055073e+002
9.458203e+002,1.022855e+002
9.467845e+002,9.682971e+001
9.477488e+002,9.328760e+001
9.487130e+002,9.693109e+001
9.496772e+002,1.019545e+002
9.506415e+002,1.038773e+002
9.516057e+002,1.024503e+002
9.525699e+002,9.967798e+001
9.535342e+002,9.740033e+001
9.544984e+002,9.545264e+001
9.554626e+002,9.468982e+001
9.564269e+002,9.612006e+001
9.573911e+002,9.779089e+001
9.583553e+002,9.842981e+001
9.593196e+002,9.897076e+001
9.602838e+002,1.015474e+002
9.612480e+002,1.069948e+002
9.622123e+002,1.103196e+002
9.631765e+002,1.091675e+002
9.641407e+002,1.070124e+002
9.651050e+002,1.051655e+002
9.660692e+002,1.032009e+002
9.670334e+002,9.969440e+001
9.679977e+002,9.400891e+001
9.689619e+002,8.876947e+001
9.699261e+002,8.943811e+001
9.708904e+002,9.387854e+001
9.718546e+002,9.796698e+001
9.728188e+002,1.005293e+002
9.737831e+002,1.025930e+002
9.747473e+002,1.055927e+002
9.757115e+002,1.096730e+002
9.766758e+002,1.151343e+002
9.776400e+002,1.257329e+002
9.786042e+002,1.341167e+002
9.795685e+002,1.382941e+002
9.805327e+002,1.384713e+002
9.814969e+002,1.352694e+002
9.824612e+002,1.292607e+002
9.834254e+002,1.217772e+002
9.843896e+002,1.118444e+002
9.853539e+002,1.013192e+002
9.863181e+002,9.183813e+001
9.872823e+002,8.352814e+001
9.882466e+002,7.726160e+001
9.892108e+002,7.446570e+001
9.901750e+002,7.536969e+001
9.911393e+002,7.587305e+001
9.921035e+002,7.362842e+001
9.930677e+002,7.149567e+001
9.940320e+002,6.827002e+001
9.949962e+002,6.733966e+001
9.959604e+002,7.325134e+001
9.969247e+002,8.600513e+001
9.978889e+002,9.770001e+001
9.988531e+002,1.030588e+002
9.998174e+002,1.064619e+002
1.000782e+003,1.115507e+002
1.001746e+003,1.172946e+002
1.002710e+003,1.218137e+002
1.003674e+003,1.241566e+002
1.004639e+003,1.247378e+002
1.005603e+003,1.243325e+002
1.006567e+003,1.225819e+002
1.007531e+003,1.191151e+002
1.008495e+003,1.127137e+002
1.009460e+003,1.072443e+002
1.010424e+003,1.059676e+002
1.011388e+003,1.078849e+002
1.012352e+003,1.082607e+002
1.013317e+003,1.051705e+002
1.014281e+003,1.025912e+002
1.015245e+003,1.034706e+002
1.016209e+003,1.032794e+002
1.017174e+003,9.797095e+001
1.018138e+003,8.827936e+001
1.019102e+003,7.857422e+001
1.020066e+003,7.263184e+001
1.021031e+003,6.924274e+001
1.021995e+003,6.372864e+001
1.022959e+003,5.600842e+001
1.023923e+003,4.817535e+001
1.024887e+003,4.036475e+001
1.025852e+003,3.343109e+001
1.026816e+003,2.943158e+001
1.027780e+003,2.970868e+001
1.028744e+003,2.870068e+001
1.029709e+003,2.405444e+001
1.030673e+003,2.010468e+001
1.031637e+003,1.804382e+001
1.032601e+003,1.714398e+001
1.033566e+003,1.679816e+001
1.034530e+003,1.689459e+001
1.035494e+003,1.677905e+001
1.036458e+003,1.477625e+001
1.037422e+003,1.224487e+001
1.038387e+003,1.227936e+001
1.039351e+003,1.446729e+001
1.040315e+003,1.555487e+001
1.041279e+003,1.303021e+001
1.042244e+003,8.217041e+000
1.043208e+003,6.641479e+000
1.044172e+003,9.924805e+000
1.045136e+003,1.284045e+001
1.046101e+003,1.589099e+001
1.047065e+003,1.849384e+001
1.048029e+003,2.028436e+001
1.048993e+003,2.104822e+001
1.049958e+003,2.037030e+001
1.050922e+003,1.769678e+001
1.051886e+003,1.543622e+001
1.052850e+003,1.640234e+001
1.053814e+003,1.880365e+001
1.054779e+003,2.011877e+001
1.055743e+003,1.986938e+001
1.056707e+003,1.981482e+001
1.057671e+003,2.223370e+001
1.058636e+003,2.703638e+001
1.059600e+003,2.939911e+001
1.060564e+003,2.925360e+001
1.061528e+003,2.837421e+001
1.062493e+003,2.546082e+001
1.063457e+003,2.181036e+001
1.064421e+003,1.891650e+001
1.065385e+003,1.721667e+001
1.066349e+003,1.726501e+001
1.067314e+003,2.084216e+001
1.068278e+003,2.458966e+001
1.069242e+003,2.671375e+001
1.070206e+003,2.750708e+001
1.071171e+003,2.686292e+001
1.072135e+003,2.473828e+001
1.073099e+003,2.192902e+001
1.074063e+003,2.019208e+001
1.075028e+003,1.980469e+001
1.075992e+003,2.044360e+001
1.076956e+003,2.291791e+001
1.077920e+003,2.403705e+001
1.078885e+003,2.258759e+001
1.079849e+003,1.981641e+001
1.080813e+003,1.715607e+001
1.081777e+003,1.452271e+001
1.082741e+003,1.402173e+001
1.083706e+003,1.834064e+001
1.084670e+003,2.263287e+001
1.085634e+003,2.506750e+001
1.086598e+003,2.523224e+001
1.087563e+003,2.261487e+001
1.088527e+003,1.741064e+001
1.089491e+003,1.156348e+001
1.090455e+003,7.961731e+000
1.091420e+003,6.463501e+000
1.092384e+003,6.829285e+000
1.093348e+003,9.896179e+000
1.094312e+003,1.245355e+001
1.095276e+003,1.249390e+001
1.096241e+003,1.125549e+001
1.097205e+003,1.178656e+001
1.098169e+003,1.491266e+001
1.099133e+003,1.713165e+001
1.100098e+003,1.633588e+001
1.101062e+003,1.552667e+001
1.102026e+003,1.728485e+001
1.102990e+003,2.063275e+001
1.103955e+003,2.261304e+001
1.104919e+003,2.134863e+001
1.105883e+003,1.830365e+001
1.106847e+003,1.689728e+001
1.107812e+003,1.710461e+001
1.108776e+003,1.692267e+001
1.109740e+003,1.614319e+001
1.110704e+003,1.524884e+001
1.111668e+003,1.448993e+001
1.112633e+003,1.447302e+001
1.113597e+003,1.683118e+001
1.114561e+003,2.308734e+001
1.115525e+003,2.732947e+001
1.116490e+003,2.606726e+001
1.117454e+003,2.394012e+001
1.118418e+003,2.421887e+001
1.119382e+003,2.687286e+001
1.120347e+003,2.991071e+001
1.121311e+003,3.168726e+001
1.122275e+003,3.250342e+001
1.123239e+003,3.473737e+001
1.124203e+003,3.880762e+001
1.125168e+003,4.119238e+001
1.126132e+003,4.130145e+001
1.127096e+003,4.104486e+001
1.128060e+003,4.107953e+001
1.129025e+003,4.142261e+001
1.129989e+003,4.331262e+001
1.130953e+003,4.756079e+001
1.131917e+003,5.113666e+001
1.132882e+003,5.238000e+001
1.133846e+003,5.406329e+001
1.134810e+003,5.835596e+001
1.135774e+003,6.456219e+001
1.136739e+003,7.035925e+001
1.137703e+003,7.442371e+001
1.138667e+003,7.831317e+001
1.139631e+003,8.509192e+001
1.140595e+003,9.442340e+001
1.141560e+003,1.033058e+002
1.142524e+003,1.112606e+002
1.143488e+003,1.216412e+002
1.144452e+003,1.369092e+002
1.145417e+003,1.562219e+002
1.146381e+003,1.763665e+002
1.147345e+003,1.964105e+002
1.148309e+003,2.192358e+002
1.149274e+003,2.484855e+002
1.150238e+003,2.780222e+002
1.151202e+003,3.047161e+002
1.152166e+003,3.299120e+002
1.153130e+003,3.577260e+002
1.154095e+003,3.890136e+002
1.155059e+003,4.167926e+002
1.156023e+003,4.323295e+002
1.156987e+003,4.354265e+002
1.157952e+003,4.301915e+002
1.158916e+003,4.169671e+002
1.159880e+003,4.003030e+002
1.160844e+003,3.811326e+002
1.161809e+003,3.585828e+002
1.162773e+003,3.319407e+002
1.163737e+003,3.003602e+002
1.164701e+003,2.687631e+002
1.165666e+003,2.359290e+002
1.166630e+003,2.068018e+002
1.167594e+003,1.827301e+002
1.168558e+003,1.635995e+002
1.169522e+003,1.499072e+002
1.170487e+003,1.412764e+002
1.171451e+003,1.359121e+002
1.172415e+003,1.319510e+002
1.173379e+003,1.290000e+002
1.174344e+003,1.258188e+002
1.175308e+003,1.226034e+002
1.176272e+003,1.193788e+002
1.177236e+003,1.160386e+002
1.178201e+003,1.131348e+002
1.179165e+003,1.115848e+002
1.180129e+003,1.110355e+002
1.181093e+003,1.081445e+002
1.182057e+003,1.010900e+002
1.183022e+003,9.377881e+001
1.183986e+003,8.615027e+001
1.184950e+003,8.008795e+001
1.185914e+003,7.764453e+001
1.186879e+003,7.888403e+001
1.187843e+003,8.294098e+001
1.188807e+003,8.908069e+001
1.189771e+003,9.540417e+001
1.190736e+003,9.627179e+001
1.191700e+003,9.094458e+001
1.192664e+003,8.700458e+001
1.193628e+003,8.639795e+001
1.194593e+003,8.625012e+001
1.195557e+003,8.453693e+001
1.196521e+003,8.144702e+001
1.197485e+003,7.782935e+001
1.198449e+003,7.374628e+001
1.199414e+003,6.966125e+001
1.200378e+003,6.673254e+001
1.201342e+003,6.311078e+001
1.202306e+003,5.594098e+001
1.203271e+003,4.707788e+001
1.204235e+003,4.061652e+001
1.205199e+003,3.860876e+001
1.206163e+003,3.945044e+001
1.207128e+003,4.060187e+001
1.208092e+003,4.220245e+001
1.209056e+003,4.077808e+001
1.210020e+003,3.638019e+001
1.210984e+003,2.977368e+001
1.211949e+003,1.936768e+001
1.212913e+003,7.726929e+000
1.213877e+003,-1.748230e+000
1.214841e+003,-8.702576e+000
1.215806e+003,-1.454309e+001
1.216770e+003,-1.989795e+001
1.217734e+003,-2.428577e+001
1.218698e+003,-2.774438e+001
1.219663e+003,-3.049731e+001
1.220627e+003,-3.238043e+001
1.221591e+003,-3.360590e+001
1.222555e+003,-3.507996e+001
1.223520e+003,-3.758130e+001
1.224484e+003,-4.061517e+001
1.225448e+003,-4.279449e+001
1.226412e+003,-4.429779e+001
1.227376e+003,-4.453259e+001
1.228341e+003,-4.164838e+001
1.229305e+003,-3.994202e+001
1.230269e+003,-4.280713e+001
1.231233e+003,-4.826514e+001
1.232198e+003,-5.207898e+001
1.233162e+003,-5.292480e+001
1.234126e+003,-5.249139e+001
1.235090e+003,-5.167249e+001
1.236055e+003,-5.108466e+001
1.237019e+003,-5.194263e+001
1.237983e+003,-5.357532e+001
1.238947e+003,-5.323938e+001
1.239911e+003,-4.961621e+001
1.240876e+003,-4.581708e+001
1.241840e+003,-4.718408e+001
1.242804e+003,-5.415314e+001
1.243768e+003,-5.769611e+001
1.244733e+003,-5.543610e+001
1.245697e+003,-5.250714e+001
1.246661e+003,-4.824194e+001
1.247625e+003,-4.522211e+001
1.248590e+003,-4.583453e+001
1.249554e+003,-4.878497e+001
1.250518e+003,-5.097742e+001
1.251482e+003,-5.136700e+001
1.252447e+003,-5.008612e+001
1.253411e+003,-4.588507e+001
1.254375e+003,-4.001459e+001
1.255339e+003,-3.534448e+001
1.256303e+003,-3.183148e+001
1.257268e+003,-2.934979e+001
1.258232e+003,-2.840125e+001
1.259196e+003,-2.879401e+001
1.260160e+003,-2.971118e+001
1.261125e+003,-3.101294e+001
1.262089e+003,-3.096643e+001
1.263053e+003,-2.952551e+001
1.264017e+003,-2.735022e+001
1.264982e+003,-2.357690e+001
1.265946e+003,-1.954132e+001
1.266910e+003,-1.649207e+001
1.267874e+003,-1.445667e+001
1.268839e+003,-1.226727e+001
1.269803e+003,-9.093872e+000
1.270767e+003,-6.646912e+000
1.271731e+003,-8.862366e+000
1.272695e+003,-1.534076e+001
1.273660e+003,-1.919019e+001
1.274624e+003,-2.016608e+001
1.275588e+003,-2.074567e+001
1.276552e+003,-2.122430e+001
1.277517e+003,-2.177850e+001
1.278481e+003,-2.347583e+001
1.279445e+003,-2.660620e+001
1.280409e+003,-2.977148e+001
1.281374e+003,-3.308594e+001
1.282338e+003,-3.533771e+001
1.283302e+003,-3.553571e+001
1.284266e+003,-3.479791e+001
1.285230e+003,-3.390234e+001
1.286195e+003,-3.342462e+001
1.287159e+003,-3.418842e+001
1.288123e+003,-3.669031e+001
1.289087e+003,-4.001001e+001
1.290052e+003,-4.225574e+001
1.291016e+003,-4.380151e+001
1.291980e+003,-4.393469e+001
1.292944e+003,-4.101599e+001
1.293909e+003,-3.971930e+001
1.294873e+003,-4.386511e+001
1.295837e+003,-4.882703e+001
1.296801e+003,-4.675006e+001
1.297766e+003,-3.736340e+001
1.298730e+003,-3.109076e+001
1.299694e+003,-3.504437e+001
1.300658e+003,-4.180127e+001
1.301622e+003,-4.249945e+001
1.302587e+003,-4.011664e+001
1.303551e+003,-3.950726e+001
1.304515e+003,-4.131549e+001
1.305479e+003,-4.338617e+001
1.306444e+003,-4.431714e+001
1.307408e+003,-4.445288e+001
1.308372e+003,-4.414563e+001
1.309336e+003,-4.308417e+001
1.310301e+003,-4.267218e+001
1.311265e+003,-4.367377e+001
1.312229e+003,-4.393591e+001
1.313193e+003,-4.229962e+001
1.314157e+003,-4.016675e+001
1.315122e+003,-3.876563e+001
1.316086e+003,-3.857123e+001
1.317050e+003,-3.993396e+001
1.318014e+003,-4.303265e+001
1.318979e+003,-4.631885e+001
1.319943e+003,-4.752679e+001
1.320907e+003,-4.641980e+001
1.321871e+003,-4.329681e+001
1.322836e+003,-3.796405e+001
1.323800e+003,-3.347083e+001
1.324764e+003,-3.085083e+001
1.325728e+003,-3.018066e+001
1.326693e+003,-3.284570e+001
1.327657e+003,-3.920093e+001
1.328621e+003,-4.323511e+001
1.329585e+003,-4.113416e+001
1.330549e+003,-3.764288e+001
1.331514e+003,-3.643365e+001
1.332478e+003,-3.620959e+001
1.333442e+003,-3.485706e+001
1.334406e+003,-3.262805e+001
1.335371e+003,-3.193420e+001
1.336335e+003,-3.415765e+001
1.337299e+003,-3.723444e+001
1.338263e+003,-3.728558e+001
1.339228e+003,-3.383521e+001
1.340192e+003,-3.164307e+001
1.341156e+003,-3.183105e+001
1.342120e+003,-3.156744e+001
1.343084e+003,-2.966522e+001
1.344049e+003,-2.868451e+001
1.345013e+003,-3.149420e+001
1.345977e+003,-3.640613e+001
1.346941e+003,-3.834052e+001
1.347906e+003,-3.534637e+001
1.348870e+003,-3.214728e+001
1.349834e+003,-3.396558e+001
1.350798e+003,-3.812561e+001
1.351763e+003,-3.857233e+001
1.352727e+003,-3.583984e+001
1.353691e+003,-3.403644e+001
1.354655e+003,-3.476196e+001
1.355620e+003,-3.625653e+001
1.356584e+003,-3.629828e+001
1.357548e+003,-3.494934e+001
1.358512e+003,-3.439270e+001
1.359476e+003,-3.633154e+001
1.360441e+003,-3.632617e+001
1.361405e+003,-2.991992e+001
1.362369e+003,-2.447559e+001
1.363333e+003,-2.434863e+001
1.364298e+003,-2.705676e+001
1.365262e+003,-2.865210e+001
1.366226e+003,-2.832727e+001
1.367190e+003,-2.857556e+001
1.368155e+003,-3.167511e+001
1.369119e+003,-3.629602e+001
1.370083e+003,-3.810498e+001
1.371047e+003,-3.621497e+001
1.372011e+003,-3.380841e+001
1.372976e+003,-3.102960e+001
1.373940e+003,-2.855334e+001
1.374904e+003,-2.575616e+001
1.375868e+003,-2.355554e+001
1.376833e+003,-2.417902e+001
1.377797e+003,-2.727386e+001
1.378761e+003,-2.858936e+001
1.379725e+003,-2.568585e+001
1.380690e+003,-2.218610e+001
1.381654e+003,-2.265918e+001
1.382618e+003,-2.423474e+001
1.383582e+003,-2.254401e+001
1.384547e+003,-1.780536e+001
1.385511e+003,-1.340741e+001
1.386475e+003,-1.102368e+001
1.387439e+003,-1.063531e+001
1.388403e+003,-1.326624e+001
1.389368e+003,-1.894080e+001
1.390332e+003,-2.025323e+001
1.391296e+003,-1.305786e+001
1.392260e+003,-8.923828e+000
1.393225e+003,-1.282904e+001
1.394189e+003,-1.778052e+001
1.395153e+003,-2.047473e+001
1.396117e+003,-2.126520e+001
1.397082e+003,-2.090546e+001
1.398046e+003,-1.982416e+001
1.399010e+003,-1.870752e+001
1.399974e+003,-1.846484e+001
1.400938e+003,-1.927673e+001
1.401903e+003,-2.030798e+001
1.402867e+003,-2.059149e+001
1.403831e+003,-1.955975e+001
1.404795e+003,-1.718866e+001
1.405760e+003,-1.475659e+001
1.406724e+003,-1.269165e+001
1.407688e+003,-1.232245e+001
1.408652e+003,-1.505914e+001
1.409617e+003,-1.985339e+001
1.410581e+003,-2.373914e+001
1.411545e+003,-2.571918e+001
1.412509e+003,-2.570862e+001
1.413474e+003,-2.256555e+001
1.414438e+003,-1.875610e+001
1.415402e+003,-1.782239e+001
1.416366e+003,-1.899658e+001
1.417330e+003,-1.952014e+001
1.418295e+003,-1.835992e+001
1.419259e+003,-1.603699e+001
1.420223e+003,-1.269653e+001
1.421187e+003,-9.009766e+000
1.422152e+003,-7.669434e+000
1.423116e+003,-9.008240e+000
1.424080e+003,-1.003143e+001
1.425044e+003,-1.067773e+001
1.426009e+003,-1.094971e+001
1.426973e+003,-1.072144e+001
1.427937e+003,-1.021936e+001
1.428901e+003,-9.427307e+000
1.429865e+003,-8.278992e+000
1.430830e+003,-6.991760e+000
1.431794e+003,-5.911682e+000
1.432758e+003,-5.051575e+000
1.433722e+003,-3.907837e+000
1.434687e+003,-1.869690e+000
1.435651e+003,1.505005e+000
1.436615e+003,6.202698e+000
1.437579e+003,9.110535e+000
1.438544e+003,9.618896e+000
1.439508e+003,9.013306e+000
1.440472e+003,8.273438e+000
1.441436e+003,7.601013e+000
1.442401e+003,6.467773e+000
1.443365e+003,4.745789e+000
1.444329e+003,3.729431e+000
1.445293e+003,4.652649e+000
1.446257e+003,6.654114e+000
1.447222e+003,8.099243e+000
1.448186e+003,8.903320e+000
1.449150e+003,8.716675e+000
1.450114e+003,7.157043e+000
1.451079e+003,5.384888e+000
1.452043e+003,4.204590e+000
1.453007e+003,3.613953e+000
1.453971e+003,3.234375e+000
1.454936e+003,2.914368e+000
1.455900e+003,3.347046e+000
1.456864e+003,5.558350e+000
1.457828e+003,6.249084e+000
1.458792e+003,9.191895e-002
1.459757e+003,-5.835388e+000
1.460721e+003,-4.237122e+000
1.461685e+003,1.670227e+000
1.462649e+003,5.509644e+000
1.463614e+003,5.640259e+000
1.464578e+003,3.336853e+000
1.465542e+003,-1.008789e+000
1.466506e+003,-6.197327e+000
1.467471e+003,-7.953186e+000
1.468435e+003,-5.151550e+000
1.469399e+003,-1.913879e+000
1.470363e+003,1.599915e+000
1.471328e+003,4.326782e+000
1.472292e+003,4.913818e+000
1.473256e+003,4.816650e+000
1.474220e+003,6.407532e+000
1.475184e+003,8.773560e+000
1.476149e+003,8.686584e+000
1.477113e+003,5.369202e+000
1.478077e+003,2.296326e+000
1.479041e+003,3.231201e+000
1.480006e+003,7.429321e+000
1.480970e+003,1.157312e+001
1.481934e+003,1.548572e+001
1.482898e+003,1.780603e+001
1.483863e+003,1.737622e+001
1.484827e+003,1.694849e+001
1.485791e+003,1.755286e+001
1.486755e+003,1.895959e+001
1.487719e+003,2.047260e+001
1.488684e+003,2.212738e+001
1.489648e+003,2.480536e+001
1.490612e+003,2.898108e+001
1.491576e+003,3.373279e+001
1.492541e+003,3.814838e+001
1.493505e+003,4.234399e+001
1.494469e+003,4.607294e+001
1.495433e+003,4.920380e+001
1.496398e+003,5.513513e+001
1.497362e+003,6.638672e+001
1.498326e+003,7.618677e+001
1.499290e+003,7.853033e+001
1.500255e+003,7.903510e+001
1.501219e+003,8.525946e+001
1.502183e+003,9.648920e+001
1.503147e+003,1.080248e+002
1.504111e+003,1.186365e+002
1.505076e+003,1.305637e+002
1.506040e+003,1.453453e+002
1.507004e+003,1.621165e+002
1.507968e+003,1.789769e+002
1.508933e+003,1.972136e+002
1.509897e+003,2.201735e+002
1.510861e+003,2.489735e+002
1.511825e+003,2.799496e+002
1.512790e+003,3.098082e+002
1.513754e+003,3.400522e+002
1.514718e+003,3.749120e+002
1.515682e+003,4.138739e+002
1.516646e+003,4.519911e+002
1.517611e+003,4.910067e+002
1.518575e+003,5.254426e+002
1.519539e+003,5.533291e+002
1.520503e+003,5.774760e+002
1.521468e+003,6.018213e+002
1.522432e+003,6.214983e+002
1.523396e+003,6.292823e+002
1.524360e+003,6.249019e+002
1.525325e+003,6.138331e+002
1.526289e+003,5.998600e+002
1.527253e+003,5.826539e+002
1.528217e+003,5.612159e+002
1.529182e+003,5.359370e+002
1.530146e+003,5.081112e+002
1.531110e+003,4.786492e+002
1.532074e+003,4.436382e+002
1.533039e+003,3.976739e+002
1.534003e+003,3.507102e+002
1.534967e+003,3.080421e+002
1.535931e+003,2.680710e+002
1.536896e+003,2.261219e+002
1.537860e+003,1.844106e+002
1.538824e+003,1.509922e+002
1.539788e+003,1.294688e+002
1.540752e+003,1.138895e+002
1.541717e+003,9.671881e+001
1.542681e+003,7.910352e+001
1.543645e+003,6.638019e+001
1.544609e+003,6.015454e+001
1.545573e+003,5.669830e+001
1.546538e+003,5.763470e+001
1.547502e+003,5.773346e+001
1.548466e+003,5.410236e+001
1.549430e+003,5.076721e+001
1.550395e+003,5.231226e+001
1.551359e+003,5.719733e+001
1.552323e+003,6.084119e+001
1.553287e+003,6.162830e+001
1.554252e+003,6.058893e+001
1.555216e+003,5.862512e+001
1.556180e+003,5.515381e+001
1.557144e+003,4.801941e+001
1.558109e+003,3.729291e+001
1.559073e+003,3.005847e+001
1.560037e+003,2.696027e+001
1.561001e+003,2.480408e+001
1.561966e+003,2.322021e+001
1.562930e+003,2.276508e+001
1.563894e+003,2.367468e+001
1.564858e+003,2.558069e+001
1.565823e+003,2.858539e+001
1.566787e+003,3.242963e+001
1.567751e+003,3.398145e+001
1.568715e+003,3.091345e+001
1.569679e+003,2.722217e+001
1.570644e+003,2.878412e+001
1.571608e+003,3.285889e+001
1.572572e+003,3.132074e+001
1.573536e+003,2.407074e+001
1.574500e+003,2.054431e+001
1.575465e+003,2.586877e+001
1.576429e+003,3.217432e+001
1.577393e+003,3.199957e+001
1.578357e+003,2.855420e+001
1.579322e+003,2.884125e+001
1.580286e+003,3.318628e+001
1.581250e+003,3.691956e+001
1.582214e+003,3.852655e+001
1.583179e+003,3.963196e+001
1.584143e+003,4.156885e+001
1.585107e+003,4.297784e+001
1.586071e+003,4.207703e+001
1.587036e+003,4.019122e+001
1.588000e+003,3.987854e+001
1.588964e+003,4.137366e+001
1.589928e+003,4.368481e+001
1.590893e+003,4.682397e+001
1.591857e+003,4.994086e+001
1.592821e+003,5.169513e+001
1.593785e+003,5.233008e+001
1.594750e+003,5.259039e+001
1.595714e+003,5.218750e+001
1.596678e+003,5.245142e+001
1.597642e+003,5.443207e+001
1.598606e+003,5.660419e+001
1.599571e+003,5.805634e+001
1.600535e+003,5.908514e+001
1.601499e+003,5.948627e+001
1.602463e+003,5.946185e+001
1.603427e+003,6.054974e+001
1.604392e+003,6.358459e+001
1.605356e+003,6.650897e+001
1.606320e+003,6.720062e+001
1.607284e+003,6.624017e+001
1.608249e+003,6.477344e+001
1.609213e+003,6.274475e+001
1.610177e+003,6.257574e+001
1.611141e+003,6.565771e+001
1.612106e+003,6.817206e+001
1.613070e+003,6.769373e+001
1.614034e+003,6.637787e+001
1.614998e+003,6.499670e+001
1.615963e+003,6.420880e+001
1.616927e+003,6.558087e+001
1.617891e+003,6.875519e+001
1.618855e+003,7.034113e+001
1.619820e+003,6.791833e+001
1.620784e+003,6.366705e+001
1.621748e+003,6.143866e+001
1.622712e+003,6.150903e+001
1.623677e+003,6.159662e+001
1.624641e+003,6.166962e+001
1.625605e+003,6.218835e+001
1.626569e+003,6.225989e+001
1.627533e+003,6.209656e+001
1.628498e+003,6.236700e+001
1.629462e+003,6.301990e+001
1.630426e+003,6.431366e+001
1.631390e+003,6.563550e+001
1.632354e+003,6.548529e+001
1.633319e+003,6.368188e+001
1.634283e+003,6.226093e+001
1.635247e+003,6.264441e+001
1.636211e+003,6.422504e+001
1.637176e+003,6.683496e+001
1.638140e+003,7.046082e+001
1.639104e+003,7.138086e+001
1.640068e+003,6.828784e+001
1.641033e+003,6.631805e+001
1.641997e+003,6.809937e+001
1.642961e+003,6.976654e+001
1.643925e+003,6.890558e+001
1.644890e+003,6.732849e+001
1.645854e+003,6.679578e+001
1.646818e+003,6.696692e+001
1.647782e+003,6.641949e+001
1.648747e+003,6.477454e+001
1.649711e+003,6.373987e+001
1.650675e+003,6.518988e+001
1.651639e+003,6.802148e+001
1.652604e+003,6.944635e+001
1.653568e+003,6.925677e+001
1.654532e+003,6.838934e+001
1.655496e+003,6.670203e+001
1.656460e+003,6.504492e+001
1.657425e+003,6.384100e+001
1.658389e+003,6.285870e+001
1.659353e+003,6.196448e+001
1.660317e+003,6.113171e+001
1.661281e+003,6.031720e+001
1.662246e+003,5.938373e+001
1.663210e+003,5.841919e+001
1.664174e+003,5.757330e+001
1.665138e+003,5.619525e+001
1.666103e+003,5.310370e+001
1.667067e+003,4.952844e+001
1.668031e+003,4.881024e+001
1.668995e+003,5.076392e+001
1.669960e+003,5.053485e+001
1.670924e+003,4.699060e+001
1.671888e+003,4.533691e+001
1.672852e+003,4.866742e+001
1.673817e+003,5.158923e+001
1.674781e+003,4.915045e+001
1.675745e+003,4.559308e+001
1.676709e+003,4.665442e+001
1.677674e+003,5.072180e+001
1.678638e+003,5.164435e+001
1.679602e+003,4.754065e+001
1.680566e+003,4.175641e+001
1.681531e+003,3.616400e+001
1.682495e+003,3.194714e+001
1.683459e+003,3.092834e+001
1.684423e+003,3.252692e+001
1.685387e+003,3.551697e+001
1.686352e+003,4.058020e+001
1.687316e+003,4.133594e+001
1.688280e+003,3.296912e+001
1.689244e+003,2.504871e+001
1.690208e+003,2.604102e+001
1.691173e+003,3.008484e+001
1.692137e+003,3.185077e+001
1.693101e+003,3.159009e+001
1.694065e+003,2.937036e+001
1.695030e+003,2.467828e+001
1.695994e+003,2.144415e+001
1.696958e+003,2.299860e+001
1.697922e+003,2.661383e+001
1.698887e+003,2.974628e+001
1.699851e+003,3.212738e+001
1.700815e+003,3.216022e+001
1.701779e+003,2.957050e+001
1.702744e+003,2.685065e+001
1.703708e+003,2.519916e+001
1.704672e+003,2.384741e+001
1.705636e+003,2.126868e+001
1.706601e+003,1.850446e+001
1.707565e+003,1.857776e+001
1.708529e+003,2.062164e+001
1.709493e+003,2.054181e+001
1.710458e+003,1.749915e+001
1.711422e+003,1.525079e+001
1.712386e+003,1.678687e+001
1.713350e+003,1.858130e+001
1.714314e+003,1.664258e+001
1.715279e+003,1.300641e+001
1.716243e+003,1.140564e+001
1.717207e+003,1.190295e+001
1.718171e+003,1.329645e+001
1.719135e+003,1.533942e+001
1.720100e+003,1.616632e+001
1.721064e+003,1.406012e+001
1.722028e+003,1.083179e+001
1.722992e+003,9.536133e+000
1.723957e+003,1.015283e+001
1.724921e+003,1.000220e+001
1.725885e+003,8.255554e+000
1.726849e+003,6.463684e+000
1.727814e+003,5.701843e+000
1.728778e+003,5.351379e+000
1.729742e+003,5.575500e+000
1.730706e+003,5.401184e+000
1.731671e+003,2.538757e+000
1.732635e+003,-1.760986e+000
1.733599e+003,-4.005371e+000
1.734563e+003,-3.257080e+000
1.735528e+003,-6.431885e-001
1.736492e+003,3.040405e+000
1.737456e+003,6.482727e+000
1.738420e+003,8.199585e+000
1.739385e+003,8.015930e+000
1.740349e+003,6.411194e+000
1.741313e+003,3.351868e+000
1.742277e+003,6.337891e-001
1.743241e+003,-2.516113e+000
1.744206e+003,-3.501709e+000
1.745170e+003,-3.610229e-001
1.746134e+003,2.697998e+000
1.747098e+003,3.532532e+000
1.748063e+003,2.848755e+000
1.749027e+003,9.453735e-001
1.749991e+003,-1.292053e+000
1.750955e+003,-2.436768e+000
1.751919e+003,-2.095947e+000
1.752884e+003,-8.166504e-001
1.753848e+003,9.767456e-001
1.754812e+003,2.646423e+000
1.755776e+003,3.279724e+000
1.756741e+003,3.220398e+000
1.757705e+003,1.305908e+000
1.758669e+003,-4.726013e+000
1.759633e+003,-6.851563e+000
1.760598e+003,-7.055054e-001
1.761562e+003,3.667297e+000
1.762526e+003,2.453430e+000
1.763490e+003,1.289063e-001
1.764455e+003,6.048584e-002
1.765419e+003,1.033142e+000
1.766383e+003,3.436279e-002
1.767347e+003,-2.892578e+000
1.768312e+003,-4.475342e+000
1.769276e+003,-3.261475e+000
1.770240e+003,-1.635803e+000
1.771204e+003,-1.777954e+000
1.772168e+003,-2.333374e+000
1.773133e+003,-1.903076e-001
1.774097e+003,4.088440e+000
1.775061e+003,3.985779e+000
1.776025e+003,-2.492371e+000
1.776990e+003,-5.903748e+000
1.777954e+003,-1.052124e+000
1.778918e+003,4.304138e+000
1.779882e+003,3.633301e+000
1.780846e+003,3.091431e-001
1.781811e+003,-9.462891e-001
1.782775e+003,-4.153442e-001
1.783739e+003,7.086182e-001
1.784703e+003,2.448853e+000
1.785668e+003,4.232666e+000
1.786632e+003,5.253235e+000
1.787596e+003,6.000977e+000
1.788560e+003,7.939453e+000
1.789525e+003,1.012238e+001
1.790489e+003,1.061908e+001
1.791453e+003,9.445557e+000
1.792417e+003,7.224915e+000
1.793382e+003,4.355042e+000
1.794346e+003,2.367249e+000
1.795310e+003,2.032104e+000
1.796274e+003,2.524170e+000
1.797239e+003,3.297546e+000
1.798203e+003,4.552185e+000
1.799167e+003,5.378479e+000
1.800131e+003,4.944214e+000
1.801095e+003,3.820801e+000
1.802060e+003,1.444580e+000
1.803024e+003,9.415283e-001
1.803988e+003,4.157898e+000
1.804952e+003,6.813477e+000
1.805917e+003,6.065735e+000
1.806881e+003,4.453674e+000
1.807845e+003,5.477295e+000
1.808809e+003,7.753296e+000
1.809773e+003,7.104980e+000
1.810738e+003,3.278076e+000
1.811702e+003,5.121460e-001
1.812666e+003,1.406799e+000
1.813630e+003,4.226379e+000
1.814595e+003,7.094116e+000
1.815559e+003,9.240112e+000
1.816523e+003,7.085205e+000
1.817487e+003,6.439209e-002
1.818452e+003,-3.437012e+000
1.819416e+003,-1.638977e+000
1.820380e+003,7.942505e-001
1.821344e+003,2.536072e+000
1.822309e+003,3.906006e+000
1.823273e+003,5.952454e+000
1.824237e+003,7.666931e+000
1.825201e+003,7.419373e+000
1.826166e+003,5.679565e+000
1.827130e+003,3.820984e+000
1.828094e+003,1.983826e+000
1.829058e+003,7.401123e-001
1.830022e+003,7.423706e-001
1.830987e+003,1.307373e+000
1.831951e+003,2.610657e+000
1.832915e+003,3.612854e+000
1.833879e+003,1.540588e+000
1.834844e+003,-2.019470e+000
1.835808e+003,-1.646484e+000
1.836772e+003,3.157043e+000
1.837736e+003,8.368469e+000
1.838700e+003,1.215948e+001
1.839665e+003,1.271320e+001
1.840629e+003,7.807922e+000
1.841593e+003,8.239746e-001
1.842557e+003,-1.311401e+000
1.843522e+003,1.318665e+000
1.844486e+003,3.866028e+000
1.845450e+003,7.466003e+000
1.846414e+003,9.730835e+000
1.847379e+003,9.064392e+000
1.848343e+003,7.920288e+000
1.849307e+003,7.274414e+000
1.850271e+003,6.581604e+000
1.851236e+003,5.080383e+000
1.852200e+003,3.861145e+000
1.853164e+003,4.540222e+000
1.854128e+003,6.193604e+000
1.855093e+003,6.160339e+000
1.856057e+003,3.997070e+000
1.857021e+003,2.387207e+000
1.857985e+003,3.384644e+000
1.858949e+003,5.726013e+000
1.859914e+003,7.523499e+000
1.860878e+003,8.979431e+000
1.861842e+003,1.085437e+001
1.862806e+003,1.304431e+001
1.863771e+003,1.382697e+001
1.864735e+003,1.248309e+001
1.865699e+003,1.075531e+001
1.866663e+003,9.084351e+000
1.867627e+003,8.644104e+000
1.868592e+003,1.144513e+001
1.869556e+003,1.477301e+001
1.870520e+003,1.322217e+001
1.871484e+003,7.757751e+000
1.872449e+003,5.409424e+000
1.873413e+003,8.741638e+000
1.874377e+003,1.237579e+001
1.875341e+003,1.340643e+001
1.876306e+003,1.419379e+001
1.877270e+003,1.604846e+001
1.878234e+003,1.795007e+001
1.879198e+003,1.912335e+001
1.880163e+003,1.971222e+001
1.881127e+003,2.035077e+001
1.882091e+003,2.091492e+001
1.883055e+003,2.010547e+001
1.884020e+003,1.754053e+001
1.884984e+003,1.510449e+001
1.885948e+003,1.453369e+001
1.886912e+003,1.521466e+001
1.887876e+003,1.616650e+001
1.888841e+003,1.732379e+001
1.889805e+003,1.693237e+001
1.890769e+003,1.433344e+001
1.891733e+003,1.393640e+001
1.892698e+003,1.692017e+001
1.893662e+003,1.949634e+001
1.894626e+003,2.084039e+001
1.895590e+003,2.110046e+001
1.896554e+003,1.955829e+001
1.897519e+003,1.799677e+001
1.898483e+003,1.859766e+001
1.899447e+003,2.042474e+001
1.900411e+003,2.107910e+001
1.901376e+003,2.023993e+001
1.902340e+003,1.970947e+001
1.903304e+003,2.009827e+001
1.904268e+003,2.089929e+001
1.905233e+003,2.255542e+001
1.906197e+003,2.407288e+001
1.907161e+003,2.411365e+001
1.908125e+003,2.358313e+001
1.909090e+003,2.380023e+001
1.910054e+003,2.463635e+001
1.911018e+003,2.578046e+001
1.911982e+003,2.713336e+001
1.912947e+003,2.774719e+001
1.913911e+003,2.681140e+001
1.914875e+003,2.516064e+001
1.915839e+003,2.384973e+001
1.916803e+003,2.275433e+001
1.917768e+003,2.299249e+001
1.918732e+003,2.513580e+001
1.919696e+003,2.656122e+001
1.920660e+003,2.675665e+001
1.921625e+003,2.850458e+001
1.922589e+003,3.458173e+001
1.923553e+003,3.820013e+001
1.924517e+003,3.249701e+001
1.925481e+003,2.581079e+001
1.926446e+003,2.615613e+001
1.927410e+003,3.059723e+001
1.928374e+003,3.362775e+001
1.929338e+003,3.446167e+001
1.930303e+003,3.285571e+001
1.931267e+003,2.803076e+001
1.932231e+003,2.505334e+001
1.933195e+003,2.732666e+001
1.934160e+003,3.000000e+001
1.935124e+003,2.935699e+001
1.936088e+003,2.704486e+001
1.937052e+003,2.465320e+001
1.938017e+003,2.321381e+001
1.938981e+003,2.436163e+001
1.939945e+003,2.771906e+001
1.940909e+003,3.107635e+001
1.941874e+003,3.321686e+001
1.942838e+003,3.400525e+001
1.943802e+003,3.362787e+001
1.944766e+003,3.262689e+001
1.945730e+003,3.092291e+001
1.946695e+003,2.858038e+001
1.947659e+003,2.882324e+001
1.948623e+003,3.188293e+001
1.949587e+003,3.370160e+001
1.950552e+003,3.391345e+001
1.951516e+003,3.353247e+001
1.952480e+003,3.277673e+001
1.953444e+003,3.166742e+001
1.954408e+003,2.979016e+001
1.955373e+003,2.749731e+001
1.956337e+003,2.501294e+001
1.957301e+003,2.333392e+001
1.958265e+003,2.511688e+001
1.959230e+003,3.101971e+001
1.960194e+003,3.565997e+001
1.961158e+003,3.717755e+001
1.962122e+003,3.776984e+001
1.963087e+003,3.814911e+001
1.964051e+003,3.775366e+001
1.965015e+003,3.547784e+001
1.965979e+003,3.369824e+001
1.966944e+003,3.516327e+001
1.967908e+003,3.802283e+001
1.968872e+003,3.858118e+001
1.969836e+003,3.700256e+001
1.970801e+003,3.687695e+001
1.971765e+003,3.964063e+001
1.972729e+003,4.225134e+001
1.973693e+003,4.198773e+001
1.974657e+003,4.050012e+001
1.975622e+003,3.995563e+001
1.976586e+003,3.996814e+001
1.977550e+003,3.963300e+001
1.978514e+003,3.935205e+001
1.979479e+003,4.134650e+001
1.980443e+003,4.559711e+001
1.981407e+003,4.756018e+001
1.982371e+003,4.560449e+001
1.983335e+003,4.306116e+001
1.984300e+003,4.209607e+001
1.985264e+003,4.209332e+001
1.986228e+003,4.242853e+001
1.987192e+003,4.313019e+001
1.988157e+003,4.456488e+001
1.989121e+003,4.751447e+001
1.990085e+003,4.779199e+001
1.991049e+003,4.334204e+001
1.992014e+003,4.085474e+001
1.992978e+003,4.236169e+001
1.993942e+003,4.379626e+001
1.994906e+003,4.265674e+001
1.995871e+003,4.212091e+001
1.996835e+003,4.591089e+001
1.997799e+003,5.121222e+001
1.998763e+003,5.355450e+001
1.999728e+003,5.299762e+001
