5.003444e+002,4.122285e+001
5.013087e+002,4.267027e+001
5.022729e+002,4.303375e+001
5.032371e+002,4.236812e+001
5.042014e+002,4.045842e+001
5.051656e+002,3.758356e+001
5.061298e+002,3.506487e+001
5.070941e+002,3.409689e+001
5.080583e+002,3.491315e+001
5.090225e+002,3.569016e+001
5.099868e+002,3.677686e+001
5.109510e+002,3.749818e+001
5.119152e+002,3.743111e+001
5.128795e+002,3.653224e+001
5.138437e+002,3.551169e+001
5.148079e+002,3.470319e+001
5.157722e+002,3.381520e+001
5.167364e+002,3.230998e+001
5.177006e+002,3.033704e+001
5.186649e+002,2.883420e+001
5.196291e+002,2.977437e+001
5.205933e+002,3.158659e+001
5.215576e+002,3.228979e+001
5.225218e+002,3.158891e+001
5.234860e+002,2.999754e+001
5.244503e+002,2.855165e+001
5.254145e+002,2.747110e+001
5.263787e+002,2.661766e+001
5.273430e+002,2.595062e+001
5.283072e+002,2.552954e+001
5.292714e+002,2.551103e+001
5.302357e+002,2.620430e+001
5.311999e+002,2.611539e+001
5.321641e+002,2.466057e+001
5.331284e+002,2.311391e+001
5.340926e+002,2.244957e+001
5.350568e+002,2.299487e+001
5.360211e+002,2.374535e+001
5.369853e+002,2.437611e+001
5.379495e+002,2.469095e+001
5.389138e+002,2.415228e+001
5.398780e+002,2.266801e+001
5.408422e+002,2.082967e+001
5.418065e+002,2.066660e+001
5.427707e+002,2.185576e+001
5.437349e+002,2.178116e+001
5.446992e+002,1.925677e+001
5.456634e+002,1.528513e+001
5.466276e+002,1.348590e+001
5.475919e+002,1.720741e+001
5.485561e+002,1.914174e+001
5.495203e+002,1.782675e+001
5.504846e+002,1.487471e+001
5.514488e+002,1.258734e+001
5.524130e+002,1.182117e+001
5.533773e+002,1.192157e+001
5.543415e+002,1.284706e+001
5.553057e+002,1.403732e+001
5.562700e+002,1.478758e+001
5.572342e+002,1.466046e+001
5.581984e+002,1.423836e+001
5.591627e+002,1.561046e+001
5.601269e+002,1.798293e+001
5.610911e+002,1.928877e+001
5.620554e+002,1.834348e+001
5.630196e+002,1.543884e+001
5.639838e+002,1.366684e+001
5.649481e+002,1.433980e+001
5.659123e+002,1.425395e+001
5.668765e+002,1.244379e+001
5.678408e+002,9.645004e+000
5.688050e+002,7.775513e+000
5.697692e+002,7.697891e+000
5.707335e+002,7.730804e+000
5.716977e+002,7.395386e+000
5.726619e+002,6.932632e+000
5.736262e+002,6.698334e+000
5.745904e+002,6.947952e+000
5.755546e+002,7.584442e+000
5.765189e+002,8.404678e+000
5.774831e+002,9.221695e+000
5.784473e+002,9.850143e+000
5.794116e+002,1.021356e+001
5.803758e+002,1.043187e+001
5.813400e+002,1.097530e+001
5.823043e+002,1.198955e+001
5.832685e+002,1.241542e+001
5.842327e+002,1.178531e+001
5.851970e+002,1.033849e+001
5.861612e+002,9.099548e+000
5.871254e+002,7.893448e+000
5.880897e+002,7.099457e+000
5.890539e+002,6.994354e+000
5.900181e+002,7.244354e+000
5.909824e+002,7.392776e+000
5.919466e+002,7.255981e+000
5.929108e+002,6.794769e+000
5.938751e+002,5.874390e+000
5.948393e+002,4.729828e+000
5.958035e+002,3.701324e+000
5.967678e+002,3.053879e+000
5.977320e+002,2.823700e+000
5.986962e+002,3.079636e+000
5.996605e+002,3.711380e+000
6.006247e+002,4.113724e+000
6.015889e+002,3.718170e+000
6.025532e+002,2.649429e+000
6.035174e+002,2.526047e+000
6.044816e+002,5.298553e+000
6.054459e+002,6.937866e+000
6.064101e+002,6.051117e+000
6.073743e+002,3.749252e+000
6.083386e+002,2.103317e+000
6.093028e+002,2.353836e+000
6.102670e+002,3.265533e+000
6.112313e+002,3.985580e+000
6.121955e+002,4.497711e+000
6.131597e+002,4.718582e+000
6.141240e+002,4.600372e+000
6.150882e+002,4.293610e+000
6.160524e+002,4.727844e+000
6.170167e+002,5.821960e+000
6.179809e+002,6.633667e+000
6.189451e+002,6.574966e+000
6.199094e+002,5.726883e+000
6.208736e+002,5.172119e+000
6.218378e+002,5.444748e+000
6.228021e+002,5.676086e+000
6.237663e+002,5.872482e+000
6.247305e+002,6.003937e+000
6.256948e+002,5.997971e+000
6.266590e+002,5.746735e+000
6.276232e+002,5.191498e+000
6.285875e+002,4.423706e+000
6.295517e+002,3.557602e+000
6.305159e+002,2.465256e+000
6.314802e+002,1.103394e+000
6.324444e+002,-1.504669e-001
6.334086e+002,4.798279e-001
6.343729e+002,2.413666e+000
6.353371e+002,3.827087e+000
6.363013e+002,3.991394e+000
6.372656e+002,3.206909e+000
6.382298e+002,2.654785e+000
6.391940e+002,2.788406e+000
6.401583e+002,2.440918e+000
6.411225e+002,1.605240e+000
6.420867e+002,5.390015e-001
6.430510e+002,-7.024231e-001
6.440152e+002,-2.432159e+000
6.449794e+002,-3.620819e+000
6.459437e+002,-3.613251e+000
6.469079e+002,-3.076950e+000
6.478721e+002,-2.382446e+000
6.488364e+002,-1.682632e+000
6.498006e+002,-9.216461e-001
6.507648e+002,1.515045e-001
6.517291e+002,1.232529e+000
6.526933e+002,1.461029e+000
6.536575e+002,6.152344e-001
6.546218e+002,-6.251678e-001
6.555860e+002,-8.894653e-001
6.565502e+002,7.620544e-001
6.575145e+002,1.268311e+000
6.584787e+002,-5.691528e-002
6.594429e+002,-1.792389e+000
6.604072e+002,-2.971832e+000
6.613714e+002,-3.475266e+000
6.623356e+002,-3.330292e+000
6.632999e+002,-1.898331e+000
6.642641e+002,-5.454865e-001
6.652283e+002,9.251404e-002
6.661926e+002,2.531433e-002
6.671568e+002,-3.618622e-001
6.681210e+002,-8.480835e-001
6.690853e+002,-1.244415e+000
6.700495e+002,-9.194489e-001
6.710137e+002,9.603882e-002
6.719780e+002,1.222931e+000
6.729422e+002,1.848770e+000
6.739064e+002,1.865341e+000
6.748707e+002,1.662582e+000
6.758349e+002,1.354401e+000
6.767991e+002,7.411041e-001
6.777634e+002,-4.631195e-001
6.787276e+002,-2.035522e+000
6.796918e+002,-2.984879e+000
6.806561e+002,-3.002441e+000
6.816203e+002,-2.357101e+000
6.825845e+002,-3.686676e-001
6.835488e+002,2.049530e+000
6.845130e+002,3.335342e+000
6.854772e+002,2.209808e+000
6.864415e+002,1.661072e-001
6.874057e+002,8.990479e-001
6.883699e+002,3.281509e+000
6.893342e+002,4.576172e+000
6.902984e+002,3.193863e+000
6.912626e+002,-3.207550e-001
6.922269e+002,-2.436691e+000
6.931911e+002,-2.578995e+000
6.941553e+002,-1.666489e+000
6.951196e+002,1.234009e+000
6.960838e+002,4.646759e+000
6.970480e+002,6.192474e+000
6.980123e+002,4.800446e+000
6.989765e+002,3.077911e+000
6.999407e+002,1.761368e+000
7.009050e+002,8.604279e-001
7.018692e+002,5.166473e-001
7.028334e+002,6.960297e-001
7.037977e+002,1.059296e+000
7.047619e+002,1.175690e+000
7.057261e+002,1.194214e+000
7.066904e+002,1.252914e+000
7.076546e+002,1.363754e+000
7.086188e+002,1.417694e+000
7.095831e+002,1.192490e+000
7.105473e+002,3.362579e-001
7.115115e+002,2.129364e-001
7.124758e+002,1.723785e+000
7.134400e+002,2.867188e+000
7.144042e+002,2.127594e+000
7.153685e+002,-4.335022e-001
7.163327e+002,-2.454407e+000
7.172969e+002,-2.090546e+000
7.182612e+002,-1.630417e+000
7.192254e+002,-2.423111e+000
7.201896e+002,-3.898865e+000
7.211539e+002,-4.615173e+000
7.221181e+002,-3.253006e+000
7.230823e+002,-7.195587e-001
7.240466e+002,6.174316e-001
7.250108e+002,1.039948e+000
7.259750e+002,9.827881e-001
7.269393e+002,5.324554e-001
7.279035e+002,-3.650818e-001
7.288677e+002,-1.165146e+000
7.298320e+002,-1.588745e+000
7.307962e+002,-1.771912e+000
7.317604e+002,-1.651779e+000
7.327247e+002,-1.293182e+000
7.336889e+002,-8.225098e-001
7.346531e+002,-3.673096e-001
7.356174e+002,-2.178650e-001
7.365816e+002,-4.528351e-001
7.375458e+002,-6.595001e-001
7.385101e+002,-5.456085e-001
7.394743e+002,-4.144287e-002
7.404385e+002,7.281342e-001
7.414028e+002,1.659714e+000
7.423670e+002,2.378113e+000
7.433312e+002,2.362030e+000
7.442955e+002,1.702255e+000
7.452597e+002,9.051056e-001
7.462239e+002,4.058838e-001
7.471882e+002,1.619568e-001
7.481524e+002,2.210541e-001
7.491166e+002,1.190475e+000
7.500809e+002,1.415085e+000
7.510451e+002,-6.664124e-001
7.520093e+002,-4.164276e+000
7.529736e+002,-5.856232e+000
7.539378e+002,-2.918732e+000
7.549020e+002,5.069885e-001
7.558663e+002,1.719101e+000
7.568306e+002,1.653091e+000
7.577948e+002,1.510361e+000
7.587590e+002,2.003067e+000
7.597233e+002,2.927551e+000
7.606875e+002,4.282333e+000
7.616517e+002,6.034775e+000
7.626160e+002,6.527267e+000
7.635802e+002,4.937103e+000
7.645444e+002,2.308228e+000
7.655087e+002,7.788391e-001
7.664729e+002,7.197113e-001
7.674371e+002,1.021866e+000
7.684014e+002,2.260559e+000
7.693656e+002,3.162918e+000
7.703298e+002,2.567902e+000
7.712941e+002,5.437164e-001
7.722583e+002,-1.175919e+000
7.732225e+002,-1.340820e+000
7.741868e+002,-5.988922e-001
7.751510e+002,1.317505e+000
7.761152e+002,3.699982e+000
7.770795e+002,5.003555e+000
7.780437e+002,3.825333e+000
7.790079e+002,5.416870e-001
7.799722e+002,-1.427002e+000
7.809364e+002,-2.203537e+000
7.819006e+002,-2.287766e+000
7.828649e+002,-1.212234e+000
7.838291e+002,5.665436e-001
7.847933e+002,1.211136e+000
7.857576e+002,-5.499268e-001
7.867218e+002,-1.735077e+000
7.876860e+002,-1.571518e+000
7.886503e+002,-6.899414e-001
7.896145e+002,6.477966e-001
7.905787e+002,2.264252e+000
7.915430e+002,3.572418e+000
7.925072e+002,3.582382e+000
7.934714e+002,2.895874e+000
7.944357e+002,2.077209e+000
7.953999e+002,1.370667e+000
7.963641e+002,1.066742e+000
7.973284e+002,1.464615e+000
7.982926e+002,2.610245e+000
7.992568e+002,3.727676e+000
8.002211e+002,5.330109e+000
8.011853e+002,5.679871e+000
8.021495e+002,3.257584e+000
8.031138e+002,-7.422638e-001
8.040780e+002,-2.451309e+000
8.050422e+002,-7.908630e-002
8.060065e+002,2.658859e+000
8.069707e+002,5.382599e+000
8.079349e+002,7.212860e+000
8.088992e+002,6.826111e+000
8.098634e+002,4.072922e+000
8.108276e+002,1.026321e+000
8.117919e+002,6.746216e-001
8.127561e+002,1.964310e+000
8.137203e+002,3.349777e+000
8.146846e+002,4.747421e+000
8.156488e+002,6.009064e+000
8.166130e+002,6.886566e+000
8.175773e+002,7.374878e+000
8.185415e+002,7.254807e+000
8.195057e+002,6.271027e+000
8.204700e+002,4.922241e+000
8.214342e+002,2.964294e+000
8.223984e+002,7.792053e-001
8.233627e+002,-7.202911e-001
8.243269e+002,-1.232178e+000
8.252911e+002,-7.743835e-001
8.262554e+002,1.230545e+000
8.272196e+002,3.541962e+000
8.281838e+002,4.498245e+000
8.291481e+002,3.725281e+000
8.301123e+002,2.779358e+000
8.310765e+002,4.786575e+000
8.320408e+002,9.282974e+000
8.330050e+002,1.106549e+001
8.339692e+002,9.441071e+000
8.349335e+002,6.504135e+000
8.358977e+002,4.121384e+000
8.368619e+002,2.309830e+000
8.378262e+002,1.392593e+000
8.387904e+002,1.653763e+000
8.397546e+002,2.301605e+000
8.407189e+002,3.518387e+000
8.416831e+002,4.934021e+000
8.426473e+002,5.966003e+000
8.436116e+002,6.322342e+000
8.445758e+002,6.467957e+000
8.455400e+002,6.833878e+000
8.465043e+002,7.087357e+000
8.474685e+002,7.051987e+000
8.484327e+002,6.735107e+000
8.493970e+002,6.100952e+000
8.503612e+002,4.896408e+000
8.513254e+002,2.874527e+000
8.522897e+002,1.870422e+000
8.532539e+002,2.128372e+000
8.542181e+002,2.771042e+000
8.551824e+002,3.216553e+000
8.561466e+002,3.698410e+000
8.571108e+002,5.392029e+000
8.580751e+002,1.027229e+001
8.590393e+002,1.339136e+001
8.600035e+002,1.210501e+001
8.609678e+002,9.088074e+000
8.619320e+002,7.267029e+000
8.628962e+002,7.821548e+000
8.638605e+002,9.524734e+000
8.648247e+002,1.100697e+001
8.657889e+002,1.209837e+001
8.667532e+002,1.227121e+001
8.677174e+002,1.145790e+001
8.686816e+002,1.045918e+001
8.696459e+002,1.015585e+001
8.706101e+002,1.061176e+001
8.715743e+002,1.184883e+001
8.725386e+002,1.501015e+001
8.735028e+002,1.746700e+001
8.744670e+002,1.837958e+001
8.754313e+002,1.801657e+001
8.763955e+002,1.660374e+001
8.773597e+002,1.356929e+001
8.783240e+002,1.203577e+001
8.792882e+002,1.577957e+001
8.802524e+002,2.075153e+001
8.812167e+002,2.346956e+001
8.821809e+002,2.327965e+001
8.831451e+002,2.177043e+001
8.841094e+002,2.101160e+001
8.850736e+002,2.101215e+001
8.860378e+002,2.002435e+001
8.870021e+002,1.763469e+001
8.879663e+002,1.557144e+001
8.889305e+002,1.450204e+001
8.898948e+002,1.442087e+001
8.908590e+002,1.568950e+001
8.918232e+002,2.002090e+001
8.927875e+002,2.306633e+001
8.937517e+002,2.315492e+001
8.947159e+002,2.232445e+001
8.956802e+002,2.213518e+001
8.966444e+002,2.289226e+001
8.976086e+002,2.387433e+001
8.985729e+002,2.469102e+001
8.995371e+002,2.519563e+001
9.005013e+002,2.483417e+001
9.014656e+002,2.385381e+001
9.024298e+002,2.311333e+001
9.033940e+002,2.315675e+001
9.043583e+002,2.389597e+001
9.053225e+002,2.536958e+001
9.062867e+002,2.932695e+001
9.072510e+002,3.143954e+001
9.082152e+002,3.089258e+001
9.091794e+002,2.919127e+001
9.101437e+002,2.729062e+001
9.111079e+002,2.530673e+001
9.120721e+002,2.449722e+001
9.130364e+002,2.732597e+001
9.140006e+002,2.986966e+001
9.149648e+002,2.936711e+001
9.159291e+002,2.692543e+001
9.168933e+002,2.510936e+001
9.178575e+002,2.564771e+001
9.188218e+002,2.761989e+001
9.197860e+002,2.802882e+001
9.207502e+002,2.680417e+001
9.217145e+002,2.559525e+001
9.226787e+002,2.472739e+001
9.236429e+002,2.424997e+001
9.246072e+002,2.412929e+001
9.255714e+002,2.427800e+001
9.265356e+002,2.479260e+001
9.274999e+002,2.649963e+001
9.284641e+002,2.758511e+001
9.294283e+002,2.736934e+001
9.303926e+002,2.617455e+001
9.313568e+002,2.435454e+001
9.323210e+002,2.199551e+001
9.332853e+002,1.997052e+001
9.342495e+002,2.044783e+001
9.352137e+002,2.204269e+001
9.361780e+002,2.284392e+001
9.371422e+002,2.251216e+001
9.381064e+002,2.151294e+001
9.390707e+002,2.022249e+001
9.400349e+002,1.829881e+001
9.409991e+002,1.760225e+001
9.419634e+002,1.931635e+001
9.429276e+002,2.051012e+001
9.438918e+002,2.005475e+001
9.448561e+002,1.876515e+001
9.458203e+002,1.816220e+001
9.467845e+002,1.885551e+001
9.477488e+002,1.944882e+001
9.487130e+002,1.858394e+001
9.496772e+002,1.735104e+001
9.506415e+002,1.645570e+001
9.516057e+002,1.603189e+001
9.525699e+002,1.598953e+001
9.535342e+002,1.623236e+001
9.544984e+002,1.666180e+001
9.554626e+002,1.676595e+001
9.564269e+002,1.660471e+001
9.573911e+002,1.668658e+001
9.583553e+002,1.730557e+001
9.593196e+002,1.810333e+001
9.602838e+002,1.842154e+001
9.612480e+002,1.802617e+001
9.622123e+002,1.787822e+001
9.631765e+002,1.878714e+001
9.641407e+002,1.955527e+001
9.651050e+002,1.957436e+001
9.660692e+002,1.891978e+001
9.670334e+002,1.793001e+001
9.679977e+002,1.687070e+001
9.689619e+002,1.589047e+001
9.699261e+002,1.485252e+001
9.708904e+002,1.386264e+001
9.718546e+002,1.372041e+001
9.728188e+002,1.460208e+001
9.737831e+002,1.617230e+001
9.747473e+002,1.842735e+001
9.757115e+002,2.186398e+001
9.766758e+002,2.341322e+001
9.776400e+002,2.158469e+001
9.786042e+002,1.987209e+001
9.795685e+002,1.857738e+001
9.805327e+002,1.792674e+001
9.814969e+002,1.879306e+001
9.824612e+002,2.156491e+001
9.834254e+002,2.358313e+001
9.843896e+002,2.073578e+001
9.853539e+002,1.637146e+001
9.863181e+002,1.426491e+001
9.872823e+002,1.431456e+001
9.882466e+002,1.456003e+001
9.892108e+002,1.345383e+001
9.901750e+002,1.137830e+001
9.911393e+002,1.005659e+001
9.921035e+002,9.052994e+000
9.930677e+002,9.055725e+000
9.940320e+002,1.106432e+001
9.949962e+002,1.357062e+001
9.959604e+002,1.522308e+001
9.969247e+002,1.594748e+001
9.978889e+002,1.647090e+001
9.988531e+002,1.694250e+001
9.998174e+002,1.713600e+001
1.000782e+003,1.646033e+001
1.001746e+003,1.578671e+001
1.002710e+003,1.674409e+001
1.003674e+003,1.977164e+001
1.004639e+003,2.313217e+001
1.005603e+003,2.368443e+001
1.006567e+003,2.104836e+001
1.007531e+003,1.904970e+001
1.008495e+003,1.799997e+001
1.009460e+003,1.695848e+001
1.010424e+003,1.510757e+001
1.011388e+003,1.281039e+001
1.012352e+003,1.149707e+001
1.013317e+003,1.156001e+001
1.014281e+003,1.210390e+001
1.015245e+003,1.347484e+001
1.016209e+003,1.447305e+001
1.017174e+003,1.386540e+001
1.018138e+003,1.196426e+001
1.019102e+003,1.035411e+001
1.020066e+003,1.041969e+001
1.021031e+003,1.151279e+001
1.021995e+003,1.167076e+001
1.022959e+003,1.094487e+001
1.023923e+003,9.530380e+000
1.024887e+003,7.075058e+000
1.025852e+003,4.629105e+000
1.026816e+003,4.295578e+000
1.027780e+003,6.944702e+000
1.028744e+003,7.974350e+000
1.029709e+003,5.759476e+000
1.030673e+003,3.359482e+000
1.031637e+003,1.270981e+000
1.032601e+003,-3.716278e-001
1.033566e+003,-1.543961e+000
1.034530e+003,-2.201492e+000
1.035494e+003,-2.055557e+000
1.036458e+003,-9.284973e-002
1.037422e+003,2.356674e+000
1.038387e+003,2.894333e+000
1.039351e+003,1.584015e+000
1.040315e+003,5.493164e-004
1.041279e+003,-7.209015e-001
1.042244e+003,-6.081696e-001
1.043208e+003,5.993652e-002
1.044172e+003,1.838333e+000
1.045136e+003,2.977188e+000
1.046101e+003,3.664810e+000
1.047065e+003,3.661087e+000
1.048029e+003,1.886368e+000
1.048993e+003,-8.855133e-001
1.049958e+003,-1.710846e+000
1.050922e+003,1.539017e+000
1.051886e+003,5.354935e+000
1.052850e+003,5.973877e+000
1.053814e+003,5.000198e+000
1.054779e+003,4.319122e+000
1.055743e+003,4.373260e+000
1.056707e+003,4.564529e+000
1.057671e+003,4.141541e+000
1.058636e+003,3.076019e+000
1.059600e+003,2.911285e+000
1.060564e+003,4.764816e+000
1.061528e+003,6.125534e+000
1.062493e+003,6.637695e+000
1.063457e+003,6.313507e+000
1.064421e+003,4.807800e+000
1.065385e+003,2.192413e+000
1.066349e+003,3.116608e-001
1.067314e+003,4.705505e-001
1.068278e+003,1.277206e+000
1.069242e+003,2.082733e+000
1.070206e+003,2.741394e+000
1.071171e+003,2.879730e+000
1.072135e+003,2.388931e+000
1.073099e+003,1.829071e+000
1.074063e+003,2.283844e+000
1.075028e+003,3.954605e+000
1.075992e+003,4.503723e+000
1.076956e+003,3.503525e+000
1.077920e+003,2.179520e+000
1.078885e+003,6.163177e-001
1.079849e+003,-7.145386e-001
1.080813e+003,-7.772827e-001
1.081777e+003,8.654022e-001
1.082741e+003,2.204407e+000
1.083706e+003,1.612885e+000
1.084670e+003,7.414856e-001
1.085634e+003,3.710480e-001
1.086598e+003,4.552765e-001
1.087563e+003,8.998566e-001
1.088527e+003,1.632141e+000
1.089491e+003,2.246323e+000
1.090455e+003,1.614548e+000
1.091420e+003,-5.277863e-001
1.092384e+003,-9.012604e-001
1.093348e+003,1.308472e+000
1.094312e+003,3.591934e+000
1.095276e+003,5.087402e+000
1.096241e+003,5.657349e+000
1.097205e+003,4.129272e+000
1.098169e+003,-1.085464e+000
1.099133e+003,-4.396133e+000
1.100098e+003,-1.444458e+000
1.101062e+003,1.915619e+000
1.102026e+003,1.316162e+000
1.102990e+003,-1.929565e+000
1.103955e+003,-3.742844e+000
1.104919e+003,-1.686966e+000
1.105883e+003,2.316940e+000
1.106847e+003,4.360748e+000
1.107812e+003,4.309677e+000
1.108776e+003,3.491028e+000
1.109740e+003,1.398346e+000
1.110704e+003,-2.967072e-001
1.111668e+003,-4.829407e-002
1.112633e+003,1.768509e+000
1.113597e+003,3.278122e+000
1.114561e+003,4.288498e+000
1.115525e+003,4.793854e+000
1.116490e+003,4.985672e+000
1.117454e+003,4.584061e+000
1.118418e+003,2.867035e+000
1.119382e+003,5.450745e-001
1.120347e+003,-9.842529e-001
1.121311e+003,-9.466248e-001
1.122275e+003,2.184296e-001
1.123239e+003,2.353928e+000
1.124203e+003,5.365036e+000
1.125168e+003,6.595306e+000
1.126132e+003,5.289902e+000
1.127096e+003,3.737503e+000
1.128060e+003,3.533005e+000
1.129025e+003,4.442429e+000
1.129989e+003,5.690109e+000
1.130953e+003,7.745468e+000
1.131917e+003,8.787201e+000
1.132882e+003,7.271759e+000
1.133846e+003,5.866287e+000
1.134810e+003,6.466949e+000
1.135774e+003,8.548325e+000
1.136739e+003,1.058215e+001
1.137703e+003,1.168260e+001
1.138667e+003,1.204942e+001
1.139631e+003,1.181818e+001
1.140595e+003,1.111632e+001
1.141560e+003,1.110402e+001
1.142524e+003,1.192574e+001
1.143488e+003,1.341846e+001
1.144452e+003,1.521622e+001
1.145417e+003,1.754958e+001
1.146381e+003,2.157646e+001
1.147345e+003,2.831197e+001
1.148309e+003,3.393909e+001
1.149274e+003,3.644516e+001
1.150238e+003,3.891029e+001
1.151202e+003,4.285628e+001
1.152166e+003,4.807986e+001
1.153130e+003,5.411093e+001
1.154095e+003,6.051445e+001
1.155059e+003,6.640041e+001
1.156023e+003,7.097652e+001
1.156987e+003,7.384276e+001
1.157952e+003,7.327739e+001
1.158916e+003,6.903580e+001
1.159880e+003,6.405571e+001
1.160844e+003,5.915648e+001
1.161809e+003,5.440935e+001
1.162773e+003,5.055371e+001
1.163737e+003,4.797455e+001
1.164701e+003,4.458505e+001
1.165666e+003,3.890758e+001
1.166630e+003,3.344916e+001
1.167594e+003,2.853769e+001
1.168558e+003,2.464632e+001
1.169522e+003,2.275909e+001
1.170487e+003,2.284862e+001
1.171451e+003,2.324559e+001
1.172415e+003,2.204793e+001
1.173379e+003,1.952530e+001
1.174344e+003,1.712025e+001
1.175308e+003,1.477086e+001
1.176272e+003,1.327271e+001
1.177236e+003,1.328308e+001
1.178201e+003,1.402554e+001
1.179165e+003,1.473300e+001
1.180129e+003,1.534720e+001
1.181093e+003,1.480701e+001
1.182057e+003,1.178291e+001
1.183022e+003,9.346802e+000
1.183986e+003,8.586929e+000
1.184950e+003,8.907730e+000
1.185914e+003,1.025365e+001
1.186879e+003,1.217972e+001
1.187843e+003,1.358734e+001
1.188807e+003,1.353525e+001
1.189771e+003,1.253191e+001
1.190736e+003,1.222217e+001
1.191700e+003,1.267369e+001
1.192664e+003,1.310617e+001
1.193628e+003,1.400578e+001
1.194593e+003,1.428809e+001
1.195557e+003,1.256429e+001
1.196521e+003,9.526672e+000
1.197485e+003,7.830856e+000
1.198449e+003,8.332382e+000
1.199414e+003,8.777908e+000
1.200378e+003,8.363556e+000
1.201342e+003,7.386017e+000
1.202306e+003,5.540710e+000
1.203271e+003,3.277954e+000
1.204235e+003,1.276001e+000
1.205199e+003,-4.240417e-002
1.206163e+003,-4.243164e-001
1.207128e+003,6.905823e-001
1.208092e+003,3.439957e+000
1.209056e+003,4.400406e+000
1.210020e+003,2.920532e+000
1.210984e+003,1.347305e+000
1.211949e+003,4.547272e-001
1.212913e+003,-2.891693e-001
1.213877e+003,-1.541595e+000
1.214841e+003,-3.316360e+000
1.215806e+003,-5.264694e+000
1.216770e+003,-7.787292e+000
1.217734e+003,-9.605606e+000
1.218698e+003,-9.309692e+000
1.219663e+003,-8.342453e+000
1.220627e+003,-8.769974e+000
1.221591e+003,-1.067427e+001
1.222555e+003,-1.217078e+001
1.223520e+003,-1.144873e+001
1.224484e+003,-9.154480e+000
1.225448e+003,-8.590591e+000
1.226412e+003,-1.094081e+001
1.227376e+003,-1.250499e+001
1.228341e+003,-1.321852e+001
1.229305e+003,-1.332437e+001
1.230269e+003,-1.259314e+001
1.231233e+003,-1.145529e+001
1.232198e+003,-1.058745e+001
1.233162e+003,-1.009991e+001
1.234126e+003,-1.018979e+001
1.235090e+003,-1.164091e+001
1.236055e+003,-1.326717e+001
1.237019e+003,-1.363954e+001
1.237983e+003,-1.314920e+001
1.238947e+003,-1.280263e+001
1.239911e+003,-1.297919e+001
1.240876e+003,-1.339716e+001
1.241840e+003,-1.366110e+001
1.242804e+003,-1.373416e+001
1.243768e+003,-1.421069e+001
1.244733e+003,-1.637376e+001
1.245697e+003,-1.713498e+001
1.246661e+003,-1.530235e+001
1.247625e+003,-1.302762e+001
1.248590e+003,-1.190785e+001
1.249554e+003,-1.168159e+001
1.250518e+003,-1.100569e+001
1.251482e+003,-9.245956e+000
1.252447e+003,-7.755493e+000
1.253411e+003,-8.511948e+000
1.254375e+003,-1.040277e+001
1.255339e+003,-1.104932e+001
1.256303e+003,-1.035103e+001
1.257268e+003,-9.600983e+000
1.258232e+003,-9.718597e+000
1.259196e+003,-1.017514e+001
1.260160e+003,-9.572296e+000
1.261125e+003,-7.551849e+000
1.262089e+003,-6.215363e+000
1.263053e+003,-6.552689e+000
1.264017e+003,-6.828766e+000
1.264982e+003,-6.426453e+000
1.265946e+003,-5.867569e+000
1.266910e+003,-5.741104e+000
1.267874e+003,-5.992554e+000
1.268839e+003,-6.127716e+000
1.269803e+003,-5.818085e+000
1.270767e+003,-5.117096e+000
1.271731e+003,-3.785278e+000
1.272695e+003,-1.935074e+000
1.273660e+003,-2.199905e+000
1.274624e+003,-5.708191e+000
1.275588e+003,-8.864059e+000
1.276552e+003,-9.240479e+000
1.277517e+003,-8.054077e+000
1.278481e+003,-7.729935e+000
1.279445e+003,-8.493164e+000
1.280409e+003,-9.100494e+000
1.281374e+003,-8.902420e+000
1.282338e+003,-8.789490e+000
1.283302e+003,-9.445740e+000
1.284266e+003,-1.031694e+001
1.285230e+003,-1.076183e+001
1.286195e+003,-1.071457e+001
1.287159e+003,-1.045624e+001
1.288123e+003,-1.017734e+001
1.289087e+003,-9.971939e+000
1.290052e+003,-1.035913e+001
1.291016e+003,-1.190846e+001
1.291980e+003,-1.211041e+001
1.292944e+003,-9.698486e+000
1.293909e+003,-7.855667e+000
1.294873e+003,-8.130463e+000
1.295837e+003,-9.350800e+000
1.296801e+003,-9.993805e+000
1.297766e+003,-9.842361e+000
1.298730e+003,-9.407318e+000
1.299694e+003,-8.823700e+000
1.300658e+003,-8.437622e+000
1.301622e+003,-8.666977e+000
1.302587e+003,-9.229599e+000
1.303551e+003,-9.674286e+000
1.304515e+003,-9.922958e+000
1.305479e+003,-1.044348e+001
1.306444e+003,-1.183014e+001
1.307408e+003,-1.359062e+001
1.308372e+003,-1.384113e+001
1.309336e+003,-1.215004e+001
1.310301e+003,-1.026817e+001
1.311265e+003,-6.715363e+000
1.312229e+003,-4.828949e+000
1.313193e+003,-6.969177e+000
1.314157e+003,-1.040657e+001
1.315122e+003,-1.256970e+001
1.316086e+003,-1.298245e+001
1.317050e+003,-1.213663e+001
1.318014e+003,-1.019919e+001
1.318979e+003,-8.113586e+000
1.319943e+003,-7.874298e+000
1.320907e+003,-9.173599e+000
1.321871e+003,-9.252121e+000
1.322836e+003,-7.577057e+000
1.323800e+003,-6.639038e+000
1.324764e+003,-8.584763e+000
1.325728e+003,-1.162981e+001
1.326693e+003,-1.268311e+001
1.327657e+003,-1.167775e+001
1.328621e+003,-1.044038e+001
1.329585e+003,-8.883026e+000
1.330549e+003,-7.620453e+000
1.331514e+003,-7.400665e+000
1.332478e+003,-7.595093e+000
1.333442e+003,-7.312546e+000
1.334406e+003,-6.721069e+000
1.335371e+003,-6.931564e+000
1.336335e+003,-8.572525e+000
1.337299e+003,-1.065446e+001
1.338263e+003,-1.129492e+001
1.339228e+003,-1.030669e+001
1.340192e+003,-9.594131e+000
1.341156e+003,-9.286194e+000
1.342120e+003,-9.046051e+000
1.343084e+003,-8.979126e+000
1.344049e+003,-8.985275e+000
1.345013e+003,-9.030655e+000
1.345977e+003,-8.954590e+000
1.346941e+003,-8.358139e+000
1.347906e+003,-7.065811e+000
1.348870e+003,-5.836838e+000
1.349834e+003,-5.425125e+000
1.350798e+003,-5.581833e+000
1.351763e+003,-5.817184e+000
1.352727e+003,-6.043427e+000
1.353691e+003,-5.850327e+000
1.354655e+003,-4.967056e+000
1.355620e+003,-4.005356e+000
1.356584e+003,-3.435883e+000
1.357548e+003,-3.299057e+000
1.358512e+003,-4.453079e+000
1.359476e+003,-7.793167e+000
1.360441e+003,-1.046831e+001
1.361405e+003,-1.191470e+001
1.362369e+003,-1.229890e+001
1.363333e+003,-1.081985e+001
1.364298e+003,-8.727966e+000
1.365262e+003,-7.939529e+000
1.366226e+003,-8.669647e+000
1.367190e+003,-9.054169e+000
1.368155e+003,-7.377121e+000
1.369119e+003,-4.859314e+000
1.370083e+003,-5.549667e+000
1.371047e+003,-1.082420e+001
1.372011e+003,-1.310352e+001
1.372976e+003,-1.043086e+001
1.373940e+003,-7.700241e+000
1.374904e+003,-6.489563e+000
1.375868e+003,-6.254272e+000
1.376833e+003,-6.493378e+000
1.377797e+003,-7.097488e+000
1.378761e+003,-7.961838e+000
1.379725e+003,-9.239853e+000
1.380690e+003,-1.004471e+001
1.381654e+003,-8.956909e+000
1.382618e+003,-7.017853e+000
1.383582e+003,-5.452728e+000
1.384547e+003,-4.403366e+000
1.385511e+003,-4.050705e+000
1.386475e+003,-4.658524e+000
1.387439e+003,-5.575531e+000
1.388403e+003,-5.741684e+000
1.389368e+003,-5.168503e+000
1.390332e+003,-4.666855e+000
1.391296e+003,-3.893799e+000
1.392260e+003,-3.846985e+000
1.393225e+003,-5.842209e+000
1.394189e+003,-7.426483e+000
1.395153e+003,-6.662872e+000
1.396117e+003,-4.787476e+000
1.397082e+003,-3.886169e+000
1.398046e+003,-4.412918e+000
1.399010e+003,-5.033234e+000
1.399974e+003,-4.551239e+000
1.400938e+003,-3.697723e+000
1.401903e+003,-4.631882e+000
1.402867e+003,-7.923172e+000
1.403831e+003,-9.273071e+000
1.404795e+003,-7.318954e+000
1.405760e+003,-5.585419e+000
1.406724e+003,-5.493530e+000
1.407688e+003,-6.391220e+000
1.408652e+003,-7.679626e+000
1.409617e+003,-8.999817e+000
1.410581e+003,-9.599152e+000
1.411545e+003,-9.132645e+000
1.412509e+003,-8.162659e+000
1.413474e+003,-7.104080e+000
1.414438e+003,-6.105042e+000
1.415402e+003,-5.179108e+000
1.416366e+003,-4.288177e+000
1.417330e+003,-3.626495e+000
1.418295e+003,-3.278397e+000
1.419259e+003,-3.145920e+000
1.420223e+003,-3.325394e+000
1.421187e+003,-3.763580e+000
1.422152e+003,-3.674744e+000
1.423116e+003,-2.678192e+000
1.424080e+003,-2.024963e+000
1.425044e+003,-2.204407e+000
1.426009e+003,-2.846863e+000
1.426973e+003,-4.628967e+000
1.427937e+003,-6.309143e+000
1.428901e+003,-5.923904e+000
1.429865e+003,-3.754272e+000
1.430830e+003,-2.134857e+000
1.431794e+003,-2.631271e+000
1.432758e+003,-4.147690e+000
1.433722e+003,-4.421005e+000
1.434687e+003,-3.256378e+000
1.435651e+003,-1.693802e+000
1.436615e+003,1.149780e+000
1.437579e+003,2.457352e+000
1.438544e+003,7.903900e-001
1.439508e+003,-1.191803e+000
1.440472e+003,-1.816483e+000
1.441436e+003,-1.303375e+000
1.442401e+003,-1.181793e-001
1.443365e+003,1.436111e+000
1.444329e+003,2.470642e+000
1.445293e+003,2.374664e+000
1.446257e+003,1.364487e+000
1.447222e+003,-7.679749e-001
1.448186e+003,-3.656021e+000
1.449150e+003,-4.854797e+000
1.450114e+003,-3.747177e+000
1.451079e+003,-2.750412e+000
1.452043e+003,-3.581604e+000
1.453007e+003,-4.746078e+000
1.453971e+003,-3.899384e+000
1.454936e+003,-1.387085e+000
1.455900e+003,1.904602e-001
1.456864e+003,1.329346e-001
1.457828e+003,-1.379089e-001
1.458792e+003,2.674561e-001
1.459757e+003,5.910950e-001
1.460721e+003,-5.535889e-002
1.461685e+003,-1.183975e+000
1.462649e+003,-1.585464e+000
1.463614e+003,-9.957581e-001
1.464578e+003,-5.453491e-001
1.465542e+003,-1.319809e+000
1.466506e+003,-2.912598e+000
1.467471e+003,-4.089722e+000
1.468435e+003,-4.771378e+000
1.469399e+003,-4.942581e+000
1.470363e+003,-4.461502e+000
1.471328e+003,-3.850616e+000
1.472292e+003,-3.601410e+000
1.473256e+003,-3.094681e+000
1.474220e+003,-1.094254e+000
1.475184e+003,1.464600e+000
1.476149e+003,2.365219e+000
1.477113e+003,1.108673e+000
1.478077e+003,-9.899902e-002
1.479041e+003,1.008545e+000
1.480006e+003,3.406815e+000
1.480970e+003,3.394455e+000
1.481934e+003,-3.877258e-002
1.482898e+003,-2.018036e+000
1.483863e+003,-1.940796e+000
1.484827e+003,-1.468735e+000
1.485791e+003,-5.338287e-001
1.486755e+003,3.389740e-001
1.487719e+003,9.930420e-002
1.488684e+003,-6.261292e-001
1.489648e+003,3.354187e-001
1.490612e+003,3.640808e+000
1.491576e+003,6.687531e+000
1.492541e+003,7.194794e+000
1.493505e+003,6.249954e+000
1.494469e+003,6.069138e+000
1.495433e+003,6.468903e+000
1.496398e+003,7.118652e+000
1.497362e+003,8.248337e+000
1.498326e+003,9.274170e+000
1.499290e+003,9.610214e+000
1.500255e+003,9.839249e+000
1.501219e+003,1.075552e+001
1.502183e+003,1.225978e+001
1.503147e+003,1.371637e+001
1.504111e+003,1.487654e+001
1.505076e+003,1.657840e+001
1.506040e+003,1.968050e+001
1.507004e+003,2.320299e+001
1.507968e+003,2.573605e+001
1.508933e+003,2.803615e+001
1.509897e+003,3.179243e+001
1.510861e+003,3.741013e+001
1.511825e+003,4.390608e+001
1.512790e+003,5.091191e+001
1.513754e+003,5.751820e+001
1.514718e+003,6.142181e+001
1.515682e+003,6.257280e+001
1.516646e+003,6.632141e+001
1.517611e+003,7.448172e+001
1.518575e+003,8.212289e+001
1.519539e+003,8.784500e+001
1.520503e+003,9.268298e+001
1.521468e+003,9.784341e+001
1.522432e+003,1.020098e+002
1.523396e+003,1.027132e+002
1.524360e+003,1.002656e+002
1.525325e+003,9.790939e+001
1.526289e+003,9.782248e+001
1.527253e+003,9.818549e+001
1.528217e+003,9.558347e+001
1.529182e+003,9.005011e+001
1.530146e+003,8.482344e+001
1.531110e+003,8.044301e+001
1.532074e+003,7.515640e+001
1.533039e+003,6.837027e+001
1.534003e+003,6.089597e+001
1.534967e+003,5.263022e+001
1.535931e+003,4.456117e+001
1.536896e+003,3.767703e+001
1.537860e+003,3.201981e+001
1.538824e+003,2.706551e+001
1.539788e+003,2.247037e+001
1.540752e+003,1.812531e+001
1.541717e+003,1.386792e+001
1.542681e+003,9.919586e+000
1.543645e+003,7.266907e+000
1.544609e+003,6.265305e+000
1.545573e+003,6.084015e+000
1.546538e+003,7.345215e+000
1.547502e+003,8.317368e+000
1.548466e+003,8.176224e+000
1.549430e+003,7.848663e+000
1.550395e+003,8.357071e+000
1.551359e+003,9.418137e+000
1.552323e+003,9.982040e+000
1.553287e+003,9.727127e+000
1.554252e+003,9.568512e+000
1.555216e+003,1.050253e+001
1.556180e+003,1.147859e+001
1.557144e+003,9.595795e+000
1.558109e+003,4.782990e+000
1.559073e+003,1.947861e+000
1.560037e+003,1.779129e+000
1.561001e+003,2.059616e+000
1.561966e+003,2.585739e+000
1.562930e+003,3.013611e+000
1.563894e+003,2.589050e+000
1.564858e+003,1.801437e+000
1.565823e+003,2.233887e+000
1.566787e+003,4.062546e+000
1.567751e+003,5.072159e+000
1.568715e+003,3.786621e+000
1.569679e+003,2.017670e+000
1.570644e+003,2.219788e+000
1.571608e+003,3.573227e+000
1.572572e+003,3.571899e+000
1.573536e+003,2.160019e+000
1.574500e+003,1.765182e+000
1.575465e+003,3.560349e+000
1.576429e+003,5.918106e+000
1.577393e+003,8.097748e+000
1.578357e+003,9.612366e+000
1.579322e+003,9.156265e+000
1.580286e+003,6.864609e+000
1.581250e+003,4.945297e+000
1.582214e+003,3.885025e+000
1.583179e+003,4.067764e+000
1.584143e+003,7.078842e+000
1.585107e+003,1.020911e+001
1.586071e+003,9.303513e+000
1.587036e+003,5.780518e+000
1.588000e+003,3.821259e+000
1.588964e+003,4.298859e+000
1.589928e+003,5.378464e+000
1.590893e+003,5.896118e+000
1.591857e+003,6.330322e+000
1.592821e+003,7.568954e+000
1.593785e+003,9.442581e+000
1.594750e+003,1.099754e+001
1.595714e+003,1.217390e+001
1.596678e+003,1.232111e+001
1.597642e+003,1.060828e+001
1.598606e+003,8.640579e+000
1.599571e+003,7.295441e+000
1.600535e+003,6.751236e+000
1.601499e+003,7.766403e+000
1.602463e+003,9.918564e+000
1.603427e+003,1.119853e+001
1.604392e+003,1.073975e+001
1.605356e+003,9.728470e+000
1.606320e+003,9.133743e+000
1.607284e+003,8.998947e+000
1.608249e+003,9.706894e+000
1.609213e+003,1.130872e+001
1.610177e+003,1.200551e+001
1.611141e+003,1.127943e+001
1.612106e+003,1.018954e+001
1.613070e+003,8.095520e+000
1.614034e+003,6.904312e+000
1.614998e+003,9.504730e+000
1.615963e+003,1.338347e+001
1.616927e+003,1.353499e+001
1.617891e+003,9.737045e+000
1.618855e+003,6.832474e+000
1.619820e+003,7.768204e+000
1.620784e+003,1.020619e+001
1.621748e+003,1.111551e+001
1.622712e+003,1.083226e+001
1.623677e+003,1.058589e+001
1.624641e+003,1.036279e+001
1.625605e+003,1.043991e+001
1.626569e+003,1.116100e+001
1.627533e+003,1.123889e+001
1.628498e+003,9.669373e+000
1.629462e+003,7.777969e+000
1.630426e+003,5.931488e+000
1.631390e+003,4.815506e+000
1.632354e+003,6.302368e+000
1.633319e+003,1.045335e+001
1.634283e+003,1.387735e+001
1.635247e+003,1.388435e+001
1.636211e+003,1.225841e+001
1.637176e+003,1.264058e+001
1.638140e+003,1.482196e+001
1.639104e+003,1.454861e+001
1.640068e+003,1.072984e+001
1.641033e+003,8.039001e+000
1.641997e+003,8.079987e+000
1.642961e+003,8.940140e+000
1.643925e+003,1.016287e+001
1.644890e+003,1.124327e+001
1.645854e+003,1.147704e+001
1.646818e+003,1.114827e+001
1.647782e+003,1.127435e+001
1.648747e+003,1.208588e+001
1.649711e+003,1.229272e+001
1.650675e+003,1.058109e+001
1.651639e+003,8.315857e+000
1.652604e+003,8.660339e+000
1.653568e+003,1.142366e+001
1.654532e+003,1.231865e+001
1.655496e+003,1.043619e+001
1.656460e+003,9.208740e+000
1.657425e+003,1.037312e+001
1.658389e+003,1.143365e+001
1.659353e+003,1.081746e+001
1.660317e+003,9.577682e+000
1.661281e+003,8.741028e+000
1.662246e+003,8.290924e+000
1.663210e+003,7.734711e+000
1.664174e+003,6.969894e+000
1.665138e+003,6.769043e+000
1.666103e+003,7.869278e+000
1.667067e+003,9.693024e+000
1.668031e+003,1.166507e+001
1.668995e+003,1.364969e+001
1.669960e+003,1.293707e+001
1.670924e+003,8.460770e+000
1.671888e+003,5.128250e+000
1.672852e+003,4.834274e+000
1.673817e+003,5.389130e+000
1.674781e+003,5.710434e+000
1.675745e+003,5.849640e+000
1.676709e+003,5.565887e+000
1.677674e+003,5.156265e+000
1.678638e+003,5.752060e+000
1.679602e+003,7.681549e+000
1.680566e+003,9.050491e+000
1.681531e+003,8.058853e+000
1.682495e+003,6.208374e+000
1.683459e+003,6.342941e+000
1.684423e+003,7.947372e+000
1.685387e+003,7.731201e+000
1.686352e+003,5.130661e+000
1.687316e+003,3.291702e+000
1.688280e+003,3.522339e+000
1.689244e+003,4.143951e+000
1.690208e+003,3.933350e+000
1.691173e+003,3.408905e+000
1.692137e+003,3.039337e+000
1.693101e+003,2.939835e+000
1.694065e+003,3.195984e+000
1.695030e+003,3.758759e+000
1.695994e+003,4.536926e+000
1.696958e+003,5.727478e+000
1.697922e+003,6.883820e+000
1.698887e+003,7.652206e+000
1.699851e+003,7.929077e+000
1.700815e+003,7.119995e+000
1.701779e+003,5.168304e+000
1.702744e+003,3.084305e+000
1.703708e+003,9.814301e-001
1.704672e+003,6.869507e-002
1.705636e+003,1.858047e+000
1.706601e+003,4.462036e+000
1.707565e+003,5.311844e+000
1.708529e+003,4.803986e+000
1.709493e+003,3.613846e+000
1.710458e+003,1.629562e+000
1.711422e+003,6.378326e-001
1.712386e+003,2.667435e+000
1.713350e+003,4.519302e+000
1.714314e+003,2.737503e+000
1.715279e+003,-5.334320e-001
1.716243e+003,-1.408859e+000
1.717207e+003,-1.122131e-001
1.718171e+003,5.656128e-001
1.719135e+003,-1.299133e-001
1.720100e+003,-6.143646e-001
1.721064e+003,2.660370e-001
1.722028e+003,1.416443e+000
1.722992e+003,1.149277e+000
1.723957e+003,-8.296204e-002
1.724921e+003,1.562500e-002
1.725885e+003,1.648956e+000
1.726849e+003,2.330399e+000
1.727814e+003,1.209335e+000
1.728778e+003,1.478577e-002
1.729742e+003,-8.425903e-001
1.730706e+003,-1.209747e+000
1.731671e+003,-6.880035e-001
1.732635e+003,1.861725e-001
1.733599e+003,3.824921e-001
1.734563e+003,-6.872559e-002
1.735528e+003,-4.342651e-002
1.736492e+003,1.009949e+000
1.737456e+003,1.848480e+000
1.738420e+003,8.452759e-001
1.739385e+003,-1.232498e+000
1.740349e+003,-1.182388e+000
1.741313e+003,1.779068e+000
1.742277e+003,3.183243e+000
1.743241e+003,2.081726e+000
1.744206e+003,1.165833e+000
1.745170e+003,1.281281e+000
1.746134e+003,9.716949e-001
1.747098e+003,-1.225235e+000
1.748063e+003,-3.806351e+000
1.749027e+003,-5.267532e+000
1.749991e+003,-5.407837e+000
1.750955e+003,-4.206665e+000
1.751919e+003,-1.947311e+000
1.752884e+003,2.682800e-001
1.753848e+003,1.545761e+000
1.754812e+003,1.649780e+000
1.755776e+003,-1.618805e-001
1.756741e+003,-3.698471e+000
1.757705e+003,-4.772186e+000
1.758669e+003,-2.520737e+000
1.759633e+003,-5.120544e-001
1.760598e+003,1.029037e+000
1.761562e+003,1.964020e+000
1.762526e+003,2.416519e+000
1.763490e+003,2.268860e+000
1.764455e+003,8.645325e-001
1.765419e+003,-8.813477e-001
1.766383e+003,-1.540695e+000
1.767347e+003,-1.133560e+000
1.768312e+003,-7.329254e-001
1.769276e+003,-8.636017e-001
1.770240e+003,-1.258804e+000
1.771204e+003,-1.542480e+000
1.772168e+003,-1.749634e+000
1.773133e+003,-2.261337e+000
1.774097e+003,-3.011520e+000
1.775061e+003,-3.289886e+000
1.776025e+003,-3.094833e+000
1.776990e+003,-2.518661e+000
1.777954e+003,-1.422577e+000
1.778918e+003,-2.043152e-002
1.779882e+003,2.153030e+000
1.780846e+003,3.887985e+000
1.781811e+003,3.229156e+000
1.782775e+003,9.243317e-001
1.783739e+003,-6.374207e-001
1.784703e+003,-1.069916e+000
1.785668e+003,-1.099014e+000
1.786632e+003,-7.828674e-001
1.787596e+003,-6.696625e-001
1.788560e+003,-1.531250e+000
1.789525e+003,-2.363998e+000
1.790489e+003,-1.433975e+000
1.791453e+003,5.942841e-001
1.792417e+003,1.464691e+000
1.793382e+003,7.939606e-001
1.794346e+003,7.218933e-002
1.795310e+003,8.348083e-002
1.796274e+003,2.079010e-001
1.797239e+003,-2.329407e-001
1.798203e+003,-9.554749e-001
1.799167e+003,-1.347946e+000
1.800131e+003,-1.505524e+000
1.801095e+003,-1.847580e+000
1.802060e+003,-2.252914e+000
1.803024e+003,-2.702255e+000
1.803988e+003,-3.461273e+000
1.804952e+003,-4.048599e+000
1.805917e+003,-4.403610e+000
1.806881e+003,-4.342194e+000
1.807845e+003,-3.426498e+000
1.808809e+003,-2.012100e+000
1.809773e+003,-5.798950e-001
1.810738e+003,5.492554e-001
1.811702e+003,6.979370e-001
1.812666e+003,-5.272522e-001
1.813630e+003,-2.014999e+000
1.814595e+003,-2.290573e+000
1.815559e+003,-1.573135e+000
1.816523e+003,-3.421478e-001
1.817487e+003,1.605896e+000
1.818452e+003,1.692169e+000
1.819416e+003,-1.152191e+000
1.820380e+003,-2.803314e+000
1.821344e+003,-1.191406e+000
1.822309e+003,3.391571e-001
1.823273e+003,-3.527832e-001
1.824237e+003,-1.819931e+000
1.825201e+003,-3.094498e+000
1.826166e+003,-3.906128e+000
1.827130e+003,-3.481506e+000
1.828094e+003,-1.772690e+000
1.829058e+003,-4.862823e-001
1.830022e+003,-5.346527e-001
1.830987e+003,-8.837585e-001
1.831951e+003,-5.932312e-001
1.832915e+003,-1.430664e-001
1.833879e+003,-5.662537e-001
1.834844e+003,-1.401474e+000
1.835808e+003,-8.970337e-001
1.836772e+003,1.036713e+000
1.837736e+003,2.498444e+000
1.838700e+003,2.625778e+000
1.839665e+003,1.917557e+000
1.840629e+003,6.813354e-001
1.841593e+003,-5.327148e-001
1.842557e+003,-5.259094e-001
1.843522e+003,6.762238e-001
1.844486e+003,1.371414e+000
1.845450e+003,1.699585e+000
1.846414e+003,1.400177e+000
1.847379e+003,-5.212555e-001
1.848343e+003,-1.953583e+000
1.849307e+003,-1.949356e+000
1.850271e+003,-1.508850e+000
1.851236e+003,-1.193848e+000
1.852200e+003,-9.479675e-001
1.853164e+003,-5.660858e-001
1.854128e+003,-2.273254e-001
1.855093e+003,-3.692780e-001
1.856057e+003,-1.055054e+000
1.857021e+003,-1.941498e+000
1.857985e+003,-2.880997e+000
1.858949e+003,-3.462112e+000
1.859914e+003,-2.628006e+000
1.860878e+003,-7.018585e-001
1.861842e+003,2.518005e-001
1.862806e+003,1.659241e-001
1.863771e+003,4.862061e-001
1.864735e+003,1.670807e+000
1.865699e+003,1.988678e+000
1.866663e+003,2.496643e-001
1.867627e+003,-1.599731e+000
1.868592e+003,-1.838577e+000
1.869556e+003,-1.204575e+000
1.870520e+003,-9.003448e-001
1.871484e+003,-8.945465e-001
1.872449e+003,-9.495544e-001
1.873413e+003,-8.963776e-001
1.874377e+003,-5.813293e-001
1.875341e+003,-3.238983e-001
1.876306e+003,2.896881e-001
1.877270e+003,2.051956e+000
1.878234e+003,3.707672e+000
1.879198e+003,4.054504e+000
1.880163e+003,3.364075e+000
1.881127e+003,1.799606e+000
1.882091e+003,-8.010864e-002
1.883055e+003,-7.355042e-001
1.884020e+003,3.565369e-001
1.884984e+003,1.900009e+000
1.885948e+003,2.745895e+000
1.886912e+003,2.934921e+000
1.887876e+003,2.386093e+000
1.888841e+003,1.242279e+000
1.889805e+003,1.322098e+000
1.890769e+003,2.925171e+000
1.891733e+003,4.130478e+000
1.892698e+003,4.592178e+000
1.893662e+003,4.941864e+000
1.894626e+003,6.012222e+000
1.895590e+003,6.259460e+000
1.896554e+003,3.266388e+000
1.897519e+003,-8.003235e-002
1.898483e+003,1.128387e-001
1.899447e+003,2.869019e+000
1.900411e+003,4.759186e+000
1.901376e+003,5.256088e+000
1.902340e+003,5.003601e+000
1.903304e+003,3.891251e+000
1.904268e+003,2.614319e+000
1.905233e+003,1.005417e+000
1.906197e+003,4.763794e-002
1.907161e+003,1.605438e+000
1.908125e+003,4.159576e+000
1.909090e+003,4.646545e+000
1.910054e+003,3.195007e+000
1.911018e+003,2.026886e+000
1.911982e+003,1.971817e+000
1.912947e+003,2.576111e+000
1.913911e+003,3.486954e+000
1.914875e+003,3.962860e+000
1.915839e+003,2.647568e+000
1.916803e+003,7.931519e-002
1.917768e+003,-5.946045e-001
1.918732e+003,9.678345e-001
1.919696e+003,2.621475e+000
1.920660e+003,4.672882e+000
1.921625e+003,5.942047e+000
1.922589e+003,5.728104e+000
1.923553e+003,5.305069e+000
1.924517e+003,5.593277e+000
1.925481e+003,5.747314e+000
1.926446e+003,4.764343e+000
1.927410e+003,3.213974e+000
1.928374e+003,2.075790e+000
1.929338e+003,1.413452e+000
1.930303e+003,1.299850e+000
1.931267e+003,2.060425e+000
1.932231e+003,2.767014e+000
1.933195e+003,2.954651e+000
1.934160e+003,2.837967e+000
1.935124e+003,2.303329e+000
1.936088e+003,1.725998e+000
1.937052e+003,1.683487e+000
1.938017e+003,2.046600e+000
1.938981e+003,2.328384e+000
1.939945e+003,2.480133e+000
1.940909e+003,2.928360e+000
1.941874e+003,3.793457e+000
1.942838e+003,4.344299e+000
1.943802e+003,3.913956e+000
1.944766e+003,3.396088e+000
1.945730e+003,4.808319e+000
1.946695e+003,7.621857e+000
1.947659e+003,7.530151e+000
1.948623e+003,4.177902e+000
1.949587e+003,1.678619e+000
1.950552e+003,4.830780e-001
1.951516e+003,2.689056e-001
1.952480e+003,1.216431e+000
1.953444e+003,2.528519e+000
1.954408e+003,3.910950e+000
1.955373e+003,5.002975e+000
1.956337e+003,5.201477e+000
1.957301e+003,4.846359e+000
1.958265e+003,4.934204e+000
1.959230e+003,5.588806e+000
1.960194e+003,5.885727e+000
1.961158e+003,5.473236e+000
1.962122e+003,4.775650e+000
1.963087e+003,3.331955e+000
1.964051e+003,2.365616e+000
1.965015e+003,2.953476e+000
1.965979e+003,4.166214e+000
1.966944e+003,4.915268e+000
1.967908e+003,5.453278e+000
1.968872e+003,6.905258e+000
1.969836e+003,9.006226e+000
1.970801e+003,1.003082e+001
1.971765e+003,9.281097e+000
1.972729e+003,7.608429e+000
1.973693e+003,5.371277e+000
1.974657e+003,3.648041e+000
1.975622e+003,4.861786e+000
1.976586e+003,7.521729e+000
1.977550e+003,7.217682e+000
1.978514e+003,4.526077e+000
1.979479e+003,3.063614e+000
1.980443e+003,3.325256e+000
1.981407e+003,4.198471e+000
1.982371e+003,5.350754e+000
1.983335e+003,6.156403e+000
1.984300e+003,6.061554e+000
1.985264e+003,5.454514e+000
1.986228e+003,4.885422e+000
1.987192e+003,4.485825e+000
1.988157e+003,5.032578e+000
1.989121e+003,6.885208e+000
1.990085e+003,7.969391e+000
1.991049e+003,8.039307e+000
1.992014e+003,7.929031e+000
1.992978e+003,7.483398e+000
1.993942e+003,7.122971e+000
1.994906e+003,6.923950e+000
1.995871e+003,6.932266e+000
1.996835e+003,7.600662e+000
1.997799e+003,8.301025e+000
1.998763e+003,7.547989e+000
1.999728e+003,5.840729e+000
