5.003444e+002,2.461646e+001
5.013087e+002,2.786237e+001
5.022729e+002,2.972345e+001
5.032371e+002,3.023633e+001
5.042014e+002,2.860583e+001
5.051656e+002,2.528235e+001
5.061298e+002,2.214526e+001
5.070941e+002,2.086646e+001
5.080583e+002,2.172162e+001
5.090225e+002,2.188202e+001
5.099868e+002,2.073633e+001
5.109510e+002,1.973004e+001
5.119152e+002,1.996417e+001
5.128795e+002,2.162708e+001
5.138437e+002,2.243353e+001
5.148079e+002,2.035034e+001
5.157722e+002,1.856793e+001
5.167364e+002,1.857660e+001
5.177006e+002,2.026556e+001
5.186649e+002,2.214185e+001
5.196291e+002,2.311914e+001
5.205933e+002,2.339917e+001
5.215576e+002,2.208136e+001
5.225218e+002,1.914185e+001
5.234860e+002,1.583417e+001
5.244503e+002,1.485095e+001
5.254145e+002,1.773608e+001
5.263787e+002,1.803687e+001
5.273430e+002,1.367957e+001
5.283072e+002,8.141907e+000
5.292714e+002,6.314087e+000
5.302357e+002,9.946167e+000
5.311999e+002,1.272430e+001
5.321641e+002,1.456409e+001
5.331284e+002,1.572479e+001
5.340926e+002,1.597516e+001
5.350568e+002,1.498029e+001
5.360211e+002,1.367456e+001
5.369853e+002,1.353467e+001
5.379495e+002,1.387341e+001
5.389138e+002,1.412567e+001
5.398780e+002,1.395288e+001
5.408422e+002,1.326251e+001
5.418065e+002,1.153302e+001
5.427707e+002,8.993713e+000
5.437349e+002,7.651489e+000
5.446992e+002,8.414673e+000
5.456634e+002,1.039337e+001
5.466276e+002,1.053815e+001
5.475919e+002,6.314209e+000
5.485561e+002,3.581238e+000
5.495203e+002,3.272766e+000
5.504846e+002,4.056763e+000
5.514488e+002,3.953491e+000
5.524130e+002,1.743591e+000
5.533773e+002,5.092773e-001
5.543415e+002,3.144470e+000
5.553057e+002,6.691956e+000
5.562700e+002,7.436157e+000
5.572342e+002,3.107849e+000
5.581984e+002,-3.153503e+000
5.591627e+002,-2.455322e+000
5.601269e+002,2.660156e+000
5.610911e+002,6.692322e+000
5.620554e+002,6.669678e+000
5.630196e+002,2.953003e+000
5.639838e+002,-6.213379e-002
5.649481e+002,-3.208862e+000
5.659123e+002,-4.472839e+000
5.668765e+002,-1.682678e+000
5.678408e+002,3.799805e+000
5.688050e+002,7.554932e+000
5.697692e+002,7.310242e+000
5.707335e+002,5.526733e+000
5.716977e+002,2.150879e+000
5.726619e+002,-1.635193e+000
5.736262e+002,-4.540039e+000
5.745904e+002,-5.675842e+000
5.755546e+002,-5.229248e+000
5.765189e+002,-3.242188e+000
5.774831e+002,-8.323364e-001
5.784473e+002,2.278442e-001
5.794116e+002,-1.117737e+000
5.803758e+002,-4.322083e+000
5.813400e+002,-5.106201e+000
5.823043e+002,-2.987732e+000
5.832685e+002,-1.829895e+000
5.842327e+002,-3.382019e+000
5.851970e+002,-6.868408e+000
5.861612e+002,-8.613586e+000
5.871254e+002,-6.609558e+000
5.880897e+002,-4.901367e+000
5.890539e+002,-4.620117e+000
5.900181e+002,-5.267151e+000
5.909824e+002,-5.779663e+000
5.919466e+002,-5.371521e+000
5.929108e+002,-4.532349e+000
5.938751e+002,-3.553101e+000
5.948393e+002,-2.710632e+000
5.958035e+002,-2.562927e+000
5.967678e+002,-3.443359e+000
5.977320e+002,-4.957214e+000
5.986962e+002,-4.875732e+000
5.996605e+002,-3.633972e+000
6.006247e+002,-2.411865e+000
6.015889e+002,-2.075317e+000
6.025532e+002,-2.437683e+000
6.035174e+002,-1.333252e+000
6.044816e+002,5.221802e+000
6.054459e+002,8.924194e+000
6.064101e+002,6.675354e+000
6.073743e+002,1.005554e+000
6.083386e+002,-3.284424e+000
6.093028e+002,-3.008484e+000
6.102670e+002,-2.094910e+000
6.112313e+002,-4.638367e+000
6.121955e+002,-8.408447e+000
6.131597e+002,-1.025446e+001
6.141240e+002,-8.071655e+000
6.150882e+002,-3.134644e+000
6.160524e+002,-1.660156e-001
6.170167e+002,1.336609e+000
6.179809e+002,1.147827e+000
6.189451e+002,-1.716797e+000
6.199094e+002,-6.852844e+000
6.208736e+002,-9.865601e+000
6.218378e+002,-8.326233e+000
6.228021e+002,-6.493164e+000
6.237663e+002,-4.322021e+000
6.247305e+002,-2.051758e+000
6.256948e+002,-5.114746e-002
6.266590e+002,1.409790e+000
6.276232e+002,1.908875e+000
6.285875e+002,1.375610e+000
6.295517e+002,4.639893e-001
6.305159e+002,-2.545776e-001
6.314802e+002,-5.705566e-001
6.324444e+002,-8.949585e-001
6.334086e+002,-2.436035e+000
6.343729e+002,-4.409546e+000
6.353371e+002,-4.861633e+000
6.363013e+002,-2.858765e+000
6.372656e+002,5.196533e-001
6.382298e+002,1.653503e+000
6.391940e+002,-2.658325e+000
6.401583e+002,-5.351990e+000
6.411225e+002,-4.549866e+000
6.420867e+002,-2.307922e+000
6.430510e+002,-1.340454e+000
6.440152e+002,-2.881104e+000
6.449794e+002,-5.137390e+000
6.459437e+002,-7.003418e+000
6.469079e+002,-9.068176e+000
6.478721e+002,-1.258203e+001
6.488364e+002,-1.743542e+001
6.498006e+002,-2.118140e+001
6.507648e+002,-1.813080e+001
6.517291e+002,-1.097308e+001
6.526933e+002,-5.897034e+000
6.536575e+002,-4.094421e+000
6.546218e+002,-4.539368e+000
6.555860e+002,-5.286804e+000
6.565502e+002,-6.626770e+000
6.575145e+002,-7.759460e+000
6.584787e+002,-9.067383e+000
6.594429e+002,-9.866028e+000
6.604072e+002,-9.576721e+000
6.613714e+002,-8.060547e+000
6.623356e+002,-5.856812e+000
6.632999e+002,-1.695618e+000
6.642641e+002,1.355164e+000
6.652283e+002,1.051331e+000
6.661926e+002,-1.986145e+000
6.671568e+002,-4.984192e+000
6.681210e+002,-4.585266e+000
6.690853e+002,-2.210266e+000
6.700495e+002,-1.571106e+000
6.710137e+002,-2.633850e+000
6.719780e+002,-3.871033e+000
6.729422e+002,-3.611206e+000
6.739064e+002,-1.477661e+000
6.748707e+002,-9.456787e-001
6.758349e+002,-3.094116e+000
6.767991e+002,-5.239136e+000
6.777634e+002,-5.744507e+000
6.787276e+002,-4.637451e+000
6.796918e+002,-3.884705e+000
6.806561e+002,-5.758667e+000
6.816203e+002,-6.965088e+000
6.825845e+002,-5.196716e+000
6.835488e+002,-2.063721e+000
6.845130e+002,-3.491211e-001
6.854772e+002,-2.185791e+000
6.864415e+002,-5.637451e+000
6.874057e+002,-7.124756e+000
6.883699e+002,-7.367615e+000
6.893342e+002,-6.931458e+000
6.902984e+002,-5.944092e+000
6.912626e+002,-4.474976e+000
6.922269e+002,-3.703979e+000
6.931911e+002,-3.621216e+000
6.941553e+002,-3.303772e+000
6.951196e+002,-3.161865e+000
6.960838e+002,-3.179138e+000
6.970480e+002,-2.978149e+000
6.980123e+002,-2.089478e+000
6.989765e+002,-1.543701e+000
6.999407e+002,-1.946167e+000
7.009050e+002,-2.746643e+000
7.018692e+002,-3.347717e+000
7.028334e+002,-3.686340e+000
7.037977e+002,-4.600952e+000
7.047619e+002,-8.349365e+000
7.057261e+002,-1.283215e+001
7.066904e+002,-1.360626e+001
7.076546e+002,-9.981201e+000
7.086188e+002,-4.884521e+000
7.095831e+002,-3.132446e+000
7.105473e+002,-6.866577e+000
7.115115e+002,-7.657227e+000
7.124758e+002,-3.514282e+000
7.134400e+002,7.360229e-001
7.144042e+002,2.398682e+000
7.153685e+002,1.487427e+000
7.163327e+002,3.045654e-002
7.172969e+002,-2.070618e+000
7.182612e+002,-3.524292e+000
7.192254e+002,-3.370911e+000
7.201896e+002,-2.322021e+000
7.211539e+002,-1.713501e+000
7.221181e+002,-2.636902e+000
7.230823e+002,-4.597595e+000
7.240466e+002,-6.470886e+000
7.250108e+002,-7.915344e+000
7.259750e+002,-8.331482e+000
7.269393e+002,-7.560547e+000
7.279035e+002,-6.103149e+000
7.288677e+002,-5.274841e+000
7.298320e+002,-4.141052e+000
7.307962e+002,-3.519836e+000
7.317604e+002,-4.384216e+000
7.327247e+002,-5.345581e+000
7.336889e+002,-4.428955e+000
7.346531e+002,-9.685669e-001
7.356174e+002,1.613708e+000
7.365816e+002,2.718140e+000
7.375458e+002,2.668823e+000
7.385101e+002,8.843994e-001
7.394743e+002,-2.328003e+000
7.404385e+002,-5.521667e+000
7.414028e+002,-6.743286e+000
7.423670e+002,-6.598328e+000
7.433312e+002,-5.144775e+000
7.442955e+002,-1.679749e+000
7.452597e+002,2.148376e+000
7.462239e+002,4.125977e+000
7.471882e+002,3.520081e+000
7.481524e+002,3.418457e+000
7.491166e+002,3.363037e+000
7.500809e+002,3.243530e+000
7.510451e+002,3.242371e+000
7.520093e+002,3.215881e+000
7.529736e+002,2.674316e+000
7.539378e+002,1.353638e+000
7.549020e+002,4.336548e-001
7.558663e+002,8.279419e-001
7.568306e+002,1.857605e+000
7.577948e+002,2.209412e+000
7.587590e+002,1.081299e+000
7.597233e+002,-6.947632e-001
7.606875e+002,9.902344e-001
7.616517e+002,5.819092e+000
7.626160e+002,8.146606e+000
7.635802e+002,5.609863e+000
7.645444e+002,9.121094e-001
7.655087e+002,-2.124023e-002
7.664729e+002,5.756714e+000
7.674371e+002,8.549622e+000
7.684014e+002,6.023193e+000
7.693656e+002,2.445679e+000
7.703298e+002,9.252930e-002
7.712941e+002,-5.211792e-001
7.722583e+002,3.989258e-001
7.732225e+002,4.484131e+000
7.741868e+002,8.312927e+000
7.751510e+002,8.401794e+000
7.761152e+002,5.901062e+000
7.770795e+002,4.031555e+000
7.780437e+002,5.613342e+000
7.790079e+002,9.889954e+000
7.799722e+002,1.088220e+001
7.809364e+002,8.629211e+000
7.819006e+002,5.694214e+000
7.828649e+002,2.265503e+000
7.838291e+002,-8.207397e-001
7.847933e+002,-9.859619e-001
7.857576e+002,4.265198e+000
7.867218e+002,7.247925e+000
7.876860e+002,5.786987e+000
7.886503e+002,3.132263e+000
7.896145e+002,1.937195e+000
7.905787e+002,2.890625e+000
7.915430e+002,4.454529e+000
7.925072e+002,5.116089e+000
7.934714e+002,4.748230e+000
7.944357e+002,3.199707e+000
7.953999e+002,9.450073e-001
7.963641e+002,-1.012817e+000
7.973284e+002,-1.688721e+000
7.982926e+002,-1.016846e+000
7.992568e+002,8.374023e-002
8.002211e+002,8.228149e-001
8.011853e+002,1.578308e+000
8.021495e+002,3.605103e+000
8.031138e+002,6.801086e+000
8.040780e+002,9.207642e+000
8.050422e+002,9.509094e+000
8.060065e+002,9.438293e+000
8.069707e+002,9.731140e+000
8.079349e+002,9.503906e+000
8.088992e+002,7.386719e+000
8.098634e+002,3.335999e+000
8.108276e+002,-1.737061e-001
8.117919e+002,7.636719e-001
8.127561e+002,3.919495e+000
8.137203e+002,6.328674e+000
8.146846e+002,7.956909e+000
8.156488e+002,8.483887e+000
8.166130e+002,6.906616e+000
8.175773e+002,2.217651e+000
8.185415e+002,1.042847e+000
8.195057e+002,5.197937e+000
8.204700e+002,9.228821e+000
8.214342e+002,1.186182e+001
8.223984e+002,1.299500e+001
8.233627e+002,1.243182e+001
8.243269e+002,9.316162e+000
8.252911e+002,6.295959e+000
8.262554e+002,3.875793e+000
8.272196e+002,2.739563e+000
8.281838e+002,4.417114e+000
8.291481e+002,8.922302e+000
8.301123e+002,1.386578e+001
8.310765e+002,1.480884e+001
8.320408e+002,1.188580e+001
8.330050e+002,9.961060e+000
8.339692e+002,9.620117e+000
8.349335e+002,9.516174e+000
8.358977e+002,8.086975e+000
8.368619e+002,5.134033e+000
8.378262e+002,3.835938e+000
8.387904e+002,5.145203e+000
8.397546e+002,6.556152e+000
8.407189e+002,7.529053e+000
8.416831e+002,8.249634e+000
8.426473e+002,9.091858e+000
8.436116e+002,1.020679e+001
8.445758e+002,1.181531e+001
8.455400e+002,1.475702e+001
8.465043e+002,1.728680e+001
8.474685e+002,1.747443e+001
8.484327e+002,1.524274e+001
8.493970e+002,1.210297e+001
8.503612e+002,1.006366e+001
8.513254e+002,8.992859e+000
8.522897e+002,9.978638e+000
8.532539e+002,1.420593e+001
8.542181e+002,1.821906e+001
8.551824e+002,2.065839e+001
8.561466e+002,2.188794e+001
8.571108e+002,2.202289e+001
8.580751e+002,1.896051e+001
8.590393e+002,1.572449e+001
8.600035e+002,1.244464e+001
8.609678e+002,1.053540e+001
8.619320e+002,1.221906e+001
8.628962e+002,1.802228e+001
8.638605e+002,2.457611e+001
8.648247e+002,2.625275e+001
8.657889e+002,2.494727e+001
8.667532e+002,2.519012e+001
8.677174e+002,2.754773e+001
8.686816e+002,2.956396e+001
8.696459e+002,2.816711e+001
8.706101e+002,2.278174e+001
8.715743e+002,1.984308e+001
8.725386e+002,1.991589e+001
8.735028e+002,2.145068e+001
8.744670e+002,2.505042e+001
8.754313e+002,2.915942e+001
8.763955e+002,3.113177e+001
8.773597e+002,2.978375e+001
8.783240e+002,2.805688e+001
8.792882e+002,2.764142e+001
8.802524e+002,2.784192e+001
8.812167e+002,2.849207e+001
8.821809e+002,2.933081e+001
8.831451e+002,2.979431e+001
8.841094e+002,2.912744e+001
8.850736e+002,2.769031e+001
8.860378e+002,2.786145e+001
8.870021e+002,2.973804e+001
8.879663e+002,3.180469e+001
8.889305e+002,3.363745e+001
8.898948e+002,3.490210e+001
8.908590e+002,3.421759e+001
8.918232e+002,2.994128e+001
8.927875e+002,2.685553e+001
8.937517e+002,2.543988e+001
8.947159e+002,2.581726e+001
8.956802e+002,2.875397e+001
8.966444e+002,3.369904e+001
8.976086e+002,3.798413e+001
8.985729e+002,3.895270e+001
8.995371e+002,3.817139e+001
9.005013e+002,3.807031e+001
9.014656e+002,3.873346e+001
9.024298e+002,3.934961e+001
9.033940e+002,3.903113e+001
9.043583e+002,3.774622e+001
9.053225e+002,3.740540e+001
9.062867e+002,3.818329e+001
9.072510e+002,3.934595e+001
9.082152e+002,4.252332e+001
9.091794e+002,4.574445e+001
9.101437e+002,4.645227e+001
9.111079e+002,4.417255e+001
9.120721e+002,4.239136e+001
9.130364e+002,4.361505e+001
9.140006e+002,4.495081e+001
9.149648e+002,4.541461e+001
9.159291e+002,4.504871e+001
9.168933e+002,4.358490e+001
9.178575e+002,4.073584e+001
9.188218e+002,3.725232e+001
9.197860e+002,3.676245e+001
9.207502e+002,3.919037e+001
9.217145e+002,4.059039e+001
9.226787e+002,4.039972e+001
9.236429e+002,3.954163e+001
9.246072e+002,3.892853e+001
9.255714e+002,3.842255e+001
9.265356e+002,3.748077e+001
9.274999e+002,3.508282e+001
9.284641e+002,3.295404e+001
9.294283e+002,3.151819e+001
9.303926e+002,3.109216e+001
9.313568e+002,3.243396e+001
9.323210e+002,3.606689e+001
9.332853e+002,3.973230e+001
9.342495e+002,3.910577e+001
9.352137e+002,3.609106e+001
9.361780e+002,3.340588e+001
9.371422e+002,3.192816e+001
9.381064e+002,3.145911e+001
9.390707e+002,3.134082e+001
9.400349e+002,3.103943e+001
9.409991e+002,3.234351e+001
9.419634e+002,3.719025e+001
9.429276e+002,4.077441e+001
9.438918e+002,4.128833e+001
9.448561e+002,4.007599e+001
9.458203e+002,3.948566e+001
9.467845e+002,4.036682e+001
9.477488e+002,4.141675e+001
9.487130e+002,4.167334e+001
9.496772e+002,4.152032e+001
9.506415e+002,4.092535e+001
9.516057e+002,4.011993e+001
9.525699e+002,3.973083e+001
9.535342e+002,4.035046e+001
9.544984e+002,4.162695e+001
9.554626e+002,4.150830e+001
9.564269e+002,4.014569e+001
9.573911e+002,3.945557e+001
9.583553e+002,3.955334e+001
9.593196e+002,4.056354e+001
9.602838e+002,4.322327e+001
9.612480e+002,4.819385e+001
9.622123e+002,5.155988e+001
9.631765e+002,5.290436e+001
9.641407e+002,5.205579e+001
9.651050e+002,4.626678e+001
9.660692e+002,3.823877e+001
9.670334e+002,3.384601e+001
9.679977e+002,3.703461e+001
9.689619e+002,4.380963e+001
9.699261e+002,4.449353e+001
9.708904e+002,4.081824e+001
9.718546e+002,3.787714e+001
9.728188e+002,3.644849e+001
9.737831e+002,3.672430e+001
9.747473e+002,3.977246e+001
9.757115e+002,4.665906e+001
9.766758e+002,5.112164e+001
9.776400e+002,5.282355e+001
9.786042e+002,5.307379e+001
9.795685e+002,5.116217e+001
9.805327e+002,4.787103e+001
9.814969e+002,4.383551e+001
9.824612e+002,3.947229e+001
9.834254e+002,3.682336e+001
9.843896e+002,3.939923e+001
9.853539e+002,4.330774e+001
9.863181e+002,4.374780e+001
9.872823e+002,4.094336e+001
9.882466e+002,3.873926e+001
9.892108e+002,4.078424e+001
9.901750e+002,4.681525e+001
9.911393e+002,5.124445e+001
9.921035e+002,5.213043e+001
9.930677e+002,5.235089e+001
9.940320e+002,5.066974e+001
9.949962e+002,5.006934e+001
9.959604e+002,5.440875e+001
9.969247e+002,6.369171e+001
9.978889e+002,7.140881e+001
9.988531e+002,7.231738e+001
9.998174e+002,7.244476e+001
1.000782e+003,7.698499e+001
1.001746e+003,8.331067e+001
1.002710e+003,8.675720e+001
1.003674e+003,8.551758e+001
1.004639e+003,8.254022e+001
1.005603e+003,8.323352e+001
1.006567e+003,8.789404e+001
1.007531e+003,8.963458e+001
1.008495e+003,8.726477e+001
1.009460e+003,8.467865e+001
1.010424e+003,8.468243e+001
1.011388e+003,8.658209e+001
1.012352e+003,8.718518e+001
1.013317e+003,8.555280e+001
1.014281e+003,8.318115e+001
1.015245e+003,8.008569e+001
1.016209e+003,7.668042e+001
1.017174e+003,7.380756e+001
1.018138e+003,7.117560e+001
1.019102e+003,6.727026e+001
1.020066e+003,6.070972e+001
1.021031e+003,5.306055e+001
1.021995e+003,4.833862e+001
1.022959e+003,4.563043e+001
1.023923e+003,4.304291e+001
1.024887e+003,3.997137e+001
1.025852e+003,3.656317e+001
1.026816e+003,3.296942e+001
1.027780e+003,2.915619e+001
1.028744e+003,2.670276e+001
1.029709e+003,2.641058e+001
1.030673e+003,2.651166e+001
1.031637e+003,2.703937e+001
1.032601e+003,2.721027e+001
1.033566e+003,2.581873e+001
1.034530e+003,2.261304e+001
1.035494e+003,1.956982e+001
1.036458e+003,1.879150e+001
1.037422e+003,1.940894e+001
1.038387e+003,2.006689e+001
1.039351e+003,2.063989e+001
1.040315e+003,2.160938e+001
1.041279e+003,2.360834e+001
1.042244e+003,2.635516e+001
1.043208e+003,2.762067e+001
1.044172e+003,2.535602e+001
1.045136e+003,2.441907e+001
1.046101e+003,2.645221e+001
1.047065e+003,2.857220e+001
1.048029e+003,2.865100e+001
1.048993e+003,2.695880e+001
1.049958e+003,2.532269e+001
1.050922e+003,2.467017e+001
1.051886e+003,2.473047e+001
1.052850e+003,2.504810e+001
1.053814e+003,2.574048e+001
1.054779e+003,2.737396e+001
1.055743e+003,2.980988e+001
1.056707e+003,3.177905e+001
1.057671e+003,3.171283e+001
1.058636e+003,2.952228e+001
1.059600e+003,2.813275e+001
1.060564e+003,2.879785e+001
1.061528e+003,2.929187e+001
1.062493e+003,2.873248e+001
1.063457e+003,2.758185e+001
1.064421e+003,2.646674e+001
1.065385e+003,2.561798e+001
1.066349e+003,2.524341e+001
1.067314e+003,2.608850e+001
1.068278e+003,2.668988e+001
1.069242e+003,2.555652e+001
1.070206e+003,2.383429e+001
1.071171e+003,2.333234e+001
1.072135e+003,2.457385e+001
1.073099e+003,2.632739e+001
1.074063e+003,2.680157e+001
1.075028e+003,2.600903e+001
1.075992e+003,2.519507e+001
1.076956e+003,2.389154e+001
1.077920e+003,2.274451e+001
1.078885e+003,2.262543e+001
1.079849e+003,2.307385e+001
1.080813e+003,2.269958e+001
1.081777e+003,2.102203e+001
1.082741e+003,2.049518e+001
1.083706e+003,2.288318e+001
1.084670e+003,2.564178e+001
1.085634e+003,2.820917e+001
1.086598e+003,2.992108e+001
1.087563e+003,2.957770e+001
1.088527e+003,2.685510e+001
1.089491e+003,2.364392e+001
1.090455e+003,2.331488e+001
1.091420e+003,2.598682e+001
1.092384e+003,2.697809e+001
1.093348e+003,2.540356e+001
1.094312e+003,2.330188e+001
1.095276e+003,2.174731e+001
1.096241e+003,2.099292e+001
1.097205e+003,2.150610e+001
1.098169e+003,2.387994e+001
1.099133e+003,2.511816e+001
1.100098e+003,2.234753e+001
1.101062e+003,2.009241e+001
1.102026e+003,2.220343e+001
1.102990e+003,2.721692e+001
1.103955e+003,3.107306e+001
1.104919e+003,3.125085e+001
1.105883e+003,2.914166e+001
1.106847e+003,2.768500e+001
1.107812e+003,2.689496e+001
1.108776e+003,2.704773e+001
1.109740e+003,2.914032e+001
1.110704e+003,3.014594e+001
1.111668e+003,2.634247e+001
1.112633e+003,1.974664e+001
1.113597e+003,1.878284e+001
1.114561e+003,2.630890e+001
1.115525e+003,3.401044e+001
1.116490e+003,4.119501e+001
1.117454e+003,4.586688e+001
1.118418e+003,4.498560e+001
1.119382e+003,4.097546e+001
1.120347e+003,3.946582e+001
1.121311e+003,4.360822e+001
1.122275e+003,4.963898e+001
1.123239e+003,5.047296e+001
1.124203e+003,4.703699e+001
1.125168e+003,4.608099e+001
1.126132e+003,4.898743e+001
1.127096e+003,5.233362e+001
1.128060e+003,5.275684e+001
1.129025e+003,5.102081e+001
1.129989e+003,5.154053e+001
1.130953e+003,5.544336e+001
1.131917e+003,5.937982e+001
1.132882e+003,6.314508e+001
1.133846e+003,6.630304e+001
1.134810e+003,6.800854e+001
1.135774e+003,6.900519e+001
1.136739e+003,7.039374e+001
1.137703e+003,7.281635e+001
1.138667e+003,7.715161e+001
1.139631e+003,8.612573e+001
1.140595e+003,9.881201e+001
1.141560e+003,1.074847e+002
1.142524e+003,1.107146e+002
1.143488e+003,1.148785e+002
1.144452e+003,1.240069e+002
1.145417e+003,1.373641e+002
1.146381e+003,1.525109e+002
1.147345e+003,1.698252e+002
1.148309e+003,1.874309e+002
1.149274e+003,2.057627e+002
1.150238e+003,2.237392e+002
1.151202e+003,2.409890e+002
1.152166e+003,2.578103e+002
1.153130e+003,2.755591e+002
1.154095e+003,2.941625e+002
1.155059e+003,3.094290e+002
1.156023e+003,3.157730e+002
1.156987e+003,3.135717e+002
1.157952e+003,3.086494e+002
1.158916e+003,3.016977e+002
1.159880e+003,2.925947e+002
1.160844e+003,2.799894e+002
1.161809e+003,2.642493e+002
1.162773e+003,2.471866e+002
1.163737e+003,2.286456e+002
1.164701e+003,2.097170e+002
1.165666e+003,1.880588e+002
1.166630e+003,1.694377e+002
1.167594e+003,1.563207e+002
1.168558e+003,1.473536e+002
1.169522e+003,1.410089e+002
1.170487e+003,1.365409e+002
1.171451e+003,1.338270e+002
1.172415e+003,1.328041e+002
1.173379e+003,1.330850e+002
1.174344e+003,1.338915e+002
1.175308e+003,1.357604e+002
1.176272e+003,1.344446e+002
1.177236e+003,1.263181e+002
1.178201e+003,1.163169e+002
1.179165e+003,1.105050e+002
1.180129e+003,1.086356e+002
1.181093e+003,1.072604e+002
1.182057e+003,1.058393e+002
1.183022e+003,1.051119e+002
1.183986e+003,1.063420e+002
1.184950e+003,1.076786e+002
1.185914e+003,1.072881e+002
1.186879e+003,1.052197e+002
1.187843e+003,1.025418e+002
1.188807e+003,9.995374e+001
1.189771e+003,9.796893e+001
1.190736e+003,9.916486e+001
1.191700e+003,1.040338e+002
1.192664e+003,1.063304e+002
1.193628e+003,1.048716e+002
1.194593e+003,1.020682e+002
1.195557e+003,9.903796e+001
1.196521e+003,9.588690e+001
1.197485e+003,9.333661e+001
1.198449e+003,9.190210e+001
1.199414e+003,9.000214e+001
1.200378e+003,8.572882e+001
1.201342e+003,8.188922e+001
1.202306e+003,8.078314e+001
1.203271e+003,8.125140e+001
1.204235e+003,8.088843e+001
1.205199e+003,7.855048e+001
1.206163e+003,7.498975e+001
1.207128e+003,7.132654e+001
1.208092e+003,6.760693e+001
1.209056e+003,6.341772e+001
1.210020e+003,5.824866e+001
1.210984e+003,5.374298e+001
1.211949e+003,5.092828e+001
1.212913e+003,4.851123e+001
1.213877e+003,4.480713e+001
1.214841e+003,3.983807e+001
1.215806e+003,3.513293e+001
1.216770e+003,3.072705e+001
1.217734e+003,2.751459e+001
1.218698e+003,2.670789e+001
1.219663e+003,2.655548e+001
1.220627e+003,2.471997e+001
1.221591e+003,2.104968e+001
1.222555e+003,1.730585e+001
1.223520e+003,1.517908e+001
1.224484e+003,1.449756e+001
1.225448e+003,1.374652e+001
1.226412e+003,1.256299e+001
1.227376e+003,1.202197e+001
1.228341e+003,1.299811e+001
1.229305e+003,1.338470e+001
1.230269e+003,1.096582e+001
1.231233e+003,7.401672e+000
1.232198e+003,6.451233e+000
1.233162e+003,9.329529e+000
1.234126e+003,1.308740e+001
1.235090e+003,1.629285e+001
1.236055e+003,1.816742e+001
1.237019e+003,1.714264e+001
1.237983e+003,1.423999e+001
1.238947e+003,1.249335e+001
1.239911e+003,1.331830e+001
1.240876e+003,1.525500e+001
1.241840e+003,1.594312e+001
1.242804e+003,1.530927e+001
1.243768e+003,1.515015e+001
1.244733e+003,1.594672e+001
1.245697e+003,1.663794e+001
1.246661e+003,1.715912e+001
1.247625e+003,1.692096e+001
1.248590e+003,1.480719e+001
1.249554e+003,1.198151e+001
1.250518e+003,1.165192e+001
1.251482e+003,1.530786e+001
1.252447e+003,1.908722e+001
1.253411e+003,1.739178e+001
1.254375e+003,1.352484e+001
1.255339e+003,1.510712e+001
1.256303e+003,2.230829e+001
1.257268e+003,2.829492e+001
1.258232e+003,2.835760e+001
1.259196e+003,2.528259e+001
1.260160e+003,2.525989e+001
1.261125e+003,2.902673e+001
1.262089e+003,3.318573e+001
1.263053e+003,3.779510e+001
1.264017e+003,4.158649e+001
1.264982e+003,4.478125e+001
1.265946e+003,4.693951e+001
1.266910e+003,4.737097e+001
1.267874e+003,4.633643e+001
1.268839e+003,4.494830e+001
1.269803e+003,4.397650e+001
1.270767e+003,4.271320e+001
1.271731e+003,3.943793e+001
1.272695e+003,3.444318e+001
1.273660e+003,3.149530e+001
1.274624e+003,3.108655e+001
1.275588e+003,3.021606e+001
1.276552e+003,2.684235e+001
1.277517e+003,2.271674e+001
1.278481e+003,2.109967e+001
1.279445e+003,2.227698e+001
1.280409e+003,2.269049e+001
1.281374e+003,2.049860e+001
1.282338e+003,1.836780e+001
1.283302e+003,1.748846e+001
1.284266e+003,1.743994e+001
1.285230e+003,1.824548e+001
1.286195e+003,1.940070e+001
1.287159e+003,1.954541e+001
1.288123e+003,1.768420e+001
1.289087e+003,1.485248e+001
1.290052e+003,1.367059e+001
1.291016e+003,1.478430e+001
1.291980e+003,1.418689e+001
1.292944e+003,9.122620e+000
1.293909e+003,5.461914e+000
1.294873e+003,7.456177e+000
1.295837e+003,1.153864e+001
1.296801e+003,1.219348e+001
1.297766e+003,8.930664e+000
1.298730e+003,6.167664e+000
1.299694e+003,6.208984e+000
1.300658e+003,7.117004e+000
1.301622e+003,6.547668e+000
1.302587e+003,5.677063e+000
1.303551e+003,6.741638e+000
1.304515e+003,1.001300e+001
1.305479e+003,1.288672e+001
1.306444e+003,1.281567e+001
1.307408e+003,1.093915e+001
1.308372e+003,1.200836e+001
1.309336e+003,1.787433e+001
1.310301e+003,2.082538e+001
1.311265e+003,1.893018e+001
1.312229e+003,1.644458e+001
1.313193e+003,1.346271e+001
1.314157e+003,1.108307e+001
1.315122e+003,1.084979e+001
1.316086e+003,1.234045e+001
1.317050e+003,1.328558e+001
1.318014e+003,1.228760e+001
1.318979e+003,1.066962e+001
1.319943e+003,1.090796e+001
1.320907e+003,1.274707e+001
1.321871e+003,1.239581e+001
1.322836e+003,8.413879e+000
1.323800e+003,5.335693e+000
1.324764e+003,6.134155e+000
1.325728e+003,9.158447e+000
1.326693e+003,1.185516e+001
1.327657e+003,1.398499e+001
1.328621e+003,1.465771e+001
1.329585e+003,1.333386e+001
1.330549e+003,1.284772e+001
1.331514e+003,1.436810e+001
1.332478e+003,1.614832e+001
1.333442e+003,1.706671e+001
1.334406e+003,1.704089e+001
1.335371e+003,1.599188e+001
1.336335e+003,1.393634e+001
1.337299e+003,1.186633e+001
1.338263e+003,1.164417e+001
1.339228e+003,1.357300e+001
1.340192e+003,1.462262e+001
1.341156e+003,1.417944e+001
1.342120e+003,1.380286e+001
1.343084e+003,1.320459e+001
1.344049e+003,1.262524e+001
1.345013e+003,1.246283e+001
1.345977e+003,1.293225e+001
1.346941e+003,1.450189e+001
1.347906e+003,1.744177e+001
1.348870e+003,1.942944e+001
1.349834e+003,1.744098e+001
1.350798e+003,1.347412e+001
1.351763e+003,1.215936e+001
1.352727e+003,1.305219e+001
1.353691e+003,1.266345e+001
1.354655e+003,9.378174e+000
1.355620e+003,5.795837e+000
1.356584e+003,5.489258e+000
1.357548e+003,8.079163e+000
1.358512e+003,8.977966e+000
1.359476e+003,6.676575e+000
1.360441e+003,5.147278e+000
1.361405e+003,5.985229e+000
1.362369e+003,7.495422e+000
1.363333e+003,9.569031e+000
1.364298e+003,1.149359e+001
1.365262e+003,1.238068e+001
1.366226e+003,1.208978e+001
1.367190e+003,1.107959e+001
1.368155e+003,9.723022e+000
1.369119e+003,8.440979e+000
1.370083e+003,8.745728e+000
1.371047e+003,1.147284e+001
1.372011e+003,1.291467e+001
1.372976e+003,1.199609e+001
1.373940e+003,1.058643e+001
1.374904e+003,8.978882e+000
1.375868e+003,7.782959e+000
1.376833e+003,7.598938e+000
1.377797e+003,8.396362e+000
1.378761e+003,1.021271e+001
1.379725e+003,1.363177e+001
1.380690e+003,1.654517e+001
1.381654e+003,1.583850e+001
1.382618e+003,1.385822e+001
1.383582e+003,1.387061e+001
1.384547e+003,1.585919e+001
1.385511e+003,1.810626e+001
1.386475e+003,1.983429e+001
1.387439e+003,2.059070e+001
1.388403e+003,1.933563e+001
1.389368e+003,1.604486e+001
1.390332e+003,1.363055e+001
1.391296e+003,1.203766e+001
1.392260e+003,1.213794e+001
1.393225e+003,1.612402e+001
1.394189e+003,1.937207e+001
1.395153e+003,1.806818e+001
1.396117e+003,1.481085e+001
1.397082e+003,1.434149e+001
1.398046e+003,1.752924e+001
1.399010e+003,2.070276e+001
1.399974e+003,2.029059e+001
1.400938e+003,1.693475e+001
1.401903e+003,1.347675e+001
1.402867e+003,1.015350e+001
1.403831e+003,1.039410e+001
1.404795e+003,1.728406e+001
1.405760e+003,2.261078e+001
1.406724e+003,2.193994e+001
1.407688e+003,1.827863e+001
1.408652e+003,1.518665e+001
1.409617e+003,1.348694e+001
1.410581e+003,1.334204e+001
1.411545e+003,1.507019e+001
1.412509e+003,1.692432e+001
1.413474e+003,1.672217e+001
1.414438e+003,1.531372e+001
1.415402e+003,1.454083e+001
1.416366e+003,1.474658e+001
1.417330e+003,1.616620e+001
1.418295e+003,1.922803e+001
1.419259e+003,2.229535e+001
1.420223e+003,2.315149e+001
1.421187e+003,2.191528e+001
1.422152e+003,2.051727e+001
1.423116e+003,1.915118e+001
1.424080e+003,1.837115e+001
1.425044e+003,1.785852e+001
1.426009e+003,1.786041e+001
1.426973e+003,1.898077e+001
1.427937e+003,2.035779e+001
1.428901e+003,2.114581e+001
1.429865e+003,2.136060e+001
1.430830e+003,2.133636e+001
1.431794e+003,2.116290e+001
1.432758e+003,2.088062e+001
1.433722e+003,2.092548e+001
1.434687e+003,2.169537e+001
1.435651e+003,2.402997e+001
1.436615e+003,2.911749e+001
1.437579e+003,3.173346e+001
1.438544e+003,3.026440e+001
1.439508e+003,2.767041e+001
1.440472e+003,2.455469e+001
1.441436e+003,2.267139e+001
1.442401e+003,2.610754e+001
1.443365e+003,3.489484e+001
1.444329e+003,4.112964e+001
1.445293e+003,3.861053e+001
1.446257e+003,3.168146e+001
1.447222e+003,2.783722e+001
1.448186e+003,2.658978e+001
1.449150e+003,2.604230e+001
1.450114e+003,2.615295e+001
1.451079e+003,2.604517e+001
1.452043e+003,2.535577e+001
1.453007e+003,2.458997e+001
1.453971e+003,2.417737e+001
1.454936e+003,2.396765e+001
1.455900e+003,2.381335e+001
1.456864e+003,2.386273e+001
1.457828e+003,2.397772e+001
1.458792e+003,2.391168e+001
1.459757e+003,2.358966e+001
1.460721e+003,2.287555e+001
1.461685e+003,2.189661e+001
1.462649e+003,2.105273e+001
1.463614e+003,2.054700e+001
1.464578e+003,1.998132e+001
1.465542e+003,1.874860e+001
1.466506e+003,1.723718e+001
1.467471e+003,1.717731e+001
1.468435e+003,1.936682e+001
1.469399e+003,2.086713e+001
1.470363e+003,1.912939e+001
1.471328e+003,1.941284e+001
1.472292e+003,2.496118e+001
1.473256e+003,3.021008e+001
1.474220e+003,3.115771e+001
1.475184e+003,2.943140e+001
1.476149e+003,2.815912e+001
1.477113e+003,2.835632e+001
1.478077e+003,2.948981e+001
1.479041e+003,3.138379e+001
1.480006e+003,3.365210e+001
1.480970e+003,3.418658e+001
1.481934e+003,3.199487e+001
1.482898e+003,3.072589e+001
1.483863e+003,3.002435e+001
1.484827e+003,3.046790e+001
1.485791e+003,3.322284e+001
1.486755e+003,3.687555e+001
1.487719e+003,4.017963e+001
1.488684e+003,4.288141e+001
1.489648e+003,4.520514e+001
1.490612e+003,4.737811e+001
1.491576e+003,4.901001e+001
1.492541e+003,4.917157e+001
1.493505e+003,4.919788e+001
1.494469e+003,5.284290e+001
1.495433e+003,5.904681e+001
1.496398e+003,6.345068e+001
1.497362e+003,6.554578e+001
1.498326e+003,6.769958e+001
1.499290e+003,7.106146e+001
1.500255e+003,7.509015e+001
1.501219e+003,7.798651e+001
1.502183e+003,8.040125e+001
1.503147e+003,8.707135e+001
1.504111e+003,9.967548e+001
1.505076e+003,1.132369e+002
1.506040e+003,1.253594e+002
1.507004e+003,1.368198e+002
1.507968e+003,1.469730e+002
1.508933e+003,1.575397e+002
1.509897e+003,1.726384e+002
1.510861e+003,1.933406e+002
1.511825e+003,2.157391e+002
1.512790e+003,2.363925e+002
1.513754e+003,2.572422e+002
1.514718e+003,2.833525e+002
1.515682e+003,3.143301e+002
1.516646e+003,3.433996e+002
1.517611e+003,3.710001e+002
1.518575e+003,3.953737e+002
1.519539e+003,4.179451e+002
1.520503e+003,4.358141e+002
1.521468e+003,4.466448e+002
1.522432e+003,4.517797e+002
1.523396e+003,4.531673e+002
1.524360e+003,4.510822e+002
1.525325e+003,4.444185e+002
1.526289e+003,4.325645e+002
1.527253e+003,4.174347e+002
1.528217e+003,4.024092e+002
1.529182e+003,3.878311e+002
1.530146e+003,3.692650e+002
1.531110e+003,3.464847e+002
1.532074e+003,3.191094e+002
1.533039e+003,2.836456e+002
1.534003e+003,2.467867e+002
1.534967e+003,2.096575e+002
1.535931e+003,1.753597e+002
1.536896e+003,1.469207e+002
1.537860e+003,1.243607e+002
1.538824e+003,1.055240e+002
1.539788e+003,8.915558e+001
1.540752e+003,7.642426e+001
1.541717e+003,6.936163e+001
1.542681e+003,6.718451e+001
1.543645e+003,6.357745e+001
1.544609e+003,5.787952e+001
1.545573e+003,5.341296e+001
1.546538e+003,5.017072e+001
1.547502e+003,4.712152e+001
1.548466e+003,4.486786e+001
1.549430e+003,4.272595e+001
1.550395e+003,3.874493e+001
1.551359e+003,3.391870e+001
1.552323e+003,3.197925e+001
1.553287e+003,3.410114e+001
1.554252e+003,3.699347e+001
1.555216e+003,3.790851e+001
1.556180e+003,3.711768e+001
1.557144e+003,3.493134e+001
1.558109e+003,3.143091e+001
1.559073e+003,2.895972e+001
1.560037e+003,2.749695e+001
1.561001e+003,2.610394e+001
1.561966e+003,2.389917e+001
1.562930e+003,2.309143e+001
1.563894e+003,2.700427e+001
1.564858e+003,3.320197e+001
1.565823e+003,3.571021e+001
1.566787e+003,3.346393e+001
1.567751e+003,3.019269e+001
1.568715e+003,2.774945e+001
1.569679e+003,2.625452e+001
1.570644e+003,2.584265e+001
1.571608e+003,2.615790e+001
1.572572e+003,2.708289e+001
1.573536e+003,2.887225e+001
1.574500e+003,2.963251e+001
1.575465e+003,2.773419e+001
1.576429e+003,2.594659e+001
1.577393e+003,2.763586e+001
1.578357e+003,3.029102e+001
1.579322e+003,2.803589e+001
1.580286e+003,2.118073e+001
1.581250e+003,1.757715e+001
1.582214e+003,2.012994e+001
1.583179e+003,2.439496e+001
1.584143e+003,2.805139e+001
1.585107e+003,3.044940e+001
1.586071e+003,3.107800e+001
1.587036e+003,3.060706e+001
1.588000e+003,2.975122e+001
1.588964e+003,2.836145e+001
1.589928e+003,2.728680e+001
1.590893e+003,2.745032e+001
1.591857e+003,2.802728e+001
1.592821e+003,2.716083e+001
1.593785e+003,2.547906e+001
1.594750e+003,2.673108e+001
1.595714e+003,3.175171e+001
1.596678e+003,3.624957e+001
1.597642e+003,3.891846e+001
1.598606e+003,3.999908e+001
1.599571e+003,3.863171e+001
1.600535e+003,3.676025e+001
1.601499e+003,3.719318e+001
1.602463e+003,3.955231e+001
1.603427e+003,4.123492e+001
1.604392e+003,4.120074e+001
1.605356e+003,4.037292e+001
1.606320e+003,3.973596e+001
1.607284e+003,3.905310e+001
1.608249e+003,3.751166e+001
1.609213e+003,3.509692e+001
1.610177e+003,3.217700e+001
1.611141e+003,2.792291e+001
1.612106e+003,2.542096e+001
1.613070e+003,2.800922e+001
1.614034e+003,3.117188e+001
1.614998e+003,3.199615e+001
1.615963e+003,3.102222e+001
1.616927e+003,2.865765e+001
1.617891e+003,2.533173e+001
1.618855e+003,2.304303e+001
1.619820e+003,2.300415e+001
1.620784e+003,2.340527e+001
1.621748e+003,2.158105e+001
1.622712e+003,1.865686e+001
1.623677e+003,1.957996e+001
1.624641e+003,2.538495e+001
1.625605e+003,2.931586e+001
1.626569e+003,2.848291e+001
1.627533e+003,2.630334e+001
1.628498e+003,2.410760e+001
1.629462e+003,2.239594e+001
1.630426e+003,2.184210e+001
1.631390e+003,2.187402e+001
1.632354e+003,2.100671e+001
1.633319e+003,1.903839e+001
1.634283e+003,1.790405e+001
1.635247e+003,1.910388e+001
1.636211e+003,2.152338e+001
1.637176e+003,2.383545e+001
1.638140e+003,2.606665e+001
1.639104e+003,2.614850e+001
1.640068e+003,2.314606e+001
1.641033e+003,2.072974e+001
1.641997e+003,1.978143e+001
1.642961e+003,1.998804e+001
1.643925e+003,2.205994e+001
1.644890e+003,2.432471e+001
1.645854e+003,2.454089e+001
1.646818e+003,2.351160e+001
1.647782e+003,2.410638e+001
1.648747e+003,2.701373e+001
1.649711e+003,2.926306e+001
1.650675e+003,2.839105e+001
1.651639e+003,2.600610e+001
1.652604e+003,2.487012e+001
1.653568e+003,2.477850e+001
1.654532e+003,2.530817e+001
1.655496e+003,2.691925e+001
1.656460e+003,2.742926e+001
1.657425e+003,2.561053e+001
1.658389e+003,2.362067e+001
1.659353e+003,2.232367e+001
1.660317e+003,2.162750e+001
1.661281e+003,2.163422e+001
1.662246e+003,2.201105e+001
1.663210e+003,2.226392e+001
1.664174e+003,2.231433e+001
1.665138e+003,2.181500e+001
1.666103e+003,2.009399e+001
1.667067e+003,1.781848e+001
1.668031e+003,1.642188e+001
1.668995e+003,1.597858e+001
1.669960e+003,1.686945e+001
1.670924e+003,2.004926e+001
1.671888e+003,2.077448e+001
1.672852e+003,1.473157e+001
1.673817e+003,9.685730e+000
1.674781e+003,1.177545e+001
1.675745e+003,1.637616e+001
1.676709e+003,1.891669e+001
1.677674e+003,1.934399e+001
1.678638e+003,1.887695e+001
1.679602e+003,1.790845e+001
1.680566e+003,1.674725e+001
1.681531e+003,1.571973e+001
1.682495e+003,1.494659e+001
1.683459e+003,1.432220e+001
1.684423e+003,1.365936e+001
1.685387e+003,1.291443e+001
1.686352e+003,1.216351e+001
1.687316e+003,1.155103e+001
1.688280e+003,1.098218e+001
1.689244e+003,1.079651e+001
1.690208e+003,1.123285e+001
1.691173e+003,1.203925e+001
1.692137e+003,1.380902e+001
1.693101e+003,1.605609e+001
1.694065e+003,1.624945e+001
1.695030e+003,1.340936e+001
1.695994e+003,1.048657e+001
1.696958e+003,9.299133e+000
1.697922e+003,9.309875e+000
1.698887e+003,1.039893e+001
1.699851e+003,1.211987e+001
1.700815e+003,1.273853e+001
1.701779e+003,1.197534e+001
1.702744e+003,1.093719e+001
1.703708e+003,1.027759e+001
1.704672e+003,9.643127e+000
1.705636e+003,8.238342e+000
1.706601e+003,6.380066e+000
1.707565e+003,4.879395e+000
1.708529e+003,3.983765e+000
1.709493e+003,4.028442e+000
1.710458e+003,5.146057e+000
1.711422e+003,5.800537e+000
1.712386e+003,4.895203e+000
1.713350e+003,4.366760e+000
1.714314e+003,6.114929e+000
1.715279e+003,8.483826e+000
1.716243e+003,8.634338e+000
1.717207e+003,6.955505e+000
1.718171e+003,6.486267e+000
1.719135e+003,8.132813e+000
1.720100e+003,9.067139e+000
1.721064e+003,7.142578e+000
1.722028e+003,3.838806e+000
1.722992e+003,1.224304e+000
1.723957e+003,-3.270874e-001
1.724921e+003,-2.697754e-001
1.725885e+003,1.338318e+000
1.726849e+003,1.416748e+000
1.727814e+003,-1.688293e+000
1.728778e+003,-3.653259e+000
1.729742e+003,-2.134460e+000
1.730706e+003,6.811523e-001
1.731671e+003,2.610046e+000
1.732635e+003,3.568115e+000
1.733599e+003,4.924561e+000
1.734563e+003,6.860962e+000
1.735528e+003,7.104370e+000
1.736492e+003,4.330933e+000
1.737456e+003,1.114685e+000
1.738420e+003,5.352783e-001
1.739385e+003,1.704346e+000
1.740349e+003,2.381287e+000
1.741313e+003,2.999512e+000
1.742277e+003,2.070923e+000
1.743241e+003,-2.254333e+000
1.744206e+003,-4.626099e+000
1.745170e+003,-2.941345e+000
1.746134e+003,-1.140930e+000
1.747098e+003,-1.259827e+000
1.748063e+003,-2.584717e+000
1.749027e+003,-4.650818e+000
1.749991e+003,-6.801697e+000
1.750955e+003,-8.136292e+000
1.751919e+003,-8.387268e+000
1.752884e+003,-7.710815e+000
1.753848e+003,-6.205688e+000
1.754812e+003,-4.699341e+000
1.755776e+003,-4.764709e+000
1.756741e+003,-6.066833e+000
1.757705e+003,-6.506958e+000
1.758669e+003,-6.172119e+000
1.759633e+003,-5.429871e+000
1.760598e+003,-3.513062e+000
1.761562e+003,-2.862976e+000
1.762526e+003,-5.212463e+000
1.763490e+003,-7.430603e+000
1.764455e+003,-7.267334e+000
1.765419e+003,-5.432251e+000
1.766383e+003,-3.206543e+000
1.767347e+003,-1.066956e+000
1.768312e+003,1.259460e+000
1.769276e+003,3.862000e+000
1.770240e+003,4.717590e+000
1.771204e+003,1.183044e+000
1.772168e+003,-4.114502e+000
1.773133e+003,-5.352783e+000
1.774097e+003,-3.034729e+000
1.775061e+003,-2.229675e+000
1.776025e+003,-3.940796e+000
1.776990e+003,-5.828003e+000
1.777954e+003,-7.364197e+000
1.778918e+003,-7.261108e+000
1.779882e+003,-3.279968e+000
1.780846e+003,1.239746e+000
1.781811e+003,1.851196e+000
1.782775e+003,-3.910522e-001
1.783739e+003,-2.654907e+000
1.784703e+003,-4.616638e+000
1.785668e+003,-4.511658e+000
1.786632e+003,1.696777e-001
1.787596e+003,3.979004e+000
1.788560e+003,2.170410e+000
1.789525e+003,-1.543762e+000
1.790489e+003,-2.223267e+000
1.791453e+003,-7.073364e-001
1.792417e+003,-1.476440e-001
1.793382e+003,-1.200317e+000
1.794346e+003,-3.122925e+000
1.795310e+003,-5.693237e+000
1.796274e+003,-7.484253e+000
1.797239e+003,-6.463196e+000
1.798203e+003,-3.293945e+000
1.799167e+003,-1.320435e+000
1.800131e+003,-1.444092e+000
1.801095e+003,-1.086792e+000
1.802060e+003,1.244324e+000
1.803024e+003,2.841187e+000
1.803988e+003,2.886292e+000
1.804952e+003,2.390869e+000
1.805917e+003,1.554565e+000
1.806881e+003,6.228638e-001
1.807845e+003,-3.037109e-001
1.808809e+003,-9.084473e-001
1.809773e+003,-4.865112e-001
1.810738e+003,8.031616e-001
1.811702e+003,1.521790e+000
1.812666e+003,7.606201e-001
1.813630e+003,-4.617920e-001
1.814595e+003,-7.750244e-001
1.815559e+003,-4.826050e-001
1.816523e+003,-2.803955e-001
1.817487e+003,-7.568359e-003
1.818452e+003,-1.043030e+000
1.819416e+003,-4.190979e+000
1.820380e+003,-5.487976e+000
1.821344e+003,-2.182068e+000
1.822309e+003,1.780396e-001
1.823273e+003,-2.869446e+000
1.824237e+003,-7.006348e+000
1.825201e+003,-8.121277e+000
1.826166e+003,-6.896790e+000
1.827130e+003,-5.240173e+000
1.828094e+003,-3.647888e+000
1.829058e+003,-2.752869e+000
1.830022e+003,-3.120361e+000
1.830987e+003,-3.199341e+000
1.831951e+003,-7.556152e-001
1.832915e+003,2.076599e+000
1.833879e+003,1.631653e+000
1.834844e+003,-1.098511e+000
1.835808e+003,-2.698792e+000
1.836772e+003,-2.647644e+000
1.837736e+003,-2.462585e+000
1.838700e+003,-2.941162e+000
1.839665e+003,-3.660767e+000
1.840629e+003,-4.168945e+000
1.841593e+003,-4.211304e+000
1.842557e+003,-3.148315e+000
1.843522e+003,-1.046814e+000
1.844486e+003,-1.930847e+000
1.845450e+003,-9.080139e+000
1.846414e+003,-1.202344e+001
1.847379e+003,-7.347534e+000
1.848343e+003,-4.210327e+000
1.849307e+003,-6.840698e+000
1.850271e+003,-9.918518e+000
1.851236e+003,-9.260620e+000
1.852200e+003,-6.489502e+000
1.853164e+003,-4.294678e+000
1.854128e+003,-3.283813e+000
1.855093e+003,-2.380615e+000
1.856057e+003,-1.100159e+000
1.857021e+003,-1.420654e+000
1.857985e+003,-5.546265e+000
1.858949e+003,-1.055994e+001
1.859914e+003,-1.094031e+001
1.860878e+003,-7.446045e+000
1.861842e+003,-4.667114e+000
1.862806e+003,-2.741211e+000
1.863771e+003,-1.527954e+000
1.864735e+003,-9.810791e-001
1.865699e+003,-2.191772e+000
1.866663e+003,-6.805298e+000
1.867627e+003,-1.048114e+001
1.868592e+003,-8.583008e+000
1.869556e+003,-4.308228e+000
1.870520e+003,-3.354309e+000
1.871484e+003,-5.239868e+000
1.872449e+003,-6.643311e+000
1.873413e+003,-6.590759e+000
1.874377e+003,-5.107178e+000
1.875341e+003,-1.967834e+000
1.876306e+003,7.860718e-001
1.877270e+003,1.757813e+000
1.878234e+003,1.911011e+000
1.879198e+003,2.702576e+000
1.880163e+003,3.421448e+000
1.881127e+003,2.317566e+000
1.882091e+003,-3.661499e-001
1.883055e+003,-3.083374e+000
1.884020e+003,-5.057373e+000
1.884984e+003,-5.605774e+000
1.885948e+003,-4.018921e+000
1.886912e+003,-1.635254e+000
1.887876e+003,-1.186279e+000
1.888841e+003,-2.450195e+000
1.889805e+003,-3.222168e+000
1.890769e+003,-3.548462e+000
1.891733e+003,-2.981079e+000
1.892698e+003,-9.935913e-001
1.893662e+003,6.335449e-002
1.894626e+003,-1.306702e+000
1.895590e+003,-2.688293e+000
1.896554e+003,-1.925171e+000
1.897519e+003,-2.988892e-001
1.898483e+003,6.937866e-001
1.899447e+003,7.127075e-001
1.900411e+003,-4.729614e-001
1.901376e+003,-2.888977e+000
1.902340e+003,-4.686584e+000
1.903304e+003,-4.873901e+000
1.904268e+003,-4.881836e+000
1.905233e+003,-6.064880e+000
1.906197e+003,-6.804016e+000
1.907161e+003,-4.780884e+000
1.908125e+003,-1.284973e+000
1.909090e+003,1.478943e+000
1.910054e+003,2.795532e+000
1.911018e+003,1.973328e+000
1.911982e+003,-7.371216e-001
1.912947e+003,-2.999512e+000
1.913911e+003,-3.193420e+000
1.914875e+003,-2.666809e+000
1.915839e+003,-3.851379e+000
1.916803e+003,-6.091431e+000
1.917768e+003,-4.301819e+000
1.918732e+003,2.721375e+000
1.919696e+003,7.408081e+000
1.920660e+003,9.764954e+000
1.921625e+003,9.850403e+000
1.922589e+003,6.068542e+000
1.923553e+003,2.179932e+000
1.924517e+003,-3.826904e-001
1.925481e+003,-1.599609e+000
1.926446e+003,-5.888672e-001
1.927410e+003,1.479736e+000
1.928374e+003,2.015442e+000
1.929338e+003,8.200073e-001
1.930303e+003,3.531494e-001
1.931267e+003,2.126953e+000
1.932231e+003,3.304077e+000
1.933195e+003,1.864136e+000
1.934160e+003,-4.043579e-001
1.935124e+003,-3.455811e+000
1.936088e+003,-5.766541e+000
1.937052e+003,-4.198120e+000
1.938017e+003,-4.094238e-001
1.938981e+003,1.504639e+000
1.939945e+003,9.210815e-001
1.940909e+003,-5.915527e-001
1.941874e+003,-2.218872e+000
1.942838e+003,-3.404907e+000
1.943802e+003,-3.388916e+000
1.944766e+003,-2.114136e+000
1.945730e+003,1.676025e-001
1.946695e+003,3.038208e+000
1.947659e+003,4.864746e+000
1.948623e+003,5.592590e+000
1.949587e+003,4.775940e+000
1.950552e+003,1.966797e+000
1.951516e+003,-8.856201e-002
1.952480e+003,-5.757446e-001
1.953444e+003,1.301270e-001
1.954408e+003,2.787048e+000
1.955373e+003,5.112793e+000
1.956337e+003,3.488647e+000
1.957301e+003,-5.196533e-001
1.958265e+003,-2.657776e+000
1.959230e+003,-2.731812e+000
1.960194e+003,-1.344238e+000
1.961158e+003,3.121399e+000
1.962122e+003,5.410583e+000
1.963087e+003,2.922668e+000
1.964051e+003,-3.988647e-001
1.965015e+003,-2.974792e+000
1.965979e+003,-4.126343e+000
1.966944e+003,-2.757141e+000
1.967908e+003,-4.182129e-001
1.968872e+003,2.736816e-001
1.969836e+003,-6.633301e-001
1.970801e+003,-1.181702e+000
1.971765e+003,-3.854370e-001
1.972729e+003,7.100830e-001
1.973693e+003,1.088135e+000
1.974657e+003,1.659668e+000
1.975622e+003,4.617432e+000
1.976586e+003,8.344971e+000
1.977550e+003,8.453247e+000
1.978514e+003,5.534180e+000
1.979479e+003,2.302856e+000
1.980443e+003,-7.293701e-001
1.981407e+003,-1.572876e+000
1.982371e+003,7.042847e-001
1.983335e+003,4.392456e+000
1.984300e+003,8.466919e+000
1.985264e+003,1.076965e+001
1.986228e+003,7.684204e+000
1.987192e+003,5.960083e-001
1.988157e+003,-3.223145e+000
1.989121e+003,-3.211609e+000
1.990085e+003,-2.029358e+000
1.991049e+003,1.510742e+000
1.992014e+003,4.199158e+000
1.992978e+003,6.350891e+000
1.993942e+003,6.259338e+000
1.994906e+003,4.945679e-001
1.995871e+003,-4.750183e+000
1.996835e+003,-3.748901e+000
1.997799e+003,1.477661e-001
1.998763e+003,1.281433e+000
1.999728e+003,7.189941e-002
