5.003444e+002,4.833406e+001
5.013087e+002,4.732924e+001
5.022729e+002,4.664886e+001
5.032371e+002,4.608922e+001
5.042014e+002,4.426424e+001
5.051656e+002,4.146709e+001
5.061298e+002,3.927173e+001
5.070941e+002,3.921660e+001
5.080583e+002,4.189340e+001
5.090225e+002,4.298755e+001
5.099868e+002,4.199236e+001
5.109510e+002,4.052443e+001
5.119152e+002,3.927103e+001
5.128795e+002,3.827625e+001
5.138437e+002,3.750279e+001
5.148079e+002,3.664879e+001
5.157722e+002,3.630217e+001
5.167364e+002,3.727104e+001
5.177006e+002,3.923676e+001
5.186649e+002,4.067952e+001
5.196291e+002,3.905388e+001
5.205933e+002,3.650958e+001
5.215576e+002,3.545073e+001
5.225218e+002,3.597415e+001
5.234860e+002,3.709274e+001
5.244503e+002,3.714377e+001
5.254145e+002,3.587733e+001
5.263787e+002,3.461476e+001
5.273430e+002,3.331789e+001
5.283072e+002,3.204529e+001
5.292714e+002,3.067972e+001
5.302357e+002,2.842168e+001
5.311999e+002,2.776111e+001
5.321641e+002,3.050711e+001
5.331284e+002,3.373634e+001
5.340926e+002,3.500964e+001
5.350568e+002,3.329311e+001
5.360211e+002,3.079164e+001
5.369853e+002,2.940532e+001
5.379495e+002,2.857069e+001
5.389138e+002,2.778284e+001
5.398780e+002,2.685251e+001
5.408422e+002,2.604019e+001
5.418065e+002,2.637007e+001
5.427707e+002,2.763852e+001
5.437349e+002,2.837750e+001
5.446992e+002,2.809653e+001
5.456634e+002,2.706549e+001
5.466276e+002,2.627454e+001
5.475919e+002,2.617880e+001
5.485561e+002,2.583437e+001
5.495203e+002,2.468866e+001
5.504846e+002,2.336813e+001
5.514488e+002,2.295970e+001
5.524130e+002,2.444646e+001
5.533773e+002,2.563914e+001
5.543415e+002,2.507811e+001
5.553057e+002,2.387877e+001
5.562700e+002,2.331038e+001
5.572342e+002,2.412408e+001
5.581984e+002,2.537038e+001
5.591627e+002,2.467970e+001
5.601269e+002,2.276662e+001
5.610911e+002,2.069237e+001
5.620554e+002,1.892465e+001
5.630196e+002,1.748067e+001
5.639838e+002,1.689665e+001
5.649481e+002,1.808745e+001
5.659123e+002,1.881505e+001
5.668765e+002,1.856023e+001
5.678408e+002,1.769646e+001
5.688050e+002,1.714053e+001
5.697692e+002,1.714241e+001
5.707335e+002,1.716937e+001
5.716977e+002,1.734758e+001
5.726619e+002,1.743309e+001
5.736262e+002,1.695178e+001
5.745904e+002,1.543169e+001
5.755546e+002,1.397839e+001
5.765189e+002,1.464066e+001
5.774831e+002,1.637601e+001
5.784473e+002,1.742535e+001
5.794116e+002,1.663490e+001
5.803758e+002,1.425652e+001
5.813400e+002,1.270222e+001
5.823043e+002,1.165462e+001
5.832685e+002,1.144197e+001
5.842327e+002,1.291536e+001
5.851970e+002,1.575436e+001
5.861612e+002,1.748242e+001
5.871254e+002,1.692177e+001
5.880897e+002,1.587463e+001
5.890539e+002,1.396519e+001
5.900181e+002,1.187814e+001
5.909824e+002,1.079832e+001
5.919466e+002,1.193765e+001
5.929108e+002,1.333977e+001
5.938751e+002,1.258939e+001
5.948393e+002,1.071385e+001
5.958035e+002,9.275391e+000
5.967678e+002,9.424713e+000
5.977320e+002,1.096628e+001
5.986962e+002,1.247487e+001
5.996605e+002,1.403625e+001
6.006247e+002,1.463934e+001
6.015889e+002,1.331604e+001
6.025532e+002,1.025992e+001
6.035174e+002,8.186325e+000
6.044816e+002,7.394852e+000
6.054459e+002,7.497726e+000
6.064101e+002,9.259247e+000
6.073743e+002,1.176004e+001
6.083386e+002,1.351794e+001
6.093028e+002,1.383592e+001
6.102670e+002,1.299158e+001
6.112313e+002,1.040048e+001
6.121955e+002,7.372009e+000
6.131597e+002,5.823380e+000
6.141240e+002,7.022217e+000
6.150882e+002,1.002708e+001
6.160524e+002,1.065501e+001
6.170167e+002,9.379761e+000
6.179809e+002,8.244370e+000
6.189451e+002,8.282455e+000
6.199094e+002,9.210526e+000
6.208736e+002,9.144760e+000
6.218378e+002,6.340805e+000
6.228021e+002,4.736038e+000
6.237663e+002,5.365005e+000
6.247305e+002,7.250961e+000
6.256948e+002,8.755600e+000
6.266590e+002,9.052475e+000
6.276232e+002,9.166885e+000
6.285875e+002,1.025511e+001
6.295517e+002,1.143634e+001
6.305159e+002,1.148106e+001
6.314802e+002,9.782303e+000
6.324444e+002,7.306259e+000
6.334086e+002,7.281357e+000
6.343729e+002,8.928604e+000
6.353371e+002,1.004964e+001
6.363013e+002,9.835632e+000
6.372656e+002,8.544266e+000
6.382298e+002,7.135559e+000
6.391940e+002,4.823196e+000
6.401583e+002,3.503052e+000
6.411225e+002,3.945938e+000
6.420867e+002,5.161163e+000
6.430510e+002,5.875778e+000
6.440152e+002,5.520370e+000
6.449794e+002,5.225327e+000
6.459437e+002,5.955383e+000
6.469079e+002,6.739777e+000
6.478721e+002,6.684692e+000
6.488364e+002,5.587463e+000
6.498006e+002,4.223145e+000
6.507648e+002,4.007355e+000
6.517291e+002,4.530228e+000
6.526933e+002,4.905365e+000
6.536575e+002,4.963150e+000
6.546218e+002,4.809906e+000
6.555860e+002,4.642334e+000
6.565502e+002,4.373688e+000
6.575145e+002,4.286911e+000
6.584787e+002,4.230148e+000
6.594429e+002,4.449387e+000
6.604072e+002,5.557602e+000
6.613714e+002,7.844070e+000
6.623356e+002,8.941849e+000
6.632999e+002,6.295578e+000
6.642641e+002,3.320740e+000
6.652283e+002,1.644974e+000
6.661926e+002,1.540131e+000
6.671568e+002,2.433594e+000
6.681210e+002,3.956833e+000
6.690853e+002,5.628952e+000
6.700495e+002,6.340744e+000
6.710137e+002,6.112061e+000
6.719780e+002,5.469223e+000
6.729422e+002,4.922882e+000
6.739064e+002,4.430862e+000
6.748707e+002,4.175125e+000
6.758349e+002,4.274521e+000
6.767991e+002,4.365341e+000
6.777634e+002,4.353622e+000
6.787276e+002,4.299484e+000
6.796918e+002,4.326065e+000
6.806561e+002,4.568130e+000
6.816203e+002,4.625092e+000
6.825845e+002,4.326004e+000
6.835488e+002,3.749588e+000
6.845130e+002,2.959763e+000
6.854772e+002,1.965332e+000
6.864415e+002,1.116852e+000
6.874057e+002,1.098480e+000
6.883699e+002,1.613266e+000
6.893342e+002,2.135284e+000
6.902984e+002,2.370743e+000
6.912626e+002,2.459198e+000
6.922269e+002,3.215866e+000
6.931911e+002,6.342819e+000
6.941553e+002,7.987030e+000
6.951196e+002,6.265594e+000
6.960838e+002,3.279007e+000
6.970480e+002,2.847198e+000
6.980123e+002,7.312897e+000
6.989765e+002,1.038120e+001
6.999407e+002,8.712006e+000
7.009050e+002,5.467224e+000
7.018692e+002,2.764053e+000
7.028334e+002,1.488083e+000
7.037977e+002,1.336304e+000
7.047619e+002,2.582108e+000
7.057261e+002,4.471924e+000
7.066904e+002,5.053833e+000
7.076546e+002,4.012299e+000
7.086188e+002,2.623688e+000
7.095831e+002,2.995331e+000
7.105473e+002,6.055176e+000
7.115115e+002,7.794189e+000
7.124758e+002,8.235840e+000
7.134400e+002,7.640106e+000
7.144042e+002,5.424255e+000
7.153685e+002,1.752518e+000
7.163327e+002,-5.075226e-001
7.172969e+002,1.887421e+000
7.182612e+002,4.270248e+000
7.192254e+002,4.578384e+000
7.201896e+002,3.306198e+000
7.211539e+002,1.833542e+000
7.221181e+002,1.262177e+000
7.230823e+002,1.442093e+000
7.240466e+002,2.053162e+000
7.250108e+002,3.021698e+000
7.259750e+002,3.713715e+000
7.269393e+002,3.617279e+000
7.279035e+002,2.809189e+000
7.288677e+002,2.598907e+000
7.298320e+002,3.988083e+000
7.307962e+002,5.063370e+000
7.317604e+002,5.608521e+000
7.327247e+002,5.832504e+000
7.336889e+002,5.909561e+000
7.346531e+002,5.691406e+000
7.356174e+002,5.474319e+000
7.365816e+002,5.902664e+000
7.375458e+002,6.340240e+000
7.385101e+002,6.119202e+000
7.394743e+002,5.177307e+000
7.404385e+002,4.142761e+000
7.414028e+002,4.011810e+000
7.423670e+002,4.425888e+000
7.433312e+002,4.294968e+000
7.442955e+002,3.610550e+000
7.452597e+002,2.991074e+000
7.462239e+002,3.179199e+000
7.471882e+002,4.475845e+000
7.481524e+002,5.087936e+000
7.491166e+002,4.478760e+000
7.500809e+002,3.716507e+000
7.510451e+002,3.103119e+000
7.520093e+002,2.667679e+000
7.529736e+002,2.389893e+000
7.539378e+002,2.477203e+000
7.549020e+002,2.592087e+000
7.558663e+002,2.542465e+000
7.568306e+002,2.351563e+000
7.577948e+002,1.871704e+000
7.587590e+002,1.043472e+000
7.597233e+002,2.173920e-001
7.606875e+002,1.150497e+000
7.616517e+002,3.601974e+000
7.626160e+002,4.445740e+000
7.635802e+002,2.218826e+000
7.645444e+002,-1.323944e+000
7.655087e+002,-2.384956e+000
7.664729e+002,5.415192e-001
7.674371e+002,2.733643e+000
7.684014e+002,3.511612e+000
7.693656e+002,3.929306e+000
7.703298e+002,4.839905e+000
7.712941e+002,6.265793e+000
7.722583e+002,7.185089e+000
7.732225e+002,6.426376e+000
7.741868e+002,5.201035e+000
7.751510e+002,4.393936e+000
7.761152e+002,3.971954e+000
7.770795e+002,3.477386e+000
7.780437e+002,2.484558e+000
7.790079e+002,1.197876e+000
7.799722e+002,2.084564e+000
7.809364e+002,5.332016e+000
7.819006e+002,8.031479e+000
7.828649e+002,8.902710e+000
7.838291e+002,8.463806e+000
7.847933e+002,8.351135e+000
7.857576e+002,8.912506e+000
7.867218e+002,9.013107e+000
7.876860e+002,8.312538e+000
7.886503e+002,7.400650e+000
7.896145e+002,6.720436e+000
7.905787e+002,6.399246e+000
7.915430e+002,6.252594e+000
7.925072e+002,5.914536e+000
7.934714e+002,5.651917e+000
7.944357e+002,6.238968e+000
7.953999e+002,7.516556e+000
7.963641e+002,8.294510e+000
7.973284e+002,7.113220e+000
7.982926e+002,3.759285e+000
7.992568e+002,2.853622e+000
8.002211e+002,5.280800e+000
8.011853e+002,7.538422e+000
8.021495e+002,8.633904e+000
8.031138e+002,8.788559e+000
8.040780e+002,8.351189e+000
8.050422e+002,6.515961e+000
8.060065e+002,5.326096e+000
8.069707e+002,5.625565e+000
8.079349e+002,6.570572e+000
8.088992e+002,7.416351e+000
8.098634e+002,7.910446e+000
8.108276e+002,8.400009e+000
8.117919e+002,9.772079e+000
8.127561e+002,1.108668e+001
8.137203e+002,1.020105e+001
8.146846e+002,7.023323e+000
8.156488e+002,3.778534e+000
8.166130e+002,3.260155e+000
8.175773e+002,6.077728e+000
8.185415e+002,7.829727e+000
8.195057e+002,7.980057e+000
8.204700e+002,7.824890e+000
8.214342e+002,7.759171e+000
8.223984e+002,7.714447e+000
8.233627e+002,7.350891e+000
8.243269e+002,6.197281e+000
8.252911e+002,5.543571e+000
8.262554e+002,6.280746e+000
8.272196e+002,7.635521e+000
8.281838e+002,9.027847e+000
8.291481e+002,1.011468e+001
8.301123e+002,1.068129e+001
8.310765e+002,1.021568e+001
8.320408e+002,8.753067e+000
8.330050e+002,7.372971e+000
8.339692e+002,5.968918e+000
8.349335e+002,5.217606e+000
8.358977e+002,6.460342e+000
8.368619e+002,1.033064e+001
8.378262e+002,1.178882e+001
8.387904e+002,7.767166e+000
8.397546e+002,4.582191e+000
8.407189e+002,4.330383e+000
8.416831e+002,5.847725e+000
8.426473e+002,6.837463e+000
8.436116e+002,6.178688e+000
8.445758e+002,5.314636e+000
8.455400e+002,5.591934e+000
8.465043e+002,6.469513e+000
8.474685e+002,7.620041e+000
8.484327e+002,8.938477e+000
8.493970e+002,1.040768e+001
8.503612e+002,1.195018e+001
8.513254e+002,1.366116e+001
8.522897e+002,1.389043e+001
8.532539e+002,1.170583e+001
8.542181e+002,9.356483e+000
8.551824e+002,8.149521e+000
8.561466e+002,8.076622e+000
8.571108e+002,8.439896e+000
8.580751e+002,9.144371e+000
8.590393e+002,9.880859e+000
8.600035e+002,1.087697e+001
8.609678e+002,1.181789e+001
8.619320e+002,1.220505e+001
8.628962e+002,1.187947e+001
8.638605e+002,1.144563e+001
8.648247e+002,1.197153e+001
8.657889e+002,1.302681e+001
8.667532e+002,1.373273e+001
8.677174e+002,1.397318e+001
8.686816e+002,1.400759e+001
8.696459e+002,1.418303e+001
8.706101e+002,1.461956e+001
8.715743e+002,1.457275e+001
8.725386e+002,1.300261e+001
8.735028e+002,1.230699e+001
8.744670e+002,1.373851e+001
8.754313e+002,1.619635e+001
8.763955e+002,1.752606e+001
8.773597e+002,1.672777e+001
8.783240e+002,1.598021e+001
8.792882e+002,1.717103e+001
8.802524e+002,1.885930e+001
8.812167e+002,1.973045e+001
8.821809e+002,1.960574e+001
8.831451e+002,1.927561e+001
8.841094e+002,1.978757e+001
8.850736e+002,2.116613e+001
8.860378e+002,2.225795e+001
8.870021e+002,2.298958e+001
8.879663e+002,2.358492e+001
8.889305e+002,2.431184e+001
8.898948e+002,2.500458e+001
8.908590e+002,2.477312e+001
8.918232e+002,2.224597e+001
8.927875e+002,2.122348e+001
8.937517e+002,2.374709e+001
8.947159e+002,2.700360e+001
8.956802e+002,2.854556e+001
8.966444e+002,2.786723e+001
8.976086e+002,2.642216e+001
8.985729e+002,2.546222e+001
8.995371e+002,2.502354e+001
9.005013e+002,2.482939e+001
9.014656e+002,2.498604e+001
9.024298e+002,2.604749e+001
9.033940e+002,2.856892e+001
9.043583e+002,3.207825e+001
9.053225e+002,3.330783e+001
9.062867e+002,2.959620e+001
9.072510e+002,2.680693e+001
9.082152e+002,2.554896e+001
9.091794e+002,2.513686e+001
9.101437e+002,2.472330e+001
9.111079e+002,2.415976e+001
9.120721e+002,2.451286e+001
9.130364e+002,2.818088e+001
9.140006e+002,3.125627e+001
9.149648e+002,3.084015e+001
9.159291e+002,2.813148e+001
9.168933e+002,2.580629e+001
9.178575e+002,2.570331e+001
9.188218e+002,2.710899e+001
9.197860e+002,2.785576e+001
9.207502e+002,2.792558e+001
9.217145e+002,2.753679e+001
9.226787e+002,2.648724e+001
9.236429e+002,2.539906e+001
9.246072e+002,2.513566e+001
9.255714e+002,2.582843e+001
9.265356e+002,2.632642e+001
9.274999e+002,2.672725e+001
9.284641e+002,2.652901e+001
9.294283e+002,2.495972e+001
9.303926e+002,2.285208e+001
9.313568e+002,2.159007e+001
9.323210e+002,2.189554e+001
9.332853e+002,2.303306e+001
9.342495e+002,2.462605e+001
9.352137e+002,2.605935e+001
9.361780e+002,2.598454e+001
9.371422e+002,2.420731e+001
9.381064e+002,2.199095e+001
9.390707e+002,2.095609e+001
9.400349e+002,2.118300e+001
9.409991e+002,2.149298e+001
9.419634e+002,2.256837e+001
9.429276e+002,2.282707e+001
9.438918e+002,2.114816e+001
9.448561e+002,1.864789e+001
9.458203e+002,1.720380e+001
9.467845e+002,1.743742e+001
9.477488e+002,1.830552e+001
9.487130e+002,1.990681e+001
9.496772e+002,2.115133e+001
9.506415e+002,2.064529e+001
9.516057e+002,1.871152e+001
9.525699e+002,1.703368e+001
9.535342e+002,1.726877e+001
9.544984e+002,1.906642e+001
9.554626e+002,1.958687e+001
9.564269e+002,1.882822e+001
9.573911e+002,1.787276e+001
9.583553e+002,1.688069e+001
9.593196e+002,1.585510e+001
9.602838e+002,1.461575e+001
9.612480e+002,1.283394e+001
9.622123e+002,1.214205e+001
9.631765e+002,1.466136e+001
9.641407e+002,1.675872e+001
9.651050e+002,1.618071e+001
9.660692e+002,1.381590e+001
9.670334e+002,1.201483e+001
9.679977e+002,1.229938e+001
9.689619e+002,1.345544e+001
9.699261e+002,1.200928e+001
9.708904e+002,9.049362e+000
9.718546e+002,8.307320e+000
9.728188e+002,1.085866e+001
9.737831e+002,1.462611e+001
9.747473e+002,1.705820e+001
9.757115e+002,1.806201e+001
9.766758e+002,1.829009e+001
9.776400e+002,1.718286e+001
9.786042e+002,1.610629e+001
9.795685e+002,1.524323e+001
9.805327e+002,1.455482e+001
9.814969e+002,1.411444e+001
9.824612e+002,1.399951e+001
9.834254e+002,1.376804e+001
9.843896e+002,1.251649e+001
9.853539e+002,1.106961e+001
9.863181e+002,1.038356e+001
9.872823e+002,1.041030e+001
9.882466e+002,1.074205e+001
9.892108e+002,1.113367e+001
9.901750e+002,1.158420e+001
9.911393e+002,1.134222e+001
9.921035e+002,9.235634e+000
9.930677e+002,7.968567e+000
9.940320e+002,8.026382e+000
9.949962e+002,8.801270e+000
9.959604e+002,1.010559e+001
9.969247e+002,1.184567e+001
9.978889e+002,1.288861e+001
9.988531e+002,1.226913e+001
9.998174e+002,1.105302e+001
1.000782e+003,9.689659e+000
1.001746e+003,8.409416e+000
1.002710e+003,7.327263e+000
1.003674e+003,6.536133e+000
1.004639e+003,6.281860e+000
1.005603e+003,7.126450e+000
1.006567e+003,9.174889e+000
1.007531e+003,1.002293e+001
1.008495e+003,9.318817e+000
1.009460e+003,8.243134e+000
1.010424e+003,7.333092e+000
1.011388e+003,6.623405e+000
1.012352e+003,6.153877e+000
1.013317e+003,5.659981e+000
1.014281e+003,5.969048e+000
1.015245e+003,8.498688e+000
1.016209e+003,1.069520e+001
1.017174e+003,1.041306e+001
1.018138e+003,7.850891e+000
1.019102e+003,4.754807e+000
1.020066e+003,2.434090e+000
1.021031e+003,1.035736e+000
1.021995e+003,1.359123e+000
1.022959e+003,2.954002e+000
1.023923e+003,3.948761e+000
1.024887e+003,3.653992e+000
1.025852e+003,2.597839e+000
1.026816e+003,1.557785e+000
1.027780e+003,5.396805e-001
1.028744e+003,-2.324066e-001
1.029709e+003,-1.167542e+000
1.030673e+003,-1.392082e+000
1.031637e+003,6.292725e-002
1.032601e+003,2.064621e+000
1.033566e+003,2.935913e+000
1.034530e+003,2.141640e+000
1.035494e+003,1.077675e+000
1.036458e+003,1.464737e+000
1.037422e+003,2.392578e+000
1.038387e+003,2.253075e+000
1.039351e+003,1.065536e+000
1.040315e+003,-2.550735e-001
1.041279e+003,-1.054161e+000
1.042244e+003,-1.332260e+000
1.043208e+003,-1.195396e+000
1.044172e+003,-5.616150e-001
1.045136e+003,2.832108e-001
1.046101e+003,1.986725e+000
1.047065e+003,3.310936e+000
1.048029e+003,3.099792e+000
1.048993e+003,1.716217e+000
1.049958e+003,6.617279e-001
1.050922e+003,6.391525e-001
1.051886e+003,1.256500e+000
1.052850e+003,2.649612e+000
1.053814e+003,4.095718e+000
1.054779e+003,4.468117e+000
1.055743e+003,3.606339e+000
1.056707e+003,2.361908e+000
1.057671e+003,1.766785e+000
1.058636e+003,1.812546e+000
1.059600e+003,1.587479e+000
1.060564e+003,1.126442e+000
1.061528e+003,5.250854e-001
1.062493e+003,-6.713104e-001
1.063457e+003,-1.821823e+000
1.064421e+003,-1.967674e+000
1.065385e+003,-1.010590e+000
1.066349e+003,-2.898407e-001
1.067314e+003,-6.963043e-001
1.068278e+003,-1.291306e+000
1.069242e+003,-1.615295e+000
1.070206e+003,-1.564430e+000
1.071171e+003,-9.657974e-001
1.072135e+003,1.786270e-001
1.073099e+003,1.608627e+000
1.074063e+003,2.980080e+000
1.075028e+003,4.367981e+000
1.075992e+003,4.676270e+000
1.076956e+003,3.289619e+000
1.077920e+003,1.962761e+000
1.078885e+003,1.529251e+000
1.079849e+003,1.590683e+000
1.080813e+003,1.342789e+000
1.081777e+003,6.323242e-001
1.082741e+003,-4.941559e-002
1.083706e+003,-7.586060e-001
1.084670e+003,-1.221207e+000
1.085634e+003,-1.339577e+000
1.086598e+003,-1.058571e+000
1.087563e+003,-4.246521e-002
1.088527e+003,1.820496e+000
1.089491e+003,3.794785e+000
1.090455e+003,4.322449e+000
1.091420e+003,3.156792e+000
1.092384e+003,1.657433e+000
1.093348e+003,-6.141052e-001
1.094312e+003,-2.535622e+000
1.095276e+003,-3.513657e+000
1.096241e+003,-3.570450e+000
1.097205e+003,-2.651817e+000
1.098169e+003,-2.647934e-001
1.099133e+003,1.545616e+000
1.100098e+003,2.259933e+000
1.101062e+003,2.071457e+000
1.102026e+003,3.088989e-001
1.102990e+003,-2.194382e+000
1.103955e+003,-3.724380e+000
1.104919e+003,-3.273094e+000
1.105883e+003,-1.722221e+000
1.106847e+003,-8.032303e-001
1.107812e+003,-5.793915e-001
1.108776e+003,-1.001892e+000
1.109740e+003,-2.632362e+000
1.110704e+003,-3.741066e+000
1.111668e+003,-2.440529e+000
1.112633e+003,5.945511e-001
1.113597e+003,2.161270e+000
1.114561e+003,1.480194e+000
1.115525e+003,2.824173e-001
1.116490e+003,-1.278770e+000
1.117454e+003,-2.734131e+000
1.118418e+003,-3.960953e+000
1.119382e+003,-4.737480e+000
1.120347e+003,-4.621559e+000
1.121311e+003,-3.396599e+000
1.122275e+003,-1.812889e+000
1.123239e+003,-1.267731e+000
1.124203e+003,-1.626198e+000
1.125168e+003,-1.943764e+000
1.126132e+003,-2.274742e+000
1.127096e+003,-2.200844e+000
1.128060e+003,-9.551239e-001
1.129025e+003,1.019257e+000
1.129989e+003,1.463684e+000
1.130953e+003,-8.776245e-001
1.131917e+003,-2.248169e+000
1.132882e+003,-8.680725e-001
1.133846e+003,9.284897e-001
1.134810e+003,2.105499e+000
1.135774e+003,2.448242e+000
1.136739e+003,1.713600e+000
1.137703e+003,-1.966782e-001
1.138667e+003,-2.204346e+000
1.139631e+003,-2.218910e+000
1.140595e+003,-4.623642e-001
1.141560e+003,7.572479e-001
1.142524e+003,1.361732e+000
1.143488e+003,1.530930e+000
1.144452e+003,4.864960e-001
1.145417e+003,-9.568329e-001
1.146381e+003,6.316223e-001
1.147345e+003,6.899269e+000
1.148309e+003,1.191534e+001
1.149274e+003,1.354140e+001
1.150238e+003,1.442579e+001
1.151202e+003,1.577481e+001
1.152166e+003,1.748975e+001
1.153130e+003,1.899821e+001
1.154095e+003,1.999557e+001
1.155059e+003,2.073606e+001
1.156023e+003,2.183208e+001
1.156987e+003,2.307595e+001
1.157952e+003,2.278920e+001
1.158916e+003,2.075954e+001
1.159880e+003,1.899385e+001
1.160844e+003,1.908650e+001
1.161809e+003,1.981631e+001
1.162773e+003,1.822031e+001
1.163737e+003,1.356248e+001
1.164701e+003,9.916809e+000
1.165666e+003,9.772247e+000
1.166630e+003,9.369606e+000
1.167594e+003,6.785149e+000
1.168558e+003,3.313911e+000
1.169522e+003,5.127716e-001
1.170487e+003,-9.499817e-001
1.171451e+003,-7.927628e-001
1.172415e+003,1.649017e+000
1.173379e+003,5.527946e+000
1.174344e+003,6.131851e+000
1.175308e+003,3.388863e+000
1.176272e+003,8.784332e-001
1.177236e+003,-1.342697e-001
1.178201e+003,-4.135590e-001
1.179165e+003,-9.552917e-001
1.180129e+003,-1.805267e+000
1.181093e+003,-2.529121e+000
1.182057e+003,-3.018768e+000
1.183022e+003,-3.324295e+000
1.183986e+003,-3.319244e+000
1.184950e+003,-3.260040e+000
1.185914e+003,-3.634651e+000
1.186879e+003,-4.247437e+000
1.187843e+003,-4.148651e+000
1.188807e+003,-2.550964e+000
1.189771e+003,-1.447678e-001
1.190736e+003,1.089806e+000
1.191700e+003,1.065361e+000
1.192664e+003,4.339905e-001
1.193628e+003,-1.087936e+000
1.194593e+003,-2.700958e+000
1.195557e+003,-4.036591e+000
1.196521e+003,-5.036003e+000
1.197485e+003,-5.316635e+000
1.198449e+003,-4.500076e+000
1.199414e+003,-3.947731e+000
1.200378e+003,-4.626541e+000
1.201342e+003,-5.442802e+000
1.202306e+003,-5.694160e+000
1.203271e+003,-5.567062e+000
1.204235e+003,-5.604675e+000
1.205199e+003,-6.047859e+000
1.206163e+003,-6.570732e+000
1.207128e+003,-6.601700e+000
1.208092e+003,-6.090210e+000
1.209056e+003,-6.247963e+000
1.210020e+003,-7.187096e+000
1.210984e+003,-8.395294e+000
1.211949e+003,-1.028309e+001
1.212913e+003,-1.204717e+001
1.213877e+003,-1.225939e+001
1.214841e+003,-1.089839e+001
1.215806e+003,-1.026801e+001
1.216770e+003,-1.156629e+001
1.217734e+003,-1.338661e+001
1.218698e+003,-1.540218e+001
1.219663e+003,-1.696616e+001
1.220627e+003,-1.713738e+001
1.221591e+003,-1.587834e+001
1.222555e+003,-1.383939e+001
1.223520e+003,-1.156662e+001
1.224484e+003,-9.263733e+000
1.225448e+003,-7.981277e+000
1.226412e+003,-8.008110e+000
1.227376e+003,-8.640099e+000
1.228341e+003,-1.039397e+001
1.229305e+003,-1.218290e+001
1.230269e+003,-1.357959e+001
1.231233e+003,-1.455032e+001
1.232198e+003,-1.502410e+001
1.233162e+003,-1.494687e+001
1.234126e+003,-1.455165e+001
1.235090e+003,-1.357414e+001
1.236055e+003,-1.286314e+001
1.237019e+003,-1.380592e+001
1.237983e+003,-1.571398e+001
1.238947e+003,-1.653708e+001
1.239911e+003,-1.541467e+001
1.240876e+003,-1.376759e+001
1.241840e+003,-1.385222e+001
1.242804e+003,-1.581821e+001
1.243768e+003,-1.669419e+001
1.244733e+003,-1.503484e+001
1.245697e+003,-1.418011e+001
1.246661e+003,-1.586716e+001
1.247625e+003,-1.719425e+001
1.248590e+003,-1.492565e+001
1.249554e+003,-1.030760e+001
1.250518e+003,-7.823486e+000
1.251482e+003,-9.654343e+000
1.252447e+003,-1.259743e+001
1.253411e+003,-1.243867e+001
1.254375e+003,-1.078413e+001
1.255339e+003,-1.156133e+001
1.256303e+003,-1.476917e+001
1.257268e+003,-1.704209e+001
1.258232e+003,-1.626093e+001
1.259196e+003,-1.383225e+001
1.260160e+003,-1.251412e+001
1.261125e+003,-1.246333e+001
1.262089e+003,-1.233060e+001
1.263053e+003,-1.185317e+001
1.264017e+003,-1.155312e+001
1.264982e+003,-1.192049e+001
1.265946e+003,-1.221271e+001
1.266910e+003,-1.128816e+001
1.267874e+003,-9.534721e+000
1.268839e+003,-8.760414e+000
1.269803e+003,-1.018579e+001
1.270767e+003,-1.244955e+001
1.271731e+003,-1.284993e+001
1.272695e+003,-1.138847e+001
1.273660e+003,-1.020103e+001
1.274624e+003,-9.244194e+000
1.275588e+003,-9.029381e+000
1.276552e+003,-1.020752e+001
1.277517e+003,-1.207096e+001
1.278481e+003,-1.355392e+001
1.279445e+003,-1.466084e+001
1.280409e+003,-1.471324e+001
1.281374e+003,-1.243197e+001
1.282338e+003,-1.044739e+001
1.283302e+003,-1.057687e+001
1.284266e+003,-1.145225e+001
1.285230e+003,-1.132059e+001
1.286195e+003,-1.012389e+001
1.287159e+003,-9.214638e+000
1.288123e+003,-9.687790e+000
1.289087e+003,-1.107643e+001
1.290052e+003,-1.206690e+001
1.291016e+003,-1.270168e+001
1.291980e+003,-1.281230e+001
1.292944e+003,-1.191946e+001
1.293909e+003,-1.125297e+001
1.294873e+003,-1.138921e+001
1.295837e+003,-1.188907e+001
1.296801e+003,-1.199294e+001
1.297766e+003,-1.167448e+001
1.298730e+003,-1.212751e+001
1.299694e+003,-1.469770e+001
1.300658e+003,-1.697301e+001
1.301622e+003,-1.577698e+001
1.302587e+003,-1.272051e+001
1.303551e+003,-1.002576e+001
1.304515e+003,-8.165352e+000
1.305479e+003,-7.129921e+000
1.306444e+003,-7.005966e+000
1.307408e+003,-7.641830e+000
1.308372e+003,-8.447243e+000
1.309336e+003,-9.338615e+000
1.310301e+003,-1.068657e+001
1.311265e+003,-1.371869e+001
1.312229e+003,-1.564799e+001
1.313193e+003,-1.479183e+001
1.314157e+003,-1.300795e+001
1.315122e+003,-1.237483e+001
1.316086e+003,-1.299900e+001
1.317050e+003,-1.342992e+001
1.318014e+003,-1.267402e+001
1.318979e+003,-1.143135e+001
1.319943e+003,-1.102728e+001
1.320907e+003,-1.133237e+001
1.321871e+003,-1.121301e+001
1.322836e+003,-1.050542e+001
1.323800e+003,-1.002665e+001
1.324764e+003,-1.050279e+001
1.325728e+003,-1.130859e+001
1.326693e+003,-1.117924e+001
1.327657e+003,-1.008228e+001
1.328621e+003,-9.819649e+000
1.329585e+003,-1.171585e+001
1.330549e+003,-1.277724e+001
1.331514e+003,-1.047771e+001
1.332478e+003,-7.691383e+000
1.333442e+003,-7.457680e+000
1.334406e+003,-9.418030e+000
1.335371e+003,-1.109382e+001
1.336335e+003,-1.099481e+001
1.337299e+003,-1.015423e+001
1.338263e+003,-1.061353e+001
1.339228e+003,-1.261613e+001
1.340192e+003,-1.360078e+001
1.341156e+003,-1.342557e+001
1.342120e+003,-1.254295e+001
1.343084e+003,-1.002242e+001
1.344049e+003,-7.778542e+000
1.345013e+003,-7.756348e+000
1.345977e+003,-9.311600e+000
1.346941e+003,-1.021862e+001
1.347906e+003,-9.656128e+000
1.348870e+003,-8.845207e+000
1.349834e+003,-9.078186e+000
1.350798e+003,-9.689529e+000
1.351763e+003,-9.153854e+000
1.352727e+003,-7.696701e+000
1.353691e+003,-6.809639e+000
1.354655e+003,-7.143105e+000
1.355620e+003,-7.792976e+000
1.356584e+003,-7.209671e+000
1.357548e+003,-5.706093e+000
1.358512e+003,-6.713638e+000
1.359476e+003,-1.212445e+001
1.360441e+003,-1.552807e+001
1.361405e+003,-1.369200e+001
1.362369e+003,-1.123406e+001
1.363333e+003,-1.009024e+001
1.364298e+003,-9.885735e+000
1.365262e+003,-9.989929e+000
1.366226e+003,-1.009534e+001
1.367190e+003,-9.933617e+000
1.368155e+003,-9.247139e+000
1.369119e+003,-8.361412e+000
1.370083e+003,-8.324402e+000
1.371047e+003,-9.372932e+000
1.372011e+003,-1.024672e+001
1.372976e+003,-1.150728e+001
1.373940e+003,-1.197624e+001
1.374904e+003,-1.047424e+001
1.375868e+003,-8.387497e+000
1.376833e+003,-7.599724e+000
1.377797e+003,-8.131187e+000
1.378761e+003,-8.570709e+000
1.379725e+003,-8.305176e+000
1.380690e+003,-7.804504e+000
1.381654e+003,-7.387840e+000
1.382618e+003,-7.101532e+000
1.383582e+003,-7.156479e+000
1.384547e+003,-7.485237e+000
1.385511e+003,-7.557396e+000
1.386475e+003,-7.050331e+000
1.387439e+003,-6.437508e+000
1.388403e+003,-6.539726e+000
1.389368e+003,-7.358459e+000
1.390332e+003,-7.734344e+000
1.391296e+003,-7.260620e+000
1.392260e+003,-7.047073e+000
1.393225e+003,-7.969482e+000
1.394189e+003,-8.558952e+000
1.395153e+003,-7.511383e+000
1.396117e+003,-5.774185e+000
1.397082e+003,-4.921211e+000
1.398046e+003,-5.286407e+000
1.399010e+003,-5.898621e+000
1.399974e+003,-5.899513e+000
1.400938e+003,-5.550751e+000
1.401903e+003,-5.538383e+000
1.402867e+003,-5.877655e+000
1.403831e+003,-5.896866e+000
1.404795e+003,-5.646431e+000
1.405760e+003,-5.150024e+000
1.406724e+003,-3.946999e+000
1.407688e+003,-2.985008e+000
1.408652e+003,-3.494370e+000
1.409617e+003,-5.258659e+000
1.410581e+003,-7.127350e+000
1.411545e+003,-8.838257e+000
1.412509e+003,-9.521721e+000
1.413474e+003,-7.449127e+000
1.414438e+003,-4.419510e+000
1.415402e+003,-3.293579e+000
1.416366e+003,-3.920654e+000
1.417330e+003,-5.359818e+000
1.418295e+003,-7.570015e+000
1.419259e+003,-9.255577e+000
1.420223e+003,-8.280891e+000
1.421187e+003,-5.283661e+000
1.422152e+003,-4.403496e+000
1.423116e+003,-6.582405e+000
1.424080e+003,-7.864540e+000
1.425044e+003,-6.356079e+000
1.426009e+003,-4.699806e+000
1.426973e+003,-3.754120e+000
1.427937e+003,-3.401894e+000
1.428901e+003,-3.458076e+000
1.429865e+003,-3.841240e+000
1.430830e+003,-4.697296e+000
1.431794e+003,-6.117401e+000
1.432758e+003,-7.510483e+000
1.433722e+003,-7.586327e+000
1.434687e+003,-6.141182e+000
1.435651e+003,-5.176819e+000
1.436615e+003,-5.420013e+000
1.437579e+003,-5.365730e+000
1.438544e+003,-4.468307e+000
1.439508e+003,-3.623863e+000
1.440472e+003,-3.301590e+000
1.441436e+003,-3.457657e+000
1.442401e+003,-4.164299e+000
1.443365e+003,-5.346169e+000
1.444329e+003,-6.242836e+000
1.445293e+003,-6.274025e+000
1.446257e+003,-5.684784e+000
1.447222e+003,-4.633934e+000
1.448186e+003,-3.326126e+000
1.449150e+003,-3.029488e+000
1.450114e+003,-4.071510e+000
1.451079e+003,-5.285797e+000
1.452043e+003,-6.587738e+000
1.453007e+003,-7.319130e+000
1.453971e+003,-5.964272e+000
1.454936e+003,-2.956612e+000
1.455900e+003,-1.546700e+000
1.456864e+003,-2.719765e+000
1.457828e+003,-4.350296e+000
1.458792e+003,-5.813728e+000
1.459757e+003,-6.746307e+000
1.460721e+003,-6.536713e+000
1.461685e+003,-5.646461e+000
1.462649e+003,-5.120415e+000
1.463614e+003,-5.151016e+000
1.464578e+003,-4.732407e+000
1.465542e+003,-2.790459e+000
1.466506e+003,-1.846542e-001
1.467471e+003,4.212265e-001
1.468435e+003,-1.415207e+000
1.469399e+003,-2.716522e+000
1.470363e+003,-2.910271e+000
1.471328e+003,-3.278923e+000
1.472292e+003,-4.726349e+000
1.473256e+003,-5.939766e+000
1.474220e+003,-5.470581e+000
1.475184e+003,-4.089859e+000
1.476149e+003,-3.573517e+000
1.477113e+003,-4.423500e+000
1.478077e+003,-5.536804e+000
1.479041e+003,-5.835800e+000
1.480006e+003,-5.270302e+000
1.480970e+003,-3.640282e+000
1.481934e+003,-3.507614e-001
1.482898e+003,1.145187e+000
1.483863e+003,-4.497528e-001
1.484827e+003,-1.826347e+000
1.485791e+003,-1.818710e+000
1.486755e+003,-1.418686e+000
1.487719e+003,-1.790901e+000
1.488684e+003,-2.589798e+000
1.489648e+003,-2.471146e+000
1.490612e+003,-1.017471e+000
1.491576e+003,4.871445e-001
1.492541e+003,9.238739e-001
1.493505e+003,8.110657e-001
1.494469e+003,1.550812e+000
1.495433e+003,2.846596e+000
1.496398e+003,2.798416e+000
1.497362e+003,6.353226e-001
1.498326e+003,-8.557281e-001
1.499290e+003,2.669907e-001
1.500255e+003,2.503372e+000
1.501219e+003,4.014038e+000
1.502183e+003,4.780586e+000
1.503147e+003,4.929489e+000
1.504111e+003,4.223007e+000
1.505076e+003,4.334961e+000
1.506040e+003,7.118874e+000
1.507004e+003,1.022840e+001
1.507968e+003,1.099360e+001
1.508933e+003,1.042742e+001
1.509897e+003,1.052928e+001
1.510861e+003,1.176939e+001
1.511825e+003,1.381954e+001
1.512790e+003,1.654326e+001
1.513754e+003,1.960484e+001
1.514718e+003,2.264390e+001
1.515682e+003,2.561599e+001
1.516646e+003,2.736158e+001
1.517611e+003,2.692576e+001
1.518575e+003,2.749045e+001
1.519539e+003,3.119289e+001
1.520503e+003,3.503896e+001
1.521468e+003,3.807393e+001
1.522432e+003,3.991721e+001
1.523396e+003,3.991644e+001
1.524360e+003,3.829057e+001
1.525325e+003,3.618376e+001
1.526289e+003,3.437195e+001
1.527253e+003,3.263514e+001
1.528217e+003,3.055042e+001
1.529182e+003,2.815121e+001
1.530146e+003,2.552714e+001
1.531110e+003,2.229929e+001
1.532074e+003,1.948699e+001
1.533039e+003,1.720403e+001
1.534003e+003,1.506167e+001
1.534967e+003,1.305342e+001
1.535931e+003,1.114971e+001
1.536896e+003,9.106346e+000
1.537860e+003,7.127937e+000
1.538824e+003,5.996208e+000
1.539788e+003,6.011414e+000
1.540752e+003,6.038208e+000
1.541717e+003,4.529373e+000
1.542681e+003,1.934006e+000
1.543645e+003,9.990158e-001
1.544609e+003,2.739143e+000
1.545573e+003,3.714531e+000
1.546538e+003,3.137360e+000
1.547502e+003,2.720810e+000
1.548466e+003,3.182098e+000
1.549430e+003,4.135994e+000
1.550395e+003,5.507111e+000
1.551359e+003,6.891968e+000
1.552323e+003,7.386604e+000
1.553287e+003,6.716164e+000
1.554252e+003,5.521835e+000
1.555216e+003,4.255554e+000
1.556180e+003,3.118134e+000
1.557144e+003,2.676544e+000
1.558109e+003,2.980652e+000
1.559073e+003,3.088326e+000
1.560037e+003,3.039505e+000
1.561001e+003,2.508759e+000
1.561966e+003,7.458267e-001
1.562930e+003,-8.167801e-001
1.563894e+003,-8.865967e-001
1.564858e+003,2.407837e-001
1.565823e+003,2.231750e+000
1.566787e+003,4.854019e+000
1.567751e+003,6.043640e+000
1.568715e+003,4.255203e+000
1.569679e+003,1.792023e+000
1.570644e+003,1.757584e+000
1.571608e+003,3.211975e+000
1.572572e+003,3.194336e+000
1.573536e+003,1.607384e+000
1.574500e+003,1.088226e+000
1.575465e+003,3.373390e+000
1.576429e+003,5.546783e+000
1.577393e+003,4.330971e+000
1.578357e+003,1.722504e+000
1.579322e+003,2.206932e+000
1.580286e+003,5.794899e+000
1.581250e+003,8.186775e+000
1.582214e+003,7.910042e+000
1.583179e+003,6.811653e+000
1.584143e+003,5.733986e+000
1.585107e+003,4.974617e+000
1.586071e+003,5.343338e+000
1.587036e+003,6.394913e+000
1.588000e+003,6.319305e+000
1.588964e+003,4.591988e+000
1.589928e+003,3.366005e+000
1.590893e+003,4.395493e+000
1.591857e+003,6.419228e+000
1.592821e+003,7.753494e+000
1.593785e+003,8.421791e+000
1.594750e+003,8.320847e+000
1.595714e+003,7.211525e+000
1.596678e+003,6.710876e+000
1.597642e+003,8.024391e+000
1.598606e+003,9.321442e+000
1.599571e+003,8.809570e+000
1.600535e+003,7.644966e+000
1.601499e+003,7.260803e+000
1.602463e+003,7.681129e+000
1.603427e+003,8.319603e+000
1.604392e+003,8.953697e+000
1.605356e+003,9.662544e+000
1.606320e+003,1.067996e+001
1.607284e+003,1.179247e+001
1.608249e+003,1.238522e+001
1.609213e+003,1.244595e+001
1.610177e+003,1.222766e+001
1.611141e+003,1.162170e+001
1.612106e+003,1.111829e+001
1.613070e+003,1.105867e+001
1.614034e+003,1.108440e+001
1.614998e+003,1.082690e+001
1.615963e+003,1.052686e+001
1.616927e+003,1.058641e+001
1.617891e+003,1.105409e+001
1.618855e+003,1.186765e+001
1.619820e+003,1.309834e+001
1.620784e+003,1.395306e+001
1.621748e+003,1.284099e+001
1.622712e+003,1.033994e+001
1.623677e+003,9.944778e+000
1.624641e+003,1.213210e+001
1.625605e+003,1.376647e+001
1.626569e+003,1.377341e+001
1.627533e+003,1.357072e+001
1.628498e+003,1.447791e+001
1.629462e+003,1.506503e+001
1.630426e+003,1.333370e+001
1.631390e+003,1.047626e+001
1.632354e+003,9.374306e+000
1.633319e+003,1.058727e+001
1.634283e+003,1.203164e+001
1.635247e+003,1.213587e+001
1.636211e+003,1.165700e+001
1.637176e+003,1.227162e+001
1.638140e+003,1.385010e+001
1.639104e+003,1.380633e+001
1.640068e+003,1.144120e+001
1.641033e+003,9.774612e+000
1.641997e+003,9.725372e+000
1.642961e+003,1.033646e+001
1.643925e+003,1.188014e+001
1.644890e+003,1.318379e+001
1.645854e+003,1.251584e+001
1.646818e+003,1.068589e+001
1.647782e+003,1.007133e+001
1.648747e+003,1.134082e+001
1.649711e+003,1.292870e+001
1.650675e+003,1.363692e+001
1.651639e+003,1.373217e+001
1.652604e+003,1.349480e+001
1.653568e+003,1.293037e+001
1.654532e+003,1.320913e+001
1.655496e+003,1.494070e+001
1.656460e+003,1.547694e+001
1.657425e+003,1.268150e+001
1.658389e+003,1.044923e+001
1.659353e+003,1.179901e+001
1.660317e+003,1.403562e+001
1.661281e+003,1.408136e+001
1.662246e+003,1.238754e+001
1.663210e+003,1.114891e+001
1.664174e+003,1.110187e+001
1.665138e+003,1.134353e+001
1.666103e+003,1.105936e+001
1.667067e+003,1.058254e+001
1.668031e+003,1.087318e+001
1.668995e+003,1.182723e+001
1.669960e+003,1.150325e+001
1.670924e+003,9.328842e+000
1.671888e+003,7.829880e+000
1.672852e+003,8.262115e+000
1.673817e+003,8.800385e+000
1.674781e+003,7.933136e+000
1.675745e+003,6.809593e+000
1.676709e+003,6.752274e+000
1.677674e+003,7.572990e+000
1.678638e+003,8.441231e+000
1.679602e+003,9.091934e+000
1.680566e+003,9.511581e+000
1.681531e+003,9.670357e+000
1.682495e+003,9.677223e+000
1.683459e+003,9.635208e+000
1.684423e+003,9.532753e+000
1.685387e+003,9.498779e+000
1.686352e+003,9.586952e+000
1.687316e+003,9.564194e+000
1.688280e+003,9.520744e+000
1.689244e+003,9.030479e+000
1.690208e+003,7.192200e+000
1.691173e+003,5.114784e+000
1.692137e+003,3.918121e+000
1.693101e+003,3.599098e+000
1.694065e+003,3.997597e+000
1.695030e+003,5.071457e+000
1.695994e+003,6.094833e+000
1.696958e+003,6.752625e+000
1.697922e+003,7.014221e+000
1.698887e+003,6.680992e+000
1.699851e+003,5.960632e+000
1.700815e+003,5.490822e+000
1.701779e+003,5.298912e+000
1.702744e+003,4.874016e+000
1.703708e+003,4.011108e+000
1.704672e+003,3.256737e+000
1.705636e+003,2.865715e+000
1.706601e+003,2.840477e+000
1.707565e+003,3.543259e+000
1.708529e+003,4.678940e+000
1.709493e+003,5.173286e+000
1.710458e+003,4.856857e+000
1.711422e+003,4.287018e+000
1.712386e+003,3.416763e+000
1.713350e+003,2.768806e+000
1.714314e+003,2.941055e+000
1.715279e+003,3.423927e+000
1.716243e+003,3.272095e+000
1.717207e+003,2.611526e+000
1.718171e+003,2.420990e+000
1.719135e+003,2.978600e+000
1.720100e+003,3.622475e+000
1.721064e+003,3.992355e+000
1.722028e+003,3.925827e+000
1.722992e+003,3.057503e+000
1.723957e+003,1.618652e+000
1.724921e+003,5.493774e-001
1.725885e+003,-3.909912e-001
1.726849e+003,-9.213257e-002
1.727814e+003,3.154770e+000
1.728778e+003,5.739662e+000
1.729742e+003,5.642296e+000
1.730706e+003,4.594246e+000
1.731671e+003,4.130341e+000
1.732635e+003,4.042900e+000
1.733599e+003,3.638039e+000
1.734563e+003,2.882736e+000
1.735528e+003,2.332191e+000
1.736492e+003,2.255043e+000
1.737456e+003,2.098671e+000
1.738420e+003,1.102142e+000
1.739385e+003,-2.725372e-001
1.740349e+003,-1.165314e-001
1.741313e+003,2.054932e+000
1.742277e+003,3.442520e+000
1.743241e+003,3.922989e+000
1.744206e+003,3.952263e+000
1.745170e+003,3.184807e+000
1.746134e+003,2.392044e+000
1.747098e+003,2.020195e+000
1.748063e+003,1.826668e+000
1.749027e+003,1.438248e+000
1.749991e+003,9.642029e-001
1.750955e+003,8.390274e-001
1.751919e+003,1.151314e+000
1.752884e+003,1.450386e+000
1.753848e+003,1.356644e+000
1.754812e+003,1.165100e+000
1.755776e+003,1.533981e+000
1.756741e+003,2.474174e+000
1.757705e+003,3.227470e+000
1.758669e+003,3.908043e+000
1.759633e+003,3.944290e+000
1.760598e+003,2.542297e+000
1.761562e+003,1.488640e+000
1.762526e+003,1.674667e+000
1.763490e+003,2.087326e+000
1.764455e+003,2.164726e+000
1.765419e+003,1.913277e+000
1.766383e+003,1.058327e+000
1.767347e+003,-1.163483e-001
1.768312e+003,-2.484055e-001
1.769276e+003,1.318459e+000
1.770240e+003,3.013809e+000
1.771204e+003,3.316307e+000
1.772168e+003,2.613464e+000
1.773133e+003,1.273285e+000
1.774097e+003,-5.247803e-001
1.775061e+003,-5.857849e-001
1.776025e+003,1.598755e+000
1.776990e+003,2.866463e+000
1.777954e+003,1.654587e+000
1.778918e+003,6.118698e-001
1.779882e+003,2.311630e+000
1.780846e+003,4.638580e+000
1.781811e+003,4.562584e+000
1.782775e+003,2.761681e+000
1.783739e+003,1.416969e+000
1.784703e+003,8.516006e-001
1.785668e+003,6.365128e-001
1.786632e+003,7.216721e-001
1.787596e+003,8.412628e-001
1.788560e+003,8.942108e-001
1.789525e+003,9.011459e-001
1.790489e+003,6.417465e-001
1.791453e+003,3.175125e-001
1.792417e+003,7.688446e-001
1.793382e+003,2.059052e+000
1.794346e+003,2.960739e+000
1.795310e+003,2.793877e+000
1.796274e+003,2.371284e+000
1.797239e+003,2.721329e+000
1.798203e+003,3.468788e+000
1.799167e+003,3.175552e+000
1.800131e+003,1.494102e+000
1.801095e+003,5.437317e-001
1.802060e+003,9.465256e-001
1.803024e+003,1.168365e+000
1.803988e+003,7.427597e-001
1.804952e+003,4.477386e-001
1.805917e+003,7.809525e-001
1.806881e+003,1.309212e+000
1.807845e+003,1.598457e+000
1.808809e+003,1.734009e+000
1.809773e+003,1.993225e+000
1.810738e+003,2.427803e+000
1.811702e+003,2.948196e+000
1.812666e+003,3.482780e+000
1.813630e+003,3.748497e+000
1.814595e+003,3.297104e+000
1.815559e+003,2.337196e+000
1.816523e+003,1.671814e+000
1.817487e+003,1.269547e+000
1.818452e+003,1.792473e+000
1.819416e+003,3.871124e+000
1.820380e+003,5.228180e+000
1.821344e+003,5.000664e+000
1.822309e+003,4.178978e+000
1.823273e+003,2.773979e+000
1.824237e+003,1.587296e+000
1.825201e+003,1.558357e+000
1.826166e+003,2.380852e+000
1.827130e+003,3.449669e+000
1.828094e+003,4.595772e+000
1.829058e+003,4.726303e+000
1.830022e+003,2.758621e+000
1.830987e+003,9.007721e-001
1.831951e+003,1.255463e+000
1.832915e+003,2.629364e+000
1.833879e+003,3.440239e+000
1.834844e+003,3.721237e+000
1.835808e+003,3.847794e+000
1.836772e+003,3.889252e+000
1.837736e+003,3.684593e+000
1.838700e+003,3.130089e+000
1.839665e+003,2.699402e+000
1.840629e+003,2.875603e+000
1.841593e+003,3.395943e+000
1.842557e+003,3.687920e+000
1.843522e+003,3.751617e+000
1.844486e+003,3.767662e+000
1.845450e+003,3.670692e+000
1.846414e+003,3.756271e+000
1.847379e+003,4.221275e+000
1.848343e+003,4.466225e+000
1.849307e+003,4.444016e+000
1.850271e+003,4.056931e+000
1.851236e+003,3.063049e+000
1.852200e+003,1.813423e+000
1.853164e+003,3.049316e-001
1.854128e+003,-1.031754e+000
1.855093e+003,-8.683243e-001
1.856057e+003,1.137024e+000
1.857021e+003,3.210403e+000
1.857985e+003,3.846939e+000
1.858949e+003,3.725540e+000
1.859914e+003,4.036095e+000
1.860878e+003,4.666222e+000
1.861842e+003,4.861771e+000
1.862806e+003,4.593277e+000
1.863771e+003,4.456635e+000
1.864735e+003,4.572144e+000
1.865699e+003,4.650261e+000
1.866663e+003,4.667076e+000
1.867627e+003,4.463463e+000
1.868592e+003,3.484306e+000
1.869556e+003,2.384331e+000
1.870520e+003,2.646797e+000
1.871484e+003,4.039566e+000
1.872449e+003,5.097839e+000
1.873413e+003,5.847130e+000
1.874377e+003,6.088066e+000
1.875341e+003,5.121964e+000
1.876306e+003,4.267082e+000
1.877270e+003,4.511513e+000
1.878234e+003,4.916611e+000
1.879198e+003,4.264420e+000
1.880163e+003,3.210182e+000
1.881127e+003,3.101913e+000
1.882091e+003,3.994133e+000
1.883055e+003,5.250168e+000
1.884020e+003,6.474846e+000
1.884984e+003,6.956894e+000
1.885948e+003,6.012405e+000
1.886912e+003,4.510498e+000
1.887876e+003,4.305969e+000
1.888841e+003,5.237206e+000
1.889805e+003,5.105560e+000
1.890769e+003,3.560005e+000
1.891733e+003,2.910942e+000
1.892698e+003,3.740486e+000
1.893662e+003,4.518082e+000
1.894626e+003,4.906471e+000
1.895590e+003,4.888237e+000
1.896554e+003,3.810623e+000
1.897519e+003,2.813950e+000
1.898483e+003,3.658325e+000
1.899447e+003,5.724808e+000
1.900411e+003,6.897675e+000
1.901376e+003,6.829651e+000
1.902340e+003,6.210670e+000
1.903304e+003,4.597748e+000
1.904268e+003,3.586716e+000
1.905233e+003,4.684982e+000
1.906197e+003,6.372238e+000
1.907161e+003,7.205818e+000
1.908125e+003,7.422462e+000
1.909090e+003,7.504143e+000
1.910054e+003,7.537323e+000
1.911018e+003,7.628212e+000
1.911982e+003,7.757935e+000
1.912947e+003,7.268417e+000
1.913911e+003,5.658684e+000
1.914875e+003,4.225914e+000
1.915839e+003,5.149338e+000
1.916803e+003,7.724709e+000
1.917768e+003,8.321396e+000
1.918732e+003,6.525002e+000
1.919696e+003,5.708138e+000
1.920660e+003,6.335732e+000
1.921625e+003,6.790535e+000
1.922589e+003,6.275642e+000
1.923553e+003,6.209686e+000
1.924517e+003,8.104279e+000
1.925481e+003,1.009577e+001
1.926446e+003,1.064243e+001
1.927410e+003,1.007112e+001
1.928374e+003,8.592682e+000
1.929338e+003,6.416382e+000
1.930303e+003,5.621223e+000
1.931267e+003,7.271950e+000
1.932231e+003,8.747475e+000
1.933195e+003,8.484192e+000
1.934160e+003,8.024750e+000
1.935124e+003,8.864639e+000
1.936088e+003,9.822510e+000
1.937052e+003,9.220711e+000
1.938017e+003,7.666359e+000
1.938981e+003,6.557625e+000
1.939945e+003,6.202301e+000
1.940909e+003,6.394142e+000
1.941874e+003,6.980728e+000
1.942838e+003,7.693016e+000
1.943802e+003,8.323822e+000
1.944766e+003,8.927818e+000
1.945730e+003,9.637161e+000
1.946695e+003,1.033402e+001
1.947659e+003,1.010217e+001
1.948623e+003,8.810738e+000
1.949587e+003,7.974541e+000
1.950552e+003,7.833344e+000
1.951516e+003,7.916786e+000
1.952480e+003,8.172058e+000
1.953444e+003,8.384933e+000
1.954408e+003,8.261780e+000
1.955373e+003,8.112839e+000
1.956337e+003,8.661186e+000
1.957301e+003,9.616493e+000
1.958265e+003,9.745346e+000
1.959230e+003,8.929977e+000
1.960194e+003,8.110321e+000
1.961158e+003,6.980865e+000
1.962122e+003,6.394997e+000
1.963087e+003,6.836838e+000
1.964051e+003,7.579697e+000
1.965015e+003,8.559959e+000
1.965979e+003,9.398285e+000
1.966944e+003,9.659386e+000
1.967908e+003,9.478264e+000
1.968872e+003,9.161575e+000
1.969836e+003,8.795273e+000
1.970801e+003,8.180481e+000
1.971765e+003,7.298660e+000
1.972729e+003,7.031868e+000
1.973693e+003,8.275208e+000
1.974657e+003,1.006667e+001
1.975622e+003,1.116644e+001
1.976586e+003,1.158567e+001
1.977550e+003,1.096474e+001
1.978514e+003,9.674080e+000
1.979479e+003,1.002921e+001
1.980443e+003,1.220850e+001
1.981407e+003,1.324836e+001
1.982371e+003,1.201283e+001
1.983335e+003,1.045866e+001
1.984300e+003,1.001297e+001
1.985264e+003,1.009751e+001
1.986228e+003,9.851830e+000
1.987192e+003,9.388275e+000
1.988157e+003,9.291023e+000
1.989121e+003,9.576218e+000
1.990085e+003,1.025780e+001
1.991049e+003,1.175852e+001
1.992014e+003,1.284604e+001
1.992978e+003,1.325610e+001
1.993942e+003,1.334317e+001
1.994906e+003,1.335259e+001
1.995871e+003,1.296886e+001
1.996835e+003,1.123967e+001
1.997799e+003,9.422768e+000
1.998763e+003,9.684952e+000
1.999728e+003,1.158546e+001
