5.003444e+002,6.670375e+001
5.013087e+002,6.859879e+001
5.022729e+002,7.001645e+001
5.032371e+002,7.079781e+001
5.042014e+002,7.033547e+001
5.051656e+002,6.883381e+001
5.061298e+002,6.702084e+001
5.070941e+002,6.547953e+001
5.080583e+002,6.414051e+001
5.090225e+002,6.325163e+001
5.099868e+002,6.273491e+001
5.109510e+002,6.255374e+001
5.119152e+002,6.289430e+001
5.128795e+002,6.381630e+001
5.138437e+002,6.440001e+001
5.148079e+002,6.434012e+001
5.157722e+002,6.394026e+001
5.167364e+002,6.305327e+001
5.177006e+002,6.177667e+001
5.186649e+002,6.048821e+001
5.196291e+002,5.963284e+001
5.205933e+002,5.930427e+001
5.215576e+002,5.973989e+001
5.225218e+002,6.074125e+001
5.234860e+002,6.167448e+001
5.244503e+002,6.149535e+001
5.254145e+002,5.990375e+001
5.263787e+002,5.870354e+001
5.273430e+002,5.782190e+001
5.283072e+002,5.736549e+001
5.292714e+002,5.769267e+001
5.302357e+002,5.967355e+001
5.311999e+002,6.003197e+001
5.321641e+002,5.766554e+001
5.331284e+002,5.465546e+001
5.340926e+002,5.230190e+001
5.350568e+002,5.099302e+001
5.360211e+002,5.070255e+001
5.369853e+002,5.247062e+001
5.379495e+002,5.470434e+001
5.389138e+002,5.591668e+001
5.398780e+002,5.559074e+001
5.408422e+002,5.445763e+001
5.418065e+002,5.491438e+001
5.427707e+002,5.661478e+001
5.437349e+002,5.658009e+001
5.446992e+002,5.338130e+001
5.456634e+002,4.829233e+001
5.466276e+002,4.587524e+001
5.475919e+002,4.978941e+001
5.485561e+002,5.212596e+001
5.495203e+002,5.168607e+001
5.504846e+002,4.973180e+001
5.514488e+002,4.809766e+001
5.524130e+002,4.749863e+001
5.533773e+002,4.722733e+001
5.543415e+002,4.697912e+001
5.553057e+002,4.673341e+001
5.562700e+002,4.635706e+001
5.572342e+002,4.576318e+001
5.581984e+002,4.524062e+001
5.591627e+002,4.603030e+001
5.601269e+002,4.755217e+001
5.610911e+002,4.821770e+001
5.620554e+002,4.708786e+001
5.630196e+002,4.446031e+001
5.639838e+002,4.342224e+001
5.649481e+002,4.545298e+001
5.659123e+002,4.691785e+001
5.668765e+002,4.724749e+001
5.678408e+002,4.672886e+001
5.688050e+002,4.594134e+001
5.697692e+002,4.426237e+001
5.707335e+002,4.311366e+001
5.716977e+002,4.392420e+001
5.726619e+002,4.524831e+001
5.736262e+002,4.484933e+001
5.745904e+002,4.088080e+001
5.755546e+002,3.616748e+001
5.765189e+002,3.489131e+001
5.774831e+002,3.595880e+001
5.784473e+002,3.801625e+001
5.794116e+002,4.016895e+001
5.803758e+002,4.238560e+001
5.813400e+002,4.318748e+001
5.823043e+002,4.221783e+001
5.832685e+002,4.096035e+001
5.842327e+002,3.988139e+001
5.851970e+002,3.902589e+001
5.861612e+002,3.827431e+001
5.871254e+002,3.677467e+001
5.880897e+002,3.630083e+001
5.890539e+002,3.823351e+001
5.900181e+002,4.117220e+001
5.909824e+002,4.265588e+001
5.919466e+002,4.056841e+001
5.929108e+002,3.797424e+001
5.938751e+002,3.865758e+001
5.948393e+002,4.102071e+001
5.958035e+002,4.256425e+001
5.967678e+002,4.148931e+001
5.977320e+002,3.830648e+001
5.986962e+002,3.660670e+001
5.996605e+002,3.616625e+001
6.006247e+002,3.614663e+001
6.015889e+002,3.640385e+001
6.025532e+002,3.690780e+001
6.035174e+002,3.706111e+001
6.044816e+002,3.624080e+001
6.054459e+002,3.577383e+001
6.064101e+002,3.597597e+001
6.073743e+002,3.663274e+001
6.083386e+002,3.737549e+001
6.093028e+002,3.812190e+001
6.102670e+002,3.875136e+001
6.112313e+002,3.911677e+001
6.121955e+002,3.933428e+001
6.131597e+002,3.963457e+001
6.141240e+002,4.015859e+001
6.150882e+002,4.070472e+001
6.160524e+002,4.053660e+001
6.170167e+002,3.982952e+001
6.179809e+002,3.827666e+001
6.189451e+002,3.515338e+001
6.199094e+002,3.085535e+001
6.208736e+002,2.879013e+001
6.218378e+002,3.145073e+001
6.228021e+002,3.389035e+001
6.237663e+002,3.610788e+001
6.247305e+002,3.778462e+001
6.256948e+002,3.835619e+001
6.266590e+002,3.716853e+001
6.276232e+002,3.550738e+001
6.285875e+002,3.368578e+001
6.295517e+002,3.230953e+001
6.305159e+002,3.222984e+001
6.314802e+002,3.380944e+001
6.324444e+002,3.620329e+001
6.334086e+002,3.741949e+001
6.343729e+002,3.776357e+001
6.353371e+002,3.731290e+001
6.363013e+002,3.593315e+001
6.372656e+002,3.390909e+001
6.382298e+002,3.232431e+001
6.391940e+002,3.128043e+001
6.401583e+002,3.060837e+001
6.411225e+002,3.051413e+001
6.420867e+002,3.085033e+001
6.430510e+002,3.153092e+001
6.440152e+002,3.269576e+001
6.449794e+002,3.331355e+001
6.459437e+002,3.246731e+001
6.469079e+002,3.126301e+001
6.478721e+002,3.076388e+001
6.488364e+002,3.124891e+001
6.498006e+002,3.182944e+001
6.507648e+002,3.035582e+001
6.517291e+002,2.776118e+001
6.526933e+002,2.656895e+001
6.536575e+002,2.730214e+001
6.546218e+002,2.903259e+001
6.555860e+002,2.998695e+001
6.565502e+002,2.969734e+001
6.575145e+002,2.949872e+001
6.584787e+002,2.928696e+001
6.594429e+002,2.924168e+001
6.604072e+002,2.975687e+001
6.613714e+002,3.101183e+001
6.623356e+002,3.156837e+001
6.632999e+002,2.944296e+001
6.642641e+002,2.744950e+001
6.652283e+002,2.743942e+001
6.661926e+002,2.931520e+001
6.671568e+002,3.157841e+001
6.681210e+002,3.254390e+001
6.690853e+002,3.230060e+001
6.700495e+002,3.129092e+001
6.710137e+002,2.961447e+001
6.719780e+002,2.814879e+001
6.729422e+002,2.787248e+001
6.739064e+002,2.908953e+001
6.748707e+002,2.949886e+001
6.758349e+002,2.858414e+001
6.767991e+002,2.767527e+001
6.777634e+002,2.754218e+001
6.787276e+002,2.811323e+001
6.796918e+002,2.834447e+001
6.806561e+002,2.675932e+001
6.816203e+002,2.589268e+001
6.825845e+002,2.729663e+001
6.835488e+002,2.997710e+001
6.845130e+002,3.230171e+001
6.854772e+002,3.307631e+001
6.864415e+002,3.291307e+001
6.874057e+002,3.310474e+001
6.883699e+002,3.343298e+001
6.893342e+002,3.361088e+001
6.902984e+002,3.353254e+001
6.912626e+002,3.316827e+001
6.922269e+002,3.211498e+001
6.931911e+002,2.923180e+001
6.941553e+002,2.748960e+001
6.951196e+002,2.778219e+001
6.960838e+002,2.896841e+001
6.970480e+002,2.919882e+001
6.980123e+002,2.764548e+001
6.989765e+002,2.641690e+001
6.999407e+002,2.618646e+001
7.009050e+002,2.663002e+001
7.018692e+002,2.781375e+001
7.028334e+002,2.958212e+001
7.037977e+002,3.126482e+001
7.047619e+002,3.185011e+001
7.057261e+002,3.159281e+001
7.066904e+002,3.060621e+001
7.076546e+002,2.890243e+001
7.086188e+002,2.714257e+001
7.095831e+002,2.642013e+001
7.105473e+002,2.716329e+001
7.115115e+002,2.751227e+001
7.124758e+002,2.757683e+001
7.134400e+002,2.719992e+001
7.144042e+002,2.572610e+001
7.153685e+002,2.328177e+001
7.163327e+002,2.225363e+001
7.172969e+002,2.585789e+001
7.182612e+002,2.921712e+001
7.192254e+002,3.022231e+001
7.201896e+002,2.932255e+001
7.211539e+002,2.775829e+001
7.221181e+002,2.644614e+001
7.230823e+002,2.559621e+001
7.240466e+002,2.595496e+001
7.250108e+002,2.726699e+001
7.259750e+002,2.819938e+001
7.269393e+002,2.782820e+001
7.279035e+002,2.627194e+001
7.288677e+002,2.525809e+001
7.298320e+002,2.535048e+001
7.307962e+002,2.568155e+001
7.317604e+002,2.621791e+001
7.327247e+002,2.698199e+001
7.336889e+002,2.810262e+001
7.346531e+002,2.974507e+001
7.356174e+002,3.069857e+001
7.365816e+002,3.036578e+001
7.375458e+002,2.948370e+001
7.385101e+002,2.825387e+001
7.394743e+002,2.693388e+001
7.404385e+002,2.602285e+001
7.414028e+002,2.646186e+001
7.423670e+002,2.776428e+001
7.433312e+002,2.828983e+001
7.442955e+002,2.800960e+001
7.452597e+002,2.756389e+001
7.462239e+002,2.759082e+001
7.471882e+002,2.812479e+001
7.481524e+002,2.885924e+001
7.491166e+002,3.013339e+001
7.500809e+002,3.095442e+001
7.510451e+002,3.075610e+001
7.520093e+002,2.976142e+001
7.529736e+002,2.882520e+001
7.539378e+002,2.851777e+001
7.549020e+002,2.830779e+001
7.558663e+002,2.774325e+001
7.568306e+002,2.704940e+001
7.577948e+002,2.644315e+001
7.587590e+002,2.605147e+001
7.597233e+002,2.591710e+001
7.606875e+002,2.664139e+001
7.616517e+002,2.814241e+001
7.626160e+002,2.904124e+001
7.635802e+002,2.887192e+001
7.645444e+002,2.806822e+001
7.655087e+002,2.748856e+001
7.664729e+002,2.719714e+001
7.674371e+002,2.695930e+001
7.684014e+002,2.667451e+001
7.693656e+002,2.647616e+001
7.703298e+002,2.643792e+001
7.712941e+002,2.658866e+001
7.722583e+002,2.695843e+001
7.732225e+002,2.777744e+001
7.741868e+002,2.862550e+001
7.751510e+002,2.907216e+001
7.761152e+002,2.925984e+001
7.770795e+002,2.967438e+001
7.780437e+002,3.074425e+001
7.790079e+002,3.224254e+001
7.799722e+002,3.216437e+001
7.809364e+002,3.049049e+001
7.819006e+002,2.868600e+001
7.828649e+002,2.699821e+001
7.838291e+002,2.566386e+001
7.847933e+002,2.547329e+001
7.857576e+002,2.745368e+001
7.867218e+002,2.860984e+001
7.876860e+002,2.784267e+001
7.886503e+002,2.673392e+001
7.896145e+002,2.672050e+001
7.905787e+002,2.812415e+001
7.915430e+002,2.974812e+001
7.925072e+002,3.029984e+001
7.934714e+002,3.018600e+001
7.944357e+002,2.978891e+001
7.953999e+002,2.927637e+001
7.963641e+002,2.884752e+001
7.973284e+002,2.869914e+001
7.982926e+002,2.885981e+001
7.992568e+002,2.878327e+001
8.002211e+002,2.809025e+001
8.011853e+002,2.747648e+001
8.021495e+002,2.760668e+001
8.031138e+002,2.829047e+001
8.040780e+002,2.840385e+001
8.050422e+002,2.718469e+001
8.060065e+002,2.601709e+001
8.069707e+002,2.491722e+001
8.079349e+002,2.422035e+001
8.088992e+002,2.435210e+001
8.098634e+002,2.545316e+001
8.108276e+002,2.720613e+001
8.117919e+002,2.960851e+001
8.127561e+002,3.191832e+001
8.137203e+002,3.292406e+001
8.146846e+002,3.257372e+001
8.156488e+002,3.122248e+001
8.166130e+002,2.905962e+001
8.175773e+002,2.566756e+001
8.185415e+002,2.386300e+001
8.195057e+002,2.387893e+001
8.204700e+002,2.465085e+001
8.214342e+002,2.667044e+001
8.223984e+002,2.918248e+001
8.233627e+002,3.009035e+001
8.243269e+002,2.770441e+001
8.252911e+002,2.567751e+001
8.262554e+002,2.635092e+001
8.272196e+002,2.820680e+001
8.281838e+002,2.994078e+001
8.291481e+002,3.092626e+001
8.301123e+002,3.117013e+001
8.310765e+002,3.051989e+001
8.320408e+002,2.901647e+001
8.330050e+002,2.776250e+001
8.339692e+002,2.679594e+001
8.349335e+002,2.621796e+001
8.358977e+002,2.632738e+001
8.368619e+002,2.731682e+001
8.378262e+002,2.792004e+001
8.387904e+002,2.755075e+001
8.397546e+002,2.729013e+001
8.407189e+002,2.788199e+001
8.416831e+002,2.866019e+001
8.426473e+002,2.806728e+001
8.436116e+002,2.496423e+001
8.445758e+002,2.238212e+001
8.455400e+002,2.446146e+001
8.465043e+002,2.819492e+001
8.474685e+002,3.029955e+001
8.484327e+002,2.997248e+001
8.493970e+002,2.863633e+001
8.503612e+002,2.857615e+001
8.513254e+002,3.004291e+001
8.522897e+002,3.077649e+001
8.532539e+002,3.031070e+001
8.542181e+002,2.970982e+001
8.551824e+002,2.977888e+001
8.561466e+002,3.049622e+001
8.571108e+002,3.096202e+001
8.580751e+002,3.044231e+001
8.590393e+002,2.994722e+001
8.600035e+002,2.948124e+001
8.609678e+002,2.950561e+001
8.619320e+002,3.097630e+001
8.628962e+002,3.408482e+001
8.638605e+002,3.703588e+001
8.648247e+002,3.641264e+001
8.657889e+002,3.376678e+001
8.667532e+002,3.241812e+001
8.677174e+002,3.280035e+001
8.686816e+002,3.409848e+001
8.696459e+002,3.557765e+001
8.706101e+002,3.743472e+001
8.715743e+002,3.820074e+001
8.725386e+002,3.708295e+001
8.735028e+002,3.602446e+001
8.744670e+002,3.523972e+001
8.754313e+002,3.477316e+001
8.763955e+002,3.475249e+001
8.773597e+002,3.533294e+001
8.783240e+002,3.617410e+001
8.792882e+002,3.719103e+001
8.802524e+002,3.814381e+001
8.812167e+002,3.877441e+001
8.821809e+002,3.907701e+001
8.831451e+002,3.926375e+001
8.841094e+002,3.960876e+001
8.850736e+002,4.018918e+001
8.860378e+002,4.117766e+001
8.870021e+002,4.286156e+001
8.879663e+002,4.382787e+001
8.889305e+002,4.262698e+001
8.898948e+002,3.981316e+001
8.908590e+002,3.848641e+001
8.918232e+002,3.995995e+001
8.927875e+002,4.131420e+001
8.937517e+002,4.179784e+001
8.947159e+002,4.202299e+001
8.956802e+002,4.257165e+001
8.966444e+002,4.345609e+001
8.976086e+002,4.401201e+001
8.985729e+002,4.335295e+001
8.995371e+002,4.234724e+001
9.005013e+002,4.254607e+001
9.014656e+002,4.378502e+001
9.024298e+002,4.482439e+001
9.033940e+002,4.458203e+001
9.043583e+002,4.329630e+001
9.053225e+002,4.344911e+001
9.062867e+002,4.747330e+001
9.072510e+002,4.959098e+001
9.082152e+002,4.870777e+001
9.091794e+002,4.669416e+001
9.101437e+002,4.517809e+001
9.111079e+002,4.440205e+001
9.120721e+002,4.401522e+001
9.130364e+002,4.354381e+001
9.140006e+002,4.356796e+001
9.149648e+002,4.508852e+001
9.159291e+002,4.745636e+001
9.168933e+002,4.933278e+001
9.178575e+002,4.973695e+001
9.188218e+002,4.888603e+001
9.197860e+002,4.726247e+001
9.207502e+002,4.473575e+001
9.217145e+002,4.372364e+001
9.226787e+002,4.569021e+001
9.236429e+002,4.862649e+001
9.246072e+002,4.972222e+001
9.255714e+002,4.861176e+001
9.265356e+002,4.723762e+001
9.274999e+002,4.554635e+001
9.284641e+002,4.397466e+001
9.294283e+002,4.268979e+001
9.303926e+002,4.169403e+001
9.313568e+002,4.102644e+001
9.323210e+002,4.073337e+001
9.332853e+002,4.038048e+001
9.342495e+002,3.855463e+001
9.352137e+002,3.632980e+001
9.361780e+002,3.598135e+001
9.371422e+002,3.800784e+001
9.381064e+002,4.042083e+001
9.390707e+002,4.027018e+001
9.400349e+002,3.678619e+001
9.409991e+002,3.542759e+001
9.419634e+002,3.804836e+001
9.429276e+002,4.006910e+001
9.438918e+002,4.004474e+001
9.448561e+002,3.879108e+001
9.458203e+002,3.766599e+001
9.467845e+002,3.702136e+001
9.477488e+002,3.673645e+001
9.487130e+002,3.682162e+001
9.496772e+002,3.710812e+001
9.506415e+002,3.776508e+001
9.516057e+002,3.856941e+001
9.525699e+002,3.888822e+001
9.535342e+002,3.808926e+001
9.544984e+002,3.624250e+001
9.554626e+002,3.399514e+001
9.564269e+002,3.109830e+001
9.573911e+002,2.933715e+001
9.583553e+002,2.986576e+001
9.593196e+002,3.147144e+001
9.602838e+002,3.228151e+001
9.612480e+002,3.215269e+001
9.622123e+002,3.136299e+001
9.631765e+002,2.863304e+001
9.641407e+002,2.666911e+001
9.651050e+002,2.741418e+001
9.660692e+002,2.983107e+001
9.670334e+002,3.162688e+001
9.679977e+002,3.141344e+001
9.689619e+002,3.022100e+001
9.699261e+002,2.968218e+001
9.708904e+002,2.974250e+001
9.718546e+002,3.090659e+001
9.728188e+002,3.342405e+001
9.737831e+002,3.638146e+001
9.747473e+002,3.872141e+001
9.757115e+002,4.046280e+001
9.766758e+002,4.158873e+001
9.776400e+002,4.209488e+001
9.786042e+002,4.213065e+001
9.795685e+002,4.158873e+001
9.805327e+002,4.052367e+001
9.814969e+002,3.876697e+001
9.824612e+002,3.630754e+001
9.834254e+002,3.437997e+001
9.843896e+002,3.517626e+001
9.853539e+002,3.639254e+001
9.863181e+002,3.515699e+001
9.872823e+002,3.165574e+001
9.882466e+002,2.793612e+001
9.892108e+002,2.579162e+001
9.901750e+002,2.520193e+001
9.911393e+002,2.534096e+001
9.921035e+002,2.695538e+001
9.930677e+002,2.761867e+001
9.940320e+002,2.695271e+001
9.949962e+002,2.568436e+001
9.959604e+002,2.414771e+001
9.969247e+002,2.246048e+001
9.978889e+002,2.151016e+001
9.988531e+002,2.190268e+001
9.998174e+002,2.277816e+001
1.000782e+003,2.398219e+001
1.001746e+003,2.526122e+001
1.002710e+003,2.634928e+001
1.003674e+003,2.707897e+001
1.004639e+003,2.736440e+001
1.005603e+003,2.705917e+001
1.006567e+003,2.605518e+001
1.007531e+003,2.445631e+001
1.008495e+003,2.175417e+001
1.009460e+003,1.948962e+001
1.010424e+003,1.890886e+001
1.011388e+003,1.959608e+001
1.012352e+003,1.968712e+001
1.013317e+003,1.823329e+001
1.014281e+003,1.765154e+001
1.015245e+003,1.987879e+001
1.016209e+003,2.198338e+001
1.017174e+003,2.123992e+001
1.018138e+003,1.808920e+001
1.019102e+003,1.544947e+001
1.020066e+003,1.581184e+001
1.021031e+003,1.804549e+001
1.021995e+003,1.883586e+001
1.022959e+003,1.839674e+001
1.023923e+003,1.762192e+001
1.024887e+003,1.658351e+001
1.025852e+003,1.568462e+001
1.026816e+003,1.574763e+001
1.027780e+003,1.713300e+001
1.028744e+003,1.804655e+001
1.029709e+003,1.805268e+001
1.030673e+003,1.790386e+001
1.031637e+003,1.786356e+001
1.032601e+003,1.773202e+001
1.033566e+003,1.690560e+001
1.034530e+003,1.525214e+001
1.035494e+003,1.428217e+001
1.036458e+003,1.679243e+001
1.037422e+003,2.026131e+001
1.038387e+003,1.980305e+001
1.039351e+003,1.570491e+001
1.040315e+003,1.214954e+001
1.041279e+003,1.243733e+001
1.042244e+003,1.562148e+001
1.043208e+003,1.676163e+001
1.044172e+003,1.334251e+001
1.045136e+003,1.210027e+001
1.046101e+003,1.502961e+001
1.047065e+003,1.824873e+001
1.048029e+003,1.918327e+001
1.048993e+003,1.811692e+001
1.049958e+003,1.690137e+001
1.050922e+003,1.624691e+001
1.051886e+003,1.620602e+001
1.052850e+003,1.747835e+001
1.053814e+003,1.899832e+001
1.054779e+003,1.914487e+001
1.055743e+003,1.767978e+001
1.056707e+003,1.576022e+001
1.057671e+003,1.475871e+001
1.058636e+003,1.466615e+001
1.059600e+003,1.493901e+001
1.060564e+003,1.617141e+001
1.061528e+003,1.707870e+001
1.062493e+003,1.712363e+001
1.063457e+003,1.686068e+001
1.064421e+003,1.713213e+001
1.065385e+003,1.803271e+001
1.066349e+003,1.832806e+001
1.067314e+003,1.678204e+001
1.068278e+003,1.516850e+001
1.069242e+003,1.488690e+001
1.070206e+003,1.537860e+001
1.071171e+003,1.552344e+001
1.072135e+003,1.490544e+001
1.073099e+003,1.436995e+001
1.074063e+003,1.549600e+001
1.075028e+003,1.857855e+001
1.075992e+003,1.968066e+001
1.076956e+003,1.761890e+001
1.077920e+003,1.582424e+001
1.078885e+003,1.582290e+001
1.079849e+003,1.690134e+001
1.080813e+003,1.773512e+001
1.081777e+003,1.812693e+001
1.082741e+003,1.846909e+001
1.083706e+003,1.915424e+001
1.084670e+003,1.949556e+001
1.085634e+003,1.917410e+001
1.086598e+003,1.818005e+001
1.087563e+003,1.639653e+001
1.088527e+003,1.387782e+001
1.089491e+003,1.121977e+001
1.090455e+003,9.430092e+000
1.091420e+003,8.566788e+000
1.092384e+003,8.636589e+000
1.093348e+003,9.846031e+000
1.094312e+003,1.146393e+001
1.095276e+003,1.345287e+001
1.096241e+003,1.560001e+001
1.097205e+003,1.710571e+001
1.098169e+003,1.780280e+001
1.099133e+003,1.789163e+001
1.100098e+003,1.687842e+001
1.101062e+003,1.592970e+001
1.102026e+003,1.587752e+001
1.102990e+003,1.651669e+001
1.103955e+003,1.719179e+001
1.104919e+003,1.748648e+001
1.105883e+003,1.753830e+001
1.106847e+003,1.777970e+001
1.107812e+003,1.816427e+001
1.108776e+003,1.759893e+001
1.109740e+003,1.566232e+001
1.110704e+003,1.355167e+001
1.111668e+003,1.194872e+001
1.112633e+003,1.093145e+001
1.113597e+003,1.080363e+001
1.114561e+003,1.203230e+001
1.115525e+003,1.299297e+001
1.116490e+003,1.295602e+001
1.117454e+003,1.272311e+001
1.118418e+003,1.310368e+001
1.119382e+003,1.380217e+001
1.120347e+003,1.375993e+001
1.121311e+003,1.227545e+001
1.122275e+003,1.007560e+001
1.123239e+003,8.741531e+000
1.124203e+003,8.356949e+000
1.125168e+003,8.428940e+000
1.126132e+003,9.036102e+000
1.127096e+003,9.877914e+000
1.128060e+003,1.098421e+001
1.129025e+003,1.214193e+001
1.129989e+003,1.231645e+001
1.130953e+003,1.086921e+001
1.131917e+003,9.657669e+000
1.132882e+003,9.214417e+000
1.133846e+003,9.140541e+000
1.134810e+003,9.260208e+000
1.135774e+003,9.544159e+000
1.136739e+003,1.011178e+001
1.137703e+003,1.101093e+001
1.138667e+003,1.186256e+001
1.139631e+003,1.185098e+001
1.140595e+003,1.112949e+001
1.141560e+003,1.121877e+001
1.142524e+003,1.241541e+001
1.143488e+003,1.379876e+001
1.144452e+003,1.489251e+001
1.145417e+003,1.565448e+001
1.146381e+003,1.590831e+001
1.147345e+003,1.545134e+001
1.148309e+003,1.489824e+001
1.149274e+003,1.337552e+001
1.150238e+003,1.287815e+001
1.151202e+003,1.540413e+001
1.152166e+003,1.955148e+001
1.153130e+003,2.276114e+001
1.154095e+003,2.377538e+001
1.155059e+003,2.333077e+001
1.156023e+003,2.243499e+001
1.156987e+003,2.116315e+001
1.157952e+003,1.978405e+001
1.158916e+003,1.833544e+001
1.159880e+003,1.715336e+001
1.160844e+003,1.645831e+001
1.161809e+003,1.595021e+001
1.162773e+003,1.499567e+001
1.163737e+003,1.339402e+001
1.164701e+003,1.231030e+001
1.165666e+003,1.236926e+001
1.166630e+003,1.274803e+001
1.167594e+003,1.349744e+001
1.168558e+003,1.422496e+001
1.169522e+003,1.450755e+001
1.170487e+003,1.420710e+001
1.171451e+003,1.335219e+001
1.172415e+003,1.179973e+001
1.173379e+003,9.886444e+000
1.174344e+003,9.753456e+000
1.175308e+003,1.152676e+001
1.176272e+003,1.273621e+001
1.177236e+003,1.228257e+001
1.178201e+003,1.115867e+001
1.179165e+003,1.067709e+001
1.180129e+003,1.080254e+001
1.181093e+003,1.035817e+001
1.182057e+003,8.453697e+000
1.183022e+003,7.009056e+000
1.183986e+003,6.823799e+000
1.184950e+003,7.310562e+000
1.185914e+003,8.186333e+000
1.186879e+003,9.192955e+000
1.187843e+003,9.964912e+000
1.188807e+003,1.019344e+001
1.189771e+003,9.844887e+000
1.190736e+003,8.713829e+000
1.191700e+003,6.664680e+000
1.192664e+003,5.251862e+000
1.193628e+003,4.820122e+000
1.194593e+003,4.845444e+000
1.195557e+003,5.253677e+000
1.196521e+003,5.814896e+000
1.197485e+003,5.555046e+000
1.198449e+003,3.895546e+000
1.199414e+003,2.837379e+000
1.200378e+003,3.900070e+000
1.201342e+003,5.303505e+000
1.202306e+003,6.004120e+000
1.203271e+003,6.100487e+000
1.204235e+003,6.182648e+000
1.205199e+003,6.519119e+000
1.206163e+003,6.683464e+000
1.207128e+003,5.893181e+000
1.208092e+003,4.089157e+000
1.209056e+003,2.695915e+000
1.210020e+003,1.648682e+000
1.210984e+003,1.032944e+000
1.211949e+003,8.734283e-001
1.212913e+003,1.131538e+000
1.213877e+003,2.148003e+000
1.214841e+003,3.885208e+000
1.215806e+003,4.644524e+000
1.216770e+003,3.335518e+000
1.217734e+003,1.498367e+000
1.218698e+003,-1.722717e-001
1.219663e+003,-1.495026e+000
1.220627e+003,-2.217819e+000
1.221591e+003,-2.315445e+000
1.222555e+003,-1.840500e+000
1.223520e+003,-7.913284e-001
1.224484e+003,5.680161e-001
1.225448e+003,8.406830e-001
1.226412e+003,-9.042435e-001
1.227376e+003,-1.670746e+000
1.228341e+003,-8.626099e-001
1.229305e+003,1.695175e-001
1.230269e+003,8.881454e-001
1.231233e+003,1.250999e+000
1.232198e+003,1.095734e+000
1.233162e+003,3.587952e-001
1.234126e+003,4.997253e-002
1.235090e+003,1.584236e+000
1.236055e+003,3.128555e+000
1.237019e+003,2.298447e+000
1.237983e+003,-1.137085e-001
1.238947e+003,-1.858894e+000
1.239911e+003,-1.970947e+000
1.240876e+003,-1.263878e+000
1.241840e+003,-9.166336e-001
1.242804e+003,-9.315643e-001
1.243768e+003,-1.175995e+000
1.244733e+003,-2.506050e+000
1.245697e+003,-2.853065e+000
1.246661e+003,-1.357231e+000
1.247625e+003,4.256668e-001
1.248590e+003,1.668022e+000
1.249554e+003,2.218948e+000
1.250518e+003,1.813576e+000
1.251482e+003,2.044678e-001
1.252447e+003,-1.432747e+000
1.253411e+003,-1.347183e+000
1.254375e+003,-3.458099e-001
1.255339e+003,-4.921036e-001
1.256303e+003,-1.762405e+000
1.257268e+003,-2.215736e+000
1.258232e+003,-4.970169e-001
1.259196e+003,2.191025e+000
1.260160e+003,3.464958e+000
1.261125e+003,3.144524e+000
1.262089e+003,2.813049e+000
1.263053e+003,2.433090e+000
1.264017e+003,2.182304e+000
1.264982e+003,2.043983e+000
1.265946e+003,2.134468e+000
1.266910e+003,2.925323e+000
1.267874e+003,4.086197e+000
1.268839e+003,4.463028e+000
1.269803e+003,3.280022e+000
1.270767e+003,1.365204e+000
1.271731e+003,2.776871e-001
1.272695e+003,5.647278e-002
1.273660e+003,-5.068970e-002
1.274624e+003,-1.787415e-001
1.275588e+003,-1.290131e-001
1.276552e+003,3.725128e-001
1.277517e+003,1.150154e+000
1.278481e+003,1.886169e+000
1.279445e+003,2.564575e+000
1.280409e+003,2.906677e+000
1.281374e+003,2.593842e+000
1.282338e+003,2.230675e+000
1.283302e+003,2.192749e+000
1.284266e+003,2.229515e+000
1.285230e+003,2.000175e+000
1.286195e+003,1.498657e+000
1.287159e+003,1.034462e+000
1.288123e+003,8.883133e-001
1.289087e+003,9.426651e-001
1.290052e+003,6.962891e-001
1.291016e+003,-1.625290e-001
1.291980e+003,-2.866592e-001
1.292944e+003,1.038887e+000
1.293909e+003,2.006210e+000
1.294873e+003,1.663528e+000
1.295837e+003,8.010025e-001
1.296801e+003,5.098572e-001
1.297766e+003,9.165726e-001
1.298730e+003,1.375587e+000
1.299694e+003,1.520485e+000
1.300658e+003,1.560974e+000
1.301622e+003,2.012505e+000
1.302587e+003,2.478905e+000
1.303551e+003,1.949249e+000
1.304515e+003,4.174042e-001
1.305479e+003,-4.946213e-001
1.306444e+003,7.071686e-001
1.307408e+003,3.135704e+000
1.308372e+003,3.727219e+000
1.309336e+003,1.708817e+000
1.310301e+003,2.095032e-001
1.311265e+003,-5.605011e-001
1.312229e+003,-8.068619e-001
1.313193e+003,-3.086853e-002
1.314157e+003,8.613434e-001
1.315122e+003,4.713669e-001
1.316086e+003,-9.237137e-001
1.317050e+003,-1.147995e+000
1.318014e+003,1.384804e+000
1.318979e+003,4.663490e+000
1.319943e+003,4.844200e+000
1.320907e+003,2.285698e+000
1.321871e+003,3.850250e-001
1.322836e+003,-8.641510e-001
1.323800e+003,-1.261978e+000
1.324764e+003,-3.270721e-002
1.325728e+003,1.796120e+000
1.326693e+003,2.420479e+000
1.327657e+003,1.744667e+000
1.328621e+003,6.904297e-001
1.329585e+003,-8.290787e-001
1.330549e+003,-1.810844e+000
1.331514e+003,-1.789864e+000
1.332478e+003,-1.303505e+000
1.333442e+003,-7.165756e-001
1.334406e+003,-8.893585e-002
1.335371e+003,6.656265e-001
1.336335e+003,1.584770e+000
1.337299e+003,2.487396e+000
1.338263e+003,3.034912e+000
1.339228e+003,3.254494e+000
1.340192e+003,2.855202e+000
1.341156e+003,1.226494e+000
1.342120e+003,-8.831787e-002
1.343084e+003,-9.294052e-001
1.344049e+003,-1.427467e+000
1.345013e+003,-1.531349e+000
1.345977e+003,-1.312210e+000
1.346941e+003,-9.388428e-001
1.347906e+003,-4.572906e-001
1.348870e+003,-1.536331e-001
1.349834e+003,-5.510178e-001
1.350798e+003,-1.130783e+000
1.351763e+003,-6.467590e-001
1.352727e+003,6.868744e-001
1.353691e+003,1.338905e+000
1.354655e+003,4.948807e-001
1.355620e+003,-2.546082e-001
1.356584e+003,1.624542e+000
1.357548e+003,5.670197e+000
1.358512e+003,7.348785e+000
1.359476e+003,5.657448e+000
1.360441e+003,3.615555e+000
1.361405e+003,1.080666e+000
1.362369e+003,-5.853119e-001
1.363333e+003,-1.636887e-001
1.364298e+003,1.297707e+000
1.365262e+003,2.532158e+000
1.366226e+003,3.074646e+000
1.367190e+003,2.852036e+000
1.368155e+003,1.765121e+000
1.369119e+003,3.320389e-001
1.370083e+003,2.596359e-001
1.371047e+003,2.036766e+000
1.372011e+003,3.313110e+000
1.372976e+003,4.088097e+000
1.373940e+003,4.274399e+000
1.374904e+003,3.548523e+000
1.375868e+003,2.456001e+000
1.376833e+003,1.461281e+000
1.377797e+003,6.958313e-001
1.378761e+003,6.691589e-001
1.379725e+003,1.887718e+000
1.380690e+003,3.018051e+000
1.381654e+003,2.163094e+000
1.382618e+003,6.446152e-001
1.383582e+003,4.922333e-001
1.384547e+003,1.611732e+000
1.385511e+003,2.275230e+000
1.386475e+003,1.442474e+000
1.387439e+003,2.653046e-001
1.388403e+003,7.386780e-001
1.389368e+003,2.849167e+000
1.390332e+003,4.177238e+000
1.391296e+003,4.607391e+000
1.392260e+003,4.391296e+000
1.393225e+003,3.067650e+000
1.394189e+003,1.728622e+000
1.395153e+003,6.696777e-001
1.396117e+003,1.546326e-001
1.397082e+003,8.240204e-001
1.398046e+003,2.561775e+000
1.399010e+003,4.054321e+000
1.399974e+003,4.039749e+000
1.400938e+003,2.986588e+000
1.401903e+003,2.575539e+000
1.402867e+003,3.201477e+000
1.403831e+003,3.467407e+000
1.404795e+003,2.944847e+000
1.405760e+003,2.509315e+000
1.406724e+003,2.481644e+000
1.407688e+003,2.488213e+000
1.408652e+003,1.945702e+000
1.409617e+003,1.101105e+000
1.410581e+003,1.238876e+000
1.411545e+003,3.060463e+000
1.412509e+003,4.904724e+000
1.413474e+003,4.976707e+000
1.414438e+003,4.037262e+000
1.415402e+003,3.368889e+000
1.416366e+003,3.049461e+000
1.417330e+003,3.036285e+000
1.418295e+003,3.415833e+000
1.419259e+003,3.719315e+000
1.420223e+003,3.149605e+000
1.421187e+003,1.889389e+000
1.422152e+003,1.384056e+000
1.423116e+003,1.944916e+000
1.424080e+003,2.549828e+000
1.425044e+003,2.909653e+000
1.426009e+003,3.158577e+000
1.426973e+003,3.388924e+000
1.427937e+003,3.506035e+000
1.428901e+003,3.231468e+000
1.429865e+003,2.735817e+000
1.430830e+003,2.747368e+000
1.431794e+003,3.696335e+000
1.432758e+003,4.818542e+000
1.433722e+003,4.606255e+000
1.434687e+003,2.976624e+000
1.435651e+003,2.241257e+000
1.436615e+003,2.944580e+000
1.437579e+003,3.328415e+000
1.438544e+003,3.087006e+000
1.439508e+003,2.698318e+000
1.440472e+003,2.408241e+000
1.441436e+003,2.306084e+000
1.442401e+003,2.593689e+000
1.443365e+003,3.222404e+000
1.444329e+003,3.470604e+000
1.445293e+003,2.684891e+000
1.446257e+003,1.626907e+000
1.447222e+003,1.812386e+000
1.448186e+003,3.015030e+000
1.449150e+003,4.207901e+000
1.450114e+003,5.487183e+000
1.451079e+003,5.946175e+000
1.452043e+003,4.365913e+000
1.453007e+003,2.311691e+000
1.453971e+003,2.206032e+000
1.454936e+003,3.735832e+000
1.455900e+003,4.483124e+000
1.456864e+003,3.877457e+000
1.457828e+003,2.803589e+000
1.458792e+003,8.985596e-001
1.459757e+003,-5.377655e-001
1.460721e+003,1.411438e-001
1.461685e+003,1.956253e+000
1.462649e+003,2.747528e+000
1.463614e+003,2.056183e+000
1.464578e+003,1.431427e+000
1.465542e+003,2.319321e+000
1.466506e+003,4.033142e+000
1.467471e+003,4.584175e+000
1.468435e+003,3.830605e+000
1.469399e+003,2.965164e+000
1.470363e+003,1.353249e+000
1.471328e+003,5.185928e-001
1.472292e+003,1.293968e+000
1.473256e+003,2.343925e+000
1.474220e+003,2.857811e+000
1.475184e+003,2.967056e+000
1.476149e+003,3.045372e+000
1.477113e+003,3.202896e+000
1.478077e+003,3.384689e+000
1.479041e+003,3.597572e+000
1.480006e+003,3.737366e+000
1.480970e+003,3.266884e+000
1.481934e+003,1.727776e+000
1.482898e+003,1.343956e+000
1.483863e+003,3.850441e+000
1.484827e+003,4.926414e+000
1.485791e+003,1.856079e+000
1.486755e+003,-1.650330e+000
1.487719e+003,-1.913414e+000
1.488684e+003,2.242432e-001
1.489648e+003,1.746521e+000
1.490612e+003,1.720886e+000
1.491576e+003,1.598846e+000
1.492541e+003,2.635986e+000
1.493505e+003,4.152390e+000
1.494469e+003,4.438354e+000
1.495433e+003,3.707718e+000
1.496398e+003,3.869270e+000
1.497362e+003,5.705818e+000
1.498326e+003,6.951546e+000
1.499290e+003,5.783073e+000
1.500255e+003,3.803978e+000
1.501219e+003,2.985725e+000
1.502183e+003,3.299828e+000
1.503147e+003,4.481506e+000
1.504111e+003,6.713882e+000
1.505076e+003,8.542038e+000
1.506040e+003,8.736725e+000
1.507004e+003,8.577065e+000
1.507968e+003,9.536034e+000
1.508933e+003,1.106881e+001
1.509897e+003,1.183939e+001
1.510861e+003,1.173684e+001
1.511825e+003,1.231603e+001
1.512790e+003,1.482101e+001
1.513754e+003,1.816816e+001
1.514718e+003,2.040144e+001
1.515682e+003,2.148663e+001
1.516646e+003,2.221371e+001
1.517611e+003,2.254489e+001
1.518575e+003,2.292256e+001
1.519539e+003,2.353964e+001
1.520503e+003,2.427046e+001
1.521468e+003,2.535913e+001
1.522432e+003,2.629897e+001
1.523396e+003,2.651201e+001
1.524360e+003,2.585654e+001
1.525325e+003,2.418126e+001
1.526289e+003,2.140771e+001
1.527253e+003,1.869547e+001
1.528217e+003,1.830532e+001
1.529182e+003,2.031876e+001
1.530146e+003,2.068159e+001
1.531110e+003,1.810735e+001
1.532074e+003,1.621216e+001
1.533039e+003,1.576965e+001
1.534003e+003,1.515806e+001
1.534967e+003,1.345532e+001
1.535931e+003,1.154099e+001
1.536896e+003,1.063820e+001
1.537860e+003,1.055477e+001
1.538824e+003,1.002661e+001
1.539788e+003,8.401741e+000
1.540752e+003,6.322350e+000
1.541717e+003,4.580269e+000
1.542681e+003,3.325439e+000
1.543645e+003,3.332634e+000
1.544609e+003,5.355690e+000
1.545573e+003,6.902512e+000
1.546538e+003,7.570641e+000
1.547502e+003,8.140968e+000
1.548466e+003,9.027100e+000
1.549430e+003,9.997162e+000
1.550395e+003,1.101144e+001
1.551359e+003,1.178291e+001
1.552323e+003,1.149914e+001
1.553287e+003,9.973221e+000
1.554252e+003,8.505310e+000
1.555216e+003,8.292343e+000
1.556180e+003,8.724815e+000
1.557144e+003,8.392189e+000
1.558109e+003,7.283188e+000
1.559073e+003,6.120087e+000
1.560037e+003,4.374207e+000
1.561001e+003,3.547119e+000
1.561966e+003,5.100227e+000
1.562930e+003,7.028069e+000
1.563894e+003,7.182732e+000
1.564858e+003,6.228973e+000
1.565823e+003,6.104004e+000
1.566787e+003,7.132896e+000
1.567751e+003,8.076050e+000
1.568715e+003,8.287064e+000
1.569679e+003,8.061279e+000
1.570644e+003,7.534134e+000
1.571608e+003,6.855667e+000
1.572572e+003,6.625206e+000
1.573536e+003,6.911514e+000
1.574500e+003,7.079948e+000
1.575465e+003,6.617371e+000
1.576429e+003,6.413544e+000
1.577393e+003,7.560692e+000
1.578357e+003,9.266754e+000
1.579322e+003,9.981972e+000
1.580286e+003,9.669060e+000
1.581250e+003,9.145523e+000
1.582214e+003,8.537949e+000
1.583179e+003,8.212952e+000
1.584143e+003,8.549316e+000
1.585107e+003,9.167458e+000
1.586071e+003,9.823433e+000
1.587036e+003,1.043417e+001
1.588000e+003,1.042035e+001
1.588964e+003,9.572914e+000
1.589928e+003,8.742966e+000
1.590893e+003,8.531639e+000
1.591857e+003,8.639336e+000
1.592821e+003,8.425926e+000
1.593785e+003,8.083832e+000
1.594750e+003,9.012466e+000
1.595714e+003,1.171916e+001
1.596678e+003,1.317892e+001
1.597642e+003,1.108482e+001
1.598606e+003,9.030861e+000
1.599571e+003,1.060206e+001
1.600535e+003,1.352087e+001
1.601499e+003,1.488281e+001
1.602463e+003,1.462547e+001
1.603427e+003,1.395522e+001
1.604392e+003,1.330554e+001
1.605356e+003,1.285519e+001
1.606320e+003,1.269743e+001
1.607284e+003,1.290709e+001
1.608249e+003,1.416094e+001
1.609213e+003,1.654308e+001
1.610177e+003,1.678262e+001
1.611141e+003,1.316093e+001
1.612106e+003,1.033000e+001
1.613070e+003,1.139479e+001
1.614034e+003,1.330038e+001
1.614998e+003,1.419717e+001
1.615963e+003,1.427700e+001
1.616927e+003,1.375969e+001
1.617891e+003,1.283626e+001
1.618855e+003,1.225888e+001
1.619820e+003,1.249829e+001
1.620784e+003,1.297276e+001
1.621748e+003,1.266500e+001
1.622712e+003,1.194421e+001
1.623677e+003,1.305862e+001
1.624641e+003,1.661160e+001
1.625605e+003,1.845324e+001
1.626569e+003,1.636854e+001
1.627533e+003,1.436108e+001
1.628498e+003,1.495780e+001
1.629462e+003,1.608179e+001
1.630426e+003,1.602282e+001
1.631390e+003,1.502676e+001
1.632354e+003,1.361868e+001
1.633319e+003,1.210287e+001
1.634283e+003,1.157139e+001
1.635247e+003,1.302666e+001
1.636211e+003,1.527466e+001
1.637176e+003,1.614695e+001
1.638140e+003,1.576518e+001
1.639104e+003,1.572963e+001
1.640068e+003,1.632057e+001
1.641033e+003,1.616347e+001
1.641997e+003,1.391774e+001
1.642961e+003,1.236565e+001
1.643925e+003,1.369379e+001
1.644890e+003,1.564132e+001
1.645854e+003,1.584122e+001
1.646818e+003,1.471716e+001
1.647782e+003,1.386309e+001
1.648747e+003,1.378713e+001
1.649711e+003,1.406209e+001
1.650675e+003,1.444251e+001
1.651639e+003,1.482358e+001
1.652604e+003,1.485627e+001
1.653568e+003,1.452462e+001
1.654532e+003,1.429803e+001
1.655496e+003,1.421138e+001
1.656460e+003,1.418946e+001
1.657425e+003,1.417068e+001
1.658389e+003,1.432472e+001
1.659353e+003,1.514971e+001
1.660317e+003,1.587292e+001
1.661281e+003,1.526614e+001
1.662246e+003,1.382475e+001
1.663210e+003,1.338829e+001
1.664174e+003,1.452788e+001
1.665138e+003,1.555804e+001
1.666103e+003,1.498174e+001
1.667067e+003,1.342126e+001
1.668031e+003,1.184250e+001
1.668995e+003,1.034097e+001
1.669960e+003,1.029008e+001
1.670924e+003,1.229407e+001
1.671888e+003,1.367810e+001
1.672852e+003,1.348482e+001
1.673817e+003,1.259077e+001
1.674781e+003,1.101875e+001
1.675745e+003,9.473770e+000
1.676709e+003,8.929077e+000
1.677674e+003,9.100555e+000
1.678638e+003,8.757462e+000
1.679602e+003,7.537506e+000
1.680566e+003,6.890793e+000
1.681531e+003,8.365639e+000
1.682495e+003,1.057722e+001
1.683459e+003,1.098991e+001
1.684423e+003,9.854317e+000
1.685387e+003,8.909973e+000
1.686352e+003,8.300903e+000
1.687316e+003,8.139305e+000
1.688280e+003,8.751869e+000
1.689244e+003,9.263168e+000
1.690208e+003,8.711586e+000
1.691173e+003,7.899445e+000
1.692137e+003,7.805527e+000
1.693101e+003,8.277863e+000
1.694065e+003,8.521492e+000
1.695030e+003,8.280594e+000
1.695994e+003,8.216484e+000
1.696958e+003,9.130623e+000
1.697922e+003,1.000575e+001
1.698887e+003,9.312912e+000
1.699851e+003,7.597374e+000
1.700815e+003,6.505798e+000
1.701779e+003,6.146523e+000
1.702744e+003,5.673706e+000
1.703708e+003,4.804550e+000
1.704672e+003,4.104774e+000
1.705636e+003,3.926163e+000
1.706601e+003,4.059082e+000
1.707565e+003,4.588837e+000
1.708529e+003,5.269127e+000
1.709493e+003,4.961067e+000
1.710458e+003,3.379448e+000
1.711422e+003,2.213455e+000
1.712386e+003,2.475838e+000
1.713350e+003,3.091782e+000
1.714314e+003,3.054047e+000
1.715279e+003,2.793488e+000
1.716243e+003,3.366722e+000
1.717207e+003,4.534973e+000
1.718171e+003,4.598221e+000
1.719135e+003,3.101433e+000
1.720100e+003,2.094307e+000
1.721064e+003,3.138191e+000
1.722028e+003,4.656944e+000
1.722992e+003,4.236671e+000
1.723957e+003,2.394371e+000
1.724921e+003,1.904381e+000
1.725885e+003,2.927040e+000
1.726849e+003,3.539932e+000
1.727814e+003,3.229210e+000
1.728778e+003,2.954720e+000
1.729742e+003,3.326958e+000
1.730706e+003,3.700584e+000
1.731671e+003,3.206657e+000
1.732635e+003,2.199852e+000
1.733599e+003,1.571960e+000
1.734563e+003,1.540543e+000
1.735528e+003,1.893967e+000
1.736492e+003,2.492210e+000
1.737456e+003,3.026085e+000
1.738420e+003,3.121742e+000
1.739385e+003,2.837402e+000
1.740349e+003,2.510330e+000
1.741313e+003,2.074455e+000
1.742277e+003,2.148148e+000
1.743241e+003,3.476196e+000
1.744206e+003,4.207100e+000
1.745170e+003,3.751823e+000
1.746134e+003,3.000908e+000
1.747098e+003,1.810692e+000
1.748063e+003,1.049599e+000
1.749027e+003,2.407036e+000
1.749991e+003,4.926933e+000
1.750955e+003,5.720032e+000
1.751919e+003,4.020454e+000
1.752884e+003,2.011414e+000
1.753848e+003,1.498322e+000
1.754812e+003,1.916786e+000
1.755776e+003,2.306358e+000
1.756741e+003,2.685318e+000
1.757705e+003,1.880989e+000
1.758669e+003,-9.585190e-001
1.759633e+003,-2.581131e+000
1.760598e+003,-1.781731e+000
1.761562e+003,-1.058563e+000
1.762526e+003,-1.482948e+000
1.763490e+003,-1.812477e+000
1.764455e+003,-9.061813e-001
1.765419e+003,5.728455e-001
1.766383e+003,1.526260e+000
1.767347e+003,1.809944e+000
1.768312e+003,1.978203e+000
1.769276e+003,2.285301e+000
1.770240e+003,2.170944e+000
1.771204e+003,8.330841e-001
1.772168e+003,-9.662094e-001
1.773133e+003,-1.514519e+000
1.774097e+003,-9.312210e-001
1.775061e+003,-3.732147e-001
1.776025e+003,-6.103516e-003
1.776990e+003,4.645767e-001
1.777954e+003,1.577332e+000
1.778918e+003,1.971802e+000
1.779882e+003,-4.803772e-001
1.780846e+003,-3.375046e+000
1.781811e+003,-2.793327e+000
1.782775e+003,1.046066e-001
1.783739e+003,1.250824e+000
1.784703e+003,-5.429840e-002
1.785668e+003,-1.281013e+000
1.786632e+003,-1.354675e+000
1.787596e+003,-1.213577e+000
1.788560e+003,-1.640152e+000
1.789525e+003,-2.062462e+000
1.790489e+003,-1.569687e+000
1.791453e+003,-4.645386e-001
1.792417e+003,3.600845e-001
1.793382e+003,6.775589e-001
1.794346e+003,3.867340e-001
1.795310e+003,-6.285706e-001
1.796274e+003,-1.613708e+000
1.797239e+003,-1.660820e+000
1.798203e+003,-9.486771e-001
1.799167e+003,-1.734238e-001
1.800131e+003,6.579666e-001
1.801095e+003,8.593216e-001
1.802060e+003,-3.027420e-001
1.803024e+003,-6.608200e-001
1.803988e+003,3.466644e-001
1.804952e+003,1.685463e+000
1.805917e+003,3.536301e+000
1.806881e+003,4.913506e+000
1.807845e+003,4.449432e+000
1.808809e+003,2.958878e+000
1.809773e+003,2.279602e+000
1.810738e+003,2.697639e+000
1.811702e+003,2.934013e+000
1.812666e+003,2.190613e+000
1.813630e+003,1.121078e+000
1.814595e+003,5.811310e-001
1.815559e+003,4.679413e-001
1.816523e+003,4.606934e-001
1.817487e+003,5.801544e-001
1.818452e+003,7.182922e-001
1.819416e+003,9.342651e-001
1.820380e+003,1.135178e+000
1.821344e+003,1.341461e+000
1.822309e+003,1.354492e+000
1.823273e+003,9.100647e-001
1.824237e+003,4.157867e-001
1.825201e+003,2.977295e-001
1.826166e+003,4.259720e-001
1.827130e+003,4.453583e-001
1.828094e+003,2.763748e-001
1.829058e+003,7.178497e-002
1.830022e+003,-8.014679e-002
1.830987e+003,-1.917267e-001
1.831951e+003,-1.391449e-001
1.832915e+003,-1.468277e-001
1.833879e+003,-6.442184e-001
1.834844e+003,-1.479935e+000
1.835808e+003,-2.395088e+000
1.836772e+003,-3.216393e+000
1.837736e+003,-2.869339e+000
1.838700e+003,-8.474579e-001
1.839665e+003,7.719040e-001
1.840629e+003,-1.099091e-001
1.841593e+003,-1.945862e+000
1.842557e+003,-1.275589e+000
1.843522e+003,1.843102e+000
1.844486e+003,3.087105e+000
1.845450e+003,1.405899e+000
1.846414e+003,-5.409241e-002
1.847379e+003,-2.295074e+000
1.848343e+003,-3.087646e+000
1.849307e+003,-4.222031e-001
1.850271e+003,2.548622e+000
1.851236e+003,3.920654e+000
1.852200e+003,3.996277e+000
1.853164e+003,2.904076e+000
1.854128e+003,1.187691e+000
1.855093e+003,4.012299e-002
1.856057e+003,-3.831482e-002
1.857021e+003,6.442413e-001
1.857985e+003,1.936829e+000
1.858949e+003,3.154449e+000
1.859914e+003,2.781616e+000
1.860878e+003,1.252640e+000
1.861842e+003,1.165962e+000
1.862806e+003,2.561249e+000
1.863771e+003,3.316040e+000
1.864735e+003,2.964691e+000
1.865699e+003,2.404472e+000
1.866663e+003,2.037003e+000
1.867627e+003,1.641533e+000
1.868592e+003,8.841629e-001
1.869556e+003,-4.585266e-002
1.870520e+003,-8.190994e-001
1.871484e+003,-1.395782e+000
1.872449e+003,-1.375542e+000
1.873413e+003,-3.786392e-001
1.874377e+003,4.680328e-001
1.875341e+003,8.432617e-001
1.876306e+003,7.471085e-001
1.877270e+003,-5.173721e-001
1.878234e+003,-1.655640e+000
1.879198e+003,-9.802551e-001
1.880163e+003,6.544495e-001
1.881127e+003,1.685547e+000
1.882091e+003,1.858040e+000
1.883055e+003,1.459679e+000
1.884020e+003,7.009811e-001
1.884984e+003,1.028214e-001
1.885948e+003,1.520004e-001
1.886912e+003,5.030518e-001
1.887876e+003,4.193344e-001
1.888841e+003,-2.256775e-002
1.889805e+003,2.194519e-001
1.890769e+003,1.450745e+000
1.891733e+003,1.581017e+000
1.892698e+003,-3.492432e-001
1.893662e+003,-1.608780e+000
1.894626e+003,-9.762192e-001
1.895590e+003,2.424850e-001
1.896554e+003,1.458862e+000
1.897519e+003,2.586220e+000
1.898483e+003,3.824074e+000
1.899447e+003,4.784599e+000
1.900411e+003,4.026642e+000
1.901376e+003,1.199150e+000
1.902340e+003,-8.661423e-001
1.903304e+003,-8.692398e-001
1.904268e+003,-2.622986e-001
1.905233e+003,2.769089e-001
1.906197e+003,8.412094e-001
1.907161e+003,2.070580e+000
1.908125e+003,3.140373e+000
1.909090e+003,1.815857e+000
1.910054e+003,-1.221535e+000
1.911018e+003,-2.423103e+000
1.911982e+003,-7.741470e-001
1.912947e+003,1.090492e+000
1.913911e+003,1.221954e+000
1.914875e+003,9.292603e-001
1.915839e+003,2.378654e+000
1.916803e+003,4.902870e+000
1.917768e+003,5.145760e+000
1.918732e+003,2.755981e+000
1.919696e+003,4.771576e-001
1.920660e+003,-2.119553e+000
1.921625e+003,-3.081245e+000
1.922589e+003,-1.059669e+000
1.923553e+003,1.088631e+000
1.924517e+003,2.167397e+000
1.925481e+003,2.458389e+000
1.926446e+003,1.621422e+000
1.927410e+003,4.043350e-001
1.928374e+003,4.130707e-001
1.929338e+003,1.616409e+000
1.930303e+003,2.381516e+000
1.931267e+003,2.233772e+000
1.932231e+003,2.107491e+000
1.933195e+003,2.741905e+000
1.934160e+003,3.054428e+000
1.935124e+003,1.388084e+000
1.936088e+003,-3.764343e-001
1.937052e+003,8.898544e-001
1.938017e+003,3.730598e+000
1.938981e+003,4.242050e+000
1.939945e+003,2.252258e+000
1.940909e+003,8.129425e-001
1.941874e+003,1.272247e+000
1.942838e+003,2.106323e+000
1.943802e+003,1.929504e+000
1.944766e+003,1.351997e+000
1.945730e+003,1.547180e+000
1.946695e+003,2.359390e+000
1.947659e+003,2.718048e+000
1.948623e+003,2.542923e+000
1.949587e+003,2.826660e+000
1.950552e+003,3.996361e+000
1.951516e+003,4.312668e+000
1.952480e+003,2.664131e+000
1.953444e+003,1.195740e+000
1.954408e+003,1.739449e+000
1.955373e+003,2.883560e+000
1.956337e+003,2.461784e+000
1.957301e+003,1.081505e+000
1.958265e+003,7.537155e-001
1.959230e+003,1.636299e+000
1.960194e+003,2.662392e+000
1.961158e+003,4.034668e+000
1.962122e+003,4.836922e+000
1.963087e+003,4.616768e+000
1.964051e+003,4.053085e+000
1.965015e+003,3.212082e+000
1.965979e+003,2.594566e+000
1.966944e+003,2.899971e+000
1.967908e+003,3.586685e+000
1.968872e+003,3.778519e+000
1.969836e+003,3.302879e+000
1.970801e+003,2.096825e+000
1.971765e+003,2.499619e-001
1.972729e+003,-8.909073e-001
1.973693e+003,-9.840393e-002
1.974657e+003,1.709579e+000
1.975622e+003,3.517288e+000
1.976586e+003,5.100029e+000
1.977550e+003,5.824814e+000
1.978514e+003,5.813805e+000
1.979479e+003,5.781090e+000
1.980443e+003,5.798622e+000
1.981407e+003,5.310562e+000
1.982371e+003,4.110695e+000
1.983335e+003,2.562523e+000
1.984300e+003,7.531738e-001
1.985264e+003,-4.721832e-001
1.986228e+003,4.186783e-001
1.987192e+003,2.869667e+000
1.988157e+003,3.939651e+000
1.989121e+003,3.275780e+000
1.990085e+003,3.166451e+000
1.991049e+003,4.167542e+000
1.992014e+003,4.659546e+000
1.992978e+003,4.247398e+000
1.993942e+003,3.514824e+000
1.994906e+003,2.124702e+000
1.995871e+003,1.038872e+000
1.996835e+003,9.430008e-001
1.997799e+003,1.644447e+000
1.998763e+003,3.329842e+000
1.999728e+003,5.493134e+000
