5.003444e+002,2.881763e+001
5.013087e+002,2.546887e+001
5.022729e+002,2.285266e+001
5.032371e+002,2.157050e+001
5.042014e+002,2.152344e+001
5.051656e+002,2.257996e+001
5.061298e+002,2.336731e+001
5.070941e+002,2.244745e+001
5.080583e+002,1.910138e+001
5.090225e+002,1.642877e+001
5.099868e+002,1.424207e+001
5.109510e+002,1.259943e+001
5.119152e+002,1.189545e+001
5.128795e+002,1.226001e+001
5.138437e+002,1.213232e+001
5.148079e+002,9.961914e+000
5.157722e+002,8.361694e+000
5.167364e+002,8.848389e+000
5.177006e+002,1.106354e+001
5.186649e+002,1.283606e+001
5.196291e+002,1.102539e+001
5.205933e+002,8.719910e+000
5.215576e+002,9.180603e+000
5.225218e+002,1.208307e+001
5.234860e+002,1.515497e+001
5.244503e+002,1.480658e+001
5.254145e+002,1.029303e+001
5.263787e+002,7.781311e+000
5.273430e+002,8.029480e+000
5.283072e+002,9.741394e+000
5.292714e+002,1.107037e+001
5.302357e+002,1.130371e+001
5.311999e+002,1.092755e+001
5.321641e+002,1.091461e+001
5.331284e+002,1.098401e+001
5.340926e+002,1.054291e+001
5.350568e+002,9.071411e+000
5.360211e+002,7.074219e+000
5.369853e+002,5.300842e+000
5.379495e+002,4.146973e+000
5.389138e+002,3.788452e+000
5.398780e+002,4.208984e+000
5.408422e+002,5.290527e+000
5.418065e+002,7.743347e+000
5.427707e+002,1.114722e+001
5.437349e+002,1.148602e+001
5.446992e+002,6.409241e+000
5.456634e+002,-1.825745e+000
5.466276e+002,-4.977478e+000
5.475919e+002,4.473694e+000
5.485561e+002,1.040643e+001
5.495203e+002,9.847412e+000
5.504846e+002,5.821045e+000
5.514488e+002,2.943420e+000
5.524130e+002,3.543030e+000
5.533773e+002,4.499512e+000
5.543415e+002,3.932495e+000
5.553057e+002,2.879456e+000
5.562700e+002,2.509277e+000
5.572342e+002,3.451904e+000
5.581984e+002,4.601379e+000
5.591627e+002,3.109924e+000
5.601269e+002,3.673706e-001
5.610911e+002,-1.227051e+000
5.620554e+002,-5.172119e-001
5.630196e+002,1.945862e+000
5.639838e+002,2.996155e+000
5.649481e+002,1.572815e+000
5.659123e+002,3.601685e-001
5.668765e+002,4.591064e-001
5.678408e+002,1.796997e+000
5.688050e+002,3.423950e+000
5.697692e+002,5.083679e+000
5.707335e+002,5.282288e+000
5.716977e+002,2.947205e+000
5.726619e+002,-3.884277e-001
5.736262e+002,-2.681824e+000
5.745904e+002,-2.373901e+000
5.755546e+002,-7.617188e-001
5.765189e+002,-1.782227e-001
5.774831e+002,-7.540283e-001
5.784473e+002,-2.456787e+000
5.794116e+002,-5.029541e+000
5.803758e+002,-7.889221e+000
5.813400e+002,-7.538208e+000
5.823043e+002,-3.235107e+000
5.832685e+002,-6.671143e-001
5.842327e+002,-2.280640e+000
5.851970e+002,-6.983643e+000
5.861612e+002,-9.817261e+000
5.871254e+002,-9.355469e+000
5.880897e+002,-8.422852e+000
5.890539e+002,-7.591125e+000
5.900181e+002,-6.925964e+000
5.909824e+002,-6.235535e+000
5.919466e+002,-5.244873e+000
5.929108e+002,-3.965698e+000
5.938751e+002,-1.691772e+000
5.948393e+002,5.932007e-001
5.958035e+002,8.372192e-001
5.967678e+002,-2.299561e+000
5.977320e+002,-7.652344e+000
5.986962e+002,-6.347473e+000
5.996605e+002,1.227112e+000
6.006247e+002,6.852478e+000
6.015889e+002,5.622192e+000
6.025532e+002,-1.793396e+000
6.035174e+002,-6.213379e+000
6.044816e+002,-4.847412e+000
6.054459e+002,-2.918091e+000
6.064101e+002,-5.877075e-001
6.073743e+002,1.686951e+000
6.083386e+002,3.475830e+000
6.093028e+002,4.832825e+000
6.102670e+002,5.243652e+000
6.112313e+002,3.734375e+000
6.121955e+002,1.368591e+000
6.131597e+002,-3.374023e-001
6.141240e+002,-3.917236e-001
6.150882e+002,5.006104e-001
6.160524e+002,-8.993530e-001
6.170167e+002,-3.912720e+000
6.179809e+002,-5.782166e+000
6.189451e+002,-5.219482e+000
6.199094e+002,-2.855225e+000
6.208736e+002,-1.651367e+000
6.218378e+002,-1.720276e+000
6.228021e+002,-1.872131e+000
6.237663e+002,-2.041687e+000
6.247305e+002,-2.055969e+000
6.256948e+002,-1.725464e+000
6.266590e+002,-9.617310e-001
6.276232e+002,-1.294006e+000
6.285875e+002,-4.371399e+000
6.295517e+002,-7.639771e+000
6.305159e+002,-7.980957e+000
6.314802e+002,-4.040466e+000
6.324444e+002,1.508057e+000
6.334086e+002,8.966064e-001
6.343729e+002,-3.423279e+000
6.353371e+002,-6.020386e+000
6.363013e+002,-4.880249e+000
6.372656e+002,-1.302917e+000
6.382298e+002,4.972534e-001
6.391940e+002,-1.555054e+000
6.401583e+002,-3.242615e+000
6.411225e+002,-3.979553e+000
6.420867e+002,-3.536743e+000
6.430510e+002,-1.569214e+000
6.440152e+002,2.382263e+000
6.449794e+002,4.626770e+000
6.459437e+002,2.431702e+000
6.469079e+002,-1.190735e+000
6.478721e+002,-3.857178e+000
6.488364e+002,-4.615479e+000
6.498006e+002,-4.427002e+000
6.507648e+002,-5.770081e+000
6.517291e+002,-7.742920e+000
6.526933e+002,-7.141785e+000
6.536575e+002,-3.238403e+000
6.546218e+002,1.910400e+000
6.555860e+002,4.428284e+000
6.565502e+002,3.196350e+000
6.575145e+002,9.191284e-001
6.584787e+002,-3.809692e+000
6.594429e+002,-8.260986e+000
6.604072e+002,-1.043060e+001
6.613714e+002,-9.988098e+000
6.623356e+002,-7.664551e+000
6.632999e+002,-1.524109e+000
6.642641e+002,3.746338e+000
6.652283e+002,5.483154e+000
6.661926e+002,4.143250e+000
6.671568e+002,2.437256e+000
6.681210e+002,3.507813e+000
6.690853e+002,5.829346e+000
6.700495e+002,5.611694e+000
6.710137e+002,2.990173e+000
6.719780e+002,4.665527e-001
6.729422e+002,7.184448e-001
6.739064e+002,4.216736e+000
6.748707e+002,6.601868e+000
6.758349e+002,9.069153e+000
6.767991e+002,9.324646e+000
6.777634e+002,5.619446e+000
6.787276e+002,-1.056274e+000
6.796918e+002,-6.152649e+000
6.806561e+002,-9.195801e+000
6.816203e+002,-9.619446e+000
6.825845e+002,-4.819275e+000
6.835488e+002,2.261230e+000
6.845130e+002,6.876221e+000
6.854772e+002,5.354858e+000
6.864415e+002,1.172913e+000
6.874057e+002,1.933594e+000
6.883699e+002,5.482605e+000
6.893342e+002,7.567871e+000
6.902984e+002,5.829712e+000
6.912626e+002,1.195862e+000
6.922269e+002,-9.963379e-001
6.931911e+002,2.360779e+000
6.941553e+002,5.496765e+000
6.951196e+002,7.215454e+000
6.960838e+002,7.834229e+000
6.970480e+002,7.887512e+000
6.980123e+002,6.768555e+000
6.989765e+002,7.888916e+000
6.999407e+002,1.524530e+001
7.009050e+002,2.289038e+001
7.018692e+002,2.535840e+001
7.028334e+002,2.115259e+001
7.037977e+002,1.434338e+001
7.047619e+002,1.179645e+001
7.057261e+002,1.193414e+001
7.066904e+002,1.013788e+001
7.076546e+002,5.670410e+000
7.086188e+002,1.179932e+000
7.095831e+002,1.099121e+000
7.105473e+002,7.476501e+000
7.115115e+002,1.091986e+001
7.124758e+002,1.061224e+001
7.134400e+002,8.584290e+000
7.144042e+002,5.159607e+000
7.153685e+002,7.647705e-001
7.163327e+002,-1.341003e+000
7.172969e+002,3.906311e+000
7.182612e+002,8.645142e+000
7.192254e+002,8.653259e+000
7.201896e+002,5.316040e+000
7.211539e+002,2.480591e+000
7.221181e+002,3.635925e+000
7.230823e+002,6.478516e+000
7.240466e+002,4.130310e+000
7.250108e+002,-1.761292e+000
7.259750e+002,-6.722900e+000
7.269393e+002,-8.768372e+000
7.279035e+002,-8.520081e+000
7.288677e+002,-6.778992e+000
7.298320e+002,2.583313e+000
7.307962e+002,7.714050e+000
7.317604e+002,4.370117e+000
7.327247e+002,-2.131836e+000
7.336889e+002,-4.606079e+000
7.346531e+002,-1.082214e+000
7.356174e+002,2.604736e+000
7.365816e+002,4.574402e+000
7.375458e+002,6.193787e+000
7.385101e+002,8.665283e+000
7.394743e+002,1.209027e+001
7.404385e+002,1.523364e+001
7.414028e+002,1.564105e+001
7.423670e+002,1.296112e+001
7.433312e+002,1.115680e+001
7.442955e+002,1.133142e+001
7.452597e+002,1.276196e+001
7.462239e+002,1.444250e+001
7.471882e+002,1.643842e+001
7.481524e+002,1.710602e+001
7.491166e+002,1.268665e+001
7.500809e+002,9.843994e+000
7.510451e+002,1.303168e+001
7.520093e+002,2.030627e+001
7.529736e+002,2.452893e+001
7.539378e+002,2.167816e+001
7.549020e+002,1.721375e+001
7.558663e+002,1.411005e+001
7.568306e+002,1.193195e+001
7.577948e+002,9.153992e+000
7.587590e+002,4.900269e+000
7.597233e+002,6.575317e-001
7.606875e+002,3.933533e+000
7.616517e+002,1.395343e+001
7.626160e+002,2.011761e+001
7.635802e+002,1.865717e+001
7.645444e+002,1.326709e+001
7.655087e+002,1.163495e+001
7.664729e+002,1.596356e+001
7.674371e+002,1.902527e+001
7.684014e+002,2.054248e+001
7.693656e+002,2.068268e+001
7.703298e+002,1.888983e+001
7.712941e+002,1.552991e+001
7.722583e+002,1.296558e+001
7.732225e+002,1.374896e+001
7.741868e+002,1.520923e+001
7.751510e+002,1.520337e+001
7.761152e+002,1.407440e+001
7.770795e+002,1.291858e+001
7.780437e+002,1.262909e+001
7.790079e+002,1.295831e+001
7.799722e+002,1.312183e+001
7.809364e+002,1.313220e+001
7.819006e+002,1.291388e+001
7.828649e+002,1.272131e+001
7.838291e+002,1.282855e+001
7.847933e+002,1.338269e+001
7.857576e+002,1.463226e+001
7.867218e+002,1.408423e+001
7.876860e+002,1.047723e+001
7.886503e+002,6.791016e+000
7.896145e+002,5.680054e+000
7.905787e+002,7.721497e+000
7.915430e+002,1.063287e+001
7.925072e+002,1.177643e+001
7.934714e+002,1.159753e+001
7.944357e+002,1.118640e+001
7.953999e+002,1.095190e+001
7.963641e+002,1.068250e+001
7.973284e+002,9.890686e+000
7.982926e+002,8.518311e+000
7.992568e+002,8.023315e+000
8.002211e+002,7.171753e+000
8.011853e+002,6.482849e+000
8.021495e+002,7.492920e+000
8.031138e+002,1.038586e+001
8.040780e+002,1.339282e+001
8.050422e+002,1.547803e+001
8.060065e+002,1.716937e+001
8.069707e+002,1.809918e+001
8.079349e+002,1.846783e+001
8.088992e+002,1.850854e+001
8.098634e+002,1.860840e+001
8.108276e+002,1.947858e+001
8.117919e+002,2.285925e+001
8.127561e+002,2.597778e+001
8.137203e+002,2.422485e+001
8.146846e+002,1.776532e+001
8.156488e+002,1.073883e+001
8.166130e+002,7.734192e+000
8.175773e+002,8.997253e+000
8.185415e+002,1.210022e+001
8.195057e+002,1.944110e+001
8.204700e+002,2.438849e+001
8.214342e+002,2.327448e+001
8.223984e+002,1.809064e+001
8.233627e+002,1.423584e+001
8.243269e+002,1.398096e+001
8.252911e+002,1.494617e+001
8.262554e+002,1.557513e+001
8.272196e+002,1.626514e+001
8.281838e+002,1.730005e+001
8.291481e+002,1.879773e+001
8.301123e+002,2.088770e+001
8.310765e+002,2.422302e+001
8.320408e+002,2.824750e+001
8.330050e+002,2.936554e+001
8.339692e+002,2.704156e+001
8.349335e+002,2.332007e+001
8.358977e+002,2.000830e+001
8.368619e+002,1.724634e+001
8.378262e+002,1.619073e+001
8.387904e+002,1.744751e+001
8.397546e+002,1.884869e+001
8.407189e+002,1.986218e+001
8.416831e+002,2.078241e+001
8.426473e+002,2.246680e+001
8.436116e+002,2.563837e+001
8.445758e+002,2.854724e+001
8.455400e+002,2.786200e+001
8.465043e+002,2.546039e+001
8.474685e+002,2.444043e+001
8.484327e+002,2.589954e+001
8.493970e+002,2.841260e+001
8.503612e+002,2.887207e+001
8.513254e+002,2.657208e+001
8.522897e+002,2.501727e+001
8.532539e+002,2.399597e+001
8.542181e+002,2.315094e+001
8.551824e+002,2.320813e+001
8.561466e+002,2.450842e+001
8.571108e+002,2.527850e+001
8.580751e+002,2.178931e+001
8.590393e+002,1.960272e+001
8.600035e+002,2.292383e+001
8.609678e+002,2.812878e+001
8.619320e+002,3.013965e+001
8.628962e+002,2.714124e+001
8.638605e+002,2.376868e+001
8.648247e+002,2.906024e+001
8.657889e+002,3.852948e+001
8.667532e+002,4.240430e+001
8.677174e+002,3.940979e+001
8.686816e+002,3.376459e+001
8.696459e+002,3.031287e+001
8.706101e+002,2.972717e+001
8.715743e+002,2.867322e+001
8.725386e+002,2.473462e+001
8.735028e+002,2.346143e+001
8.744670e+002,2.781390e+001
8.754313e+002,3.466321e+001
8.763955e+002,3.820349e+001
8.773597e+002,3.580920e+001
8.783240e+002,3.372638e+001
8.792882e+002,3.757196e+001
8.802524e+002,4.259009e+001
8.812167e+002,4.489679e+001
8.821809e+002,4.367505e+001
8.831451e+002,4.023132e+001
8.841094e+002,3.611835e+001
8.850736e+002,3.197656e+001
8.860378e+002,3.138007e+001
8.870021e+002,3.448871e+001
8.879663e+002,3.858624e+001
8.889305e+002,4.251215e+001
8.898948e+002,4.600165e+001
8.908590e+002,4.854114e+001
8.918232e+002,5.080658e+001
8.927875e+002,5.159760e+001
8.937517e+002,4.964075e+001
8.947159e+002,4.710681e+001
8.956802e+002,4.495099e+001
8.966444e+002,4.341449e+001
8.976086e+002,4.315344e+001
8.985729e+002,4.658069e+001
8.995371e+002,5.125677e+001
9.005013e+002,5.197668e+001
9.014656e+002,4.954608e+001
9.024298e+002,4.722430e+001
9.033940e+002,4.706848e+001
9.043583e+002,4.856238e+001
9.053225e+002,5.089624e+001
9.062867e+002,5.593750e+001
9.072510e+002,5.843842e+001
9.082152e+002,5.784760e+001
9.091794e+002,5.612427e+001
9.101437e+002,5.441479e+001
9.111079e+002,5.281689e+001
9.120721e+002,5.285034e+001
9.130364e+002,5.801526e+001
9.140006e+002,6.183136e+001
9.149648e+002,5.981940e+001
9.159291e+002,5.417236e+001
9.168933e+002,4.908191e+001
9.178575e+002,4.727008e+001
9.188218e+002,4.785834e+001
9.197860e+002,4.941565e+001
9.207502e+002,5.182794e+001
9.217145e+002,5.193677e+001
9.226787e+002,4.830670e+001
9.236429e+002,4.415503e+001
9.246072e+002,4.375305e+001
9.255714e+002,4.763770e+001
9.265356e+002,5.028833e+001
9.274999e+002,5.011658e+001
9.284641e+002,4.886096e+001
9.294283e+002,4.637848e+001
9.303926e+002,4.380664e+001
9.313568e+002,4.311780e+001
9.323210e+002,4.543549e+001
9.332853e+002,4.812750e+001
9.342495e+002,4.562714e+001
9.352137e+002,4.078510e+001
9.361780e+002,3.889270e+001
9.371422e+002,4.143250e+001
9.381064e+002,4.538300e+001
9.390707e+002,4.599573e+001
9.400349e+002,4.191754e+001
9.409991e+002,3.988165e+001
9.419634e+002,4.132031e+001
9.429276e+002,4.238702e+001
9.438918e+002,4.199121e+001
9.448561e+002,4.084210e+001
9.458203e+002,4.006030e+001
9.467845e+002,4.001532e+001
9.477488e+002,4.093207e+001
9.487130e+002,4.381897e+001
9.496772e+002,4.688055e+001
9.506415e+002,4.823035e+001
9.516057e+002,4.815356e+001
9.525699e+002,4.872614e+001
9.535342e+002,5.200293e+001
9.544984e+002,5.708929e+001
9.554626e+002,5.749335e+001
9.564269e+002,5.322241e+001
9.573911e+002,4.961206e+001
9.583553e+002,4.732977e+001
9.593196e+002,4.648303e+001
9.602838e+002,4.785571e+001
9.612480e+002,5.208325e+001
9.622123e+002,5.512122e+001
9.631765e+002,5.524609e+001
9.641407e+002,5.492609e+001
9.651050e+002,5.506055e+001
9.660692e+002,5.531653e+001
9.670334e+002,5.522546e+001
9.679977e+002,5.481641e+001
9.689619e+002,5.429694e+001
9.699261e+002,5.246954e+001
9.708904e+002,4.950977e+001
9.718546e+002,4.713763e+001
9.728188e+002,4.542596e+001
9.737831e+002,4.457849e+001
9.747473e+002,4.513257e+001
9.757115e+002,4.741956e+001
9.766758e+002,5.040125e+001
9.776400e+002,5.742090e+001
9.786042e+002,6.193396e+001
9.795685e+002,5.986218e+001
9.805327e+002,5.470215e+001
9.814969e+002,5.184082e+001
9.824612e+002,5.342200e+001
9.834254e+002,5.602814e+001
9.843896e+002,5.522241e+001
9.853539e+002,5.336780e+001
9.863181e+002,5.344885e+001
9.872823e+002,5.500806e+001
9.882466e+002,5.595215e+001
9.892108e+002,5.495715e+001
9.901750e+002,5.333228e+001
9.911393e+002,5.519659e+001
9.921035e+002,6.298370e+001
9.930677e+002,6.715424e+001
9.940320e+002,6.440601e+001
9.949962e+002,6.126489e+001
9.959604e+002,6.415869e+001
9.969247e+002,7.344739e+001
9.978889e+002,8.342407e+001
9.988531e+002,9.230316e+001
9.998174e+002,9.822424e+001
1.000782e+003,9.978064e+001
1.001746e+003,9.902094e+001
1.002710e+003,9.828351e+001
1.003674e+003,9.865491e+001
1.004639e+003,9.992126e+001
1.005603e+003,1.018997e+002
1.006567e+003,1.044727e+002
1.007531e+003,1.055105e+002
1.008495e+003,1.042082e+002
1.009460e+003,1.032521e+002
1.010424e+003,1.049061e+002
1.011388e+003,1.085358e+002
1.012352e+003,1.111135e+002
1.013317e+003,1.122178e+002
1.014281e+003,1.114683e+002
1.015245e+003,1.087524e+002
1.016209e+003,1.041962e+002
1.017174e+003,9.712695e+001
1.018138e+003,8.840961e+001
1.019102e+003,8.028369e+001
1.020066e+003,7.475098e+001
1.021031e+003,7.130377e+001
1.021995e+003,6.724976e+001
1.022959e+003,6.229211e+001
1.023923e+003,5.839661e+001
1.024887e+003,5.668909e+001
1.025852e+003,5.523706e+001
1.026816e+003,5.083466e+001
1.027780e+003,4.301672e+001
1.028744e+003,3.658215e+001
1.029709e+003,3.059045e+001
1.030673e+003,2.724786e+001
1.031637e+003,2.887451e+001
1.032601e+003,3.257068e+001
1.033566e+003,3.490131e+001
1.034530e+003,3.478387e+001
1.035494e+003,3.303802e+001
1.036458e+003,2.883386e+001
1.037422e+003,2.422034e+001
1.038387e+003,2.347137e+001
1.039351e+003,2.615234e+001
1.040315e+003,2.849762e+001
1.041279e+003,2.783832e+001
1.042244e+003,2.506781e+001
1.043208e+003,2.334784e+001
1.044172e+003,2.122284e+001
1.045136e+003,2.201239e+001
1.046101e+003,2.929242e+001
1.047065e+003,3.634607e+001
1.048029e+003,3.835992e+001
1.048993e+003,3.595190e+001
1.049958e+003,3.304919e+001
1.050922e+003,3.141949e+001
1.051886e+003,3.091302e+001
1.052850e+003,3.106366e+001
1.053814e+003,3.198181e+001
1.054779e+003,3.433563e+001
1.055743e+003,3.793878e+001
1.056707e+003,4.142773e+001
1.057671e+003,4.326099e+001
1.058636e+003,4.331598e+001
1.059600e+003,4.147070e+001
1.060564e+003,3.578577e+001
1.061528e+003,3.249567e+001
1.062493e+003,3.249835e+001
1.063457e+003,3.418091e+001
1.064421e+003,3.727319e+001
1.065385e+003,4.179645e+001
1.066349e+003,4.366931e+001
1.067314e+003,3.816284e+001
1.068278e+003,3.258759e+001
1.069242e+003,3.225531e+001
1.070206e+003,3.556128e+001
1.071171e+003,3.975421e+001
1.072135e+003,4.329840e+001
1.073099e+003,4.607886e+001
1.074063e+003,4.809967e+001
1.075028e+003,4.926288e+001
1.075992e+003,5.506427e+001
1.076956e+003,6.357458e+001
1.077920e+003,7.757568e+001
1.078885e+003,1.037813e+002
1.079849e+003,1.349725e+002
1.080813e+003,1.585001e+002
1.081777e+003,1.727824e+002
1.082741e+003,1.793262e+002
1.083706e+003,1.779242e+002
1.084670e+003,1.676288e+002
1.085634e+003,1.417360e+002
1.086598e+003,1.072103e+002
1.087563e+003,7.567078e+001
1.088527e+003,5.419653e+001
1.089491e+003,4.127356e+001
1.090455e+003,3.354132e+001
1.091420e+003,3.125873e+001
1.092384e+003,3.015167e+001
1.093348e+003,3.021899e+001
1.094312e+003,3.057343e+001
1.095276e+003,3.149548e+001
1.096241e+003,3.295251e+001
1.097205e+003,3.382684e+001
1.098169e+003,3.354901e+001
1.099133e+003,3.265637e+001
1.100098e+003,3.101959e+001
1.101062e+003,2.969940e+001
1.102026e+003,2.943329e+001
1.102990e+003,3.011554e+001
1.103955e+003,3.120685e+001
1.104919e+003,3.226862e+001
1.105883e+003,3.319946e+001
1.106847e+003,3.398389e+001
1.107812e+003,3.457214e+001
1.108776e+003,3.624939e+001
1.109740e+003,4.005182e+001
1.110704e+003,4.294043e+001
1.111668e+003,4.199420e+001
1.112633e+003,3.879108e+001
1.113597e+003,3.914612e+001
1.114561e+003,4.515955e+001
1.115525e+003,4.992072e+001
1.116490e+003,5.106848e+001
1.117454e+003,5.056952e+001
1.118418e+003,4.871661e+001
1.119382e+003,4.703180e+001
1.120347e+003,4.803925e+001
1.121311e+003,5.282605e+001
1.122275e+003,5.827637e+001
1.123239e+003,5.913385e+001
1.124203e+003,5.650305e+001
1.125168e+003,5.611230e+001
1.126132e+003,5.948120e+001
1.127096e+003,6.266864e+001
1.128060e+003,6.065930e+001
1.129025e+003,5.512927e+001
1.129989e+003,5.595831e+001
1.130953e+003,6.789294e+001
1.131917e+003,7.614453e+001
1.132882e+003,7.453851e+001
1.133846e+003,7.129236e+001
1.134810e+003,7.022839e+001
1.135774e+003,7.201312e+001
1.136739e+003,7.623199e+001
1.137703e+003,8.257666e+001
1.138667e+003,9.072815e+001
1.139631e+003,1.008395e+002
1.140595e+003,1.124677e+002
1.141560e+003,1.229113e+002
1.142524e+003,1.320056e+002
1.143488e+003,1.417130e+002
1.144452e+003,1.527772e+002
1.145417e+003,1.652706e+002
1.146381e+003,1.794169e+002
1.147345e+003,1.946479e+002
1.148309e+003,2.126595e+002
1.149274e+003,2.361966e+002
1.150238e+003,2.605289e+002
1.151202e+003,2.845387e+002
1.152166e+003,3.077471e+002
1.153130e+003,3.303517e+002
1.154095e+003,3.516708e+002
1.155059e+003,3.682382e+002
1.156023e+003,3.755645e+002
1.156987e+003,3.743544e+002
1.157952e+003,3.716310e+002
1.158916e+003,3.687574e+002
1.159880e+003,3.631189e+002
1.160844e+003,3.524454e+002
1.161809e+003,3.364156e+002
1.162773e+003,3.144897e+002
1.163737e+003,2.845912e+002
1.164701e+003,2.587197e+002
1.165666e+003,2.438198e+002
1.166630e+003,2.302736e+002
1.167594e+003,2.132515e+002
1.168558e+003,1.958793e+002
1.169522e+003,1.826030e+002
1.170487e+003,1.748751e+002
1.171451e+003,1.714886e+002
1.172415e+003,1.715259e+002
1.173379e+003,1.738557e+002
1.174344e+003,1.734489e+002
1.175308e+003,1.706158e+002
1.176272e+003,1.665084e+002
1.177236e+003,1.607886e+002
1.178201e+003,1.548901e+002
1.179165e+003,1.503103e+002
1.180129e+003,1.466405e+002
1.181093e+003,1.428002e+002
1.182057e+003,1.389854e+002
1.183022e+003,1.349539e+002
1.183986e+003,1.293161e+002
1.184950e+003,1.244165e+002
1.185914e+003,1.234209e+002
1.186879e+003,1.259451e+002
1.187843e+003,1.283404e+002
1.188807e+003,1.274204e+002
1.189771e+003,1.245729e+002
1.190736e+003,1.248464e+002
1.191700e+003,1.285521e+002
1.192664e+003,1.318429e+002
1.193628e+003,1.364774e+002
1.194593e+003,1.386566e+002
1.195557e+003,1.341064e+002
1.196521e+003,1.246285e+002
1.197485e+003,1.167153e+002
1.198449e+003,1.113856e+002
1.199414e+003,1.078331e+002
1.200378e+003,1.079319e+002
1.201342e+003,1.077325e+002
1.202306e+003,1.035708e+002
1.203271e+003,9.693390e+001
1.204235e+003,9.179614e+001
1.205199e+003,9.008325e+001
1.206163e+003,8.961896e+001
1.207128e+003,8.657617e+001
1.208092e+003,8.084912e+001
1.209056e+003,7.563910e+001
1.210020e+003,7.132123e+001
1.210984e+003,6.677966e+001
1.211949e+003,6.133435e+001
1.212913e+003,5.546405e+001
1.213877e+003,4.979443e+001
1.214841e+003,4.455664e+001
1.215806e+003,4.030157e+001
1.216770e+003,3.745758e+001
1.217734e+003,3.509039e+001
1.218698e+003,3.223157e+001
1.219663e+003,2.910364e+001
1.220627e+003,2.602704e+001
1.221591e+003,2.313489e+001
1.222555e+003,2.032550e+001
1.223520e+003,1.755597e+001
1.224484e+003,1.539813e+001
1.225448e+003,1.556818e+001
1.226412e+003,1.951569e+001
1.227376e+003,2.233557e+001
1.228341e+003,2.419110e+001
1.229305e+003,2.442841e+001
1.230269e+003,2.126636e+001
1.231233e+003,1.655640e+001
1.232198e+003,1.450812e+001
1.233162e+003,1.657336e+001
1.234126e+003,1.899615e+001
1.235090e+003,1.813531e+001
1.236055e+003,1.652032e+001
1.237019e+003,1.729559e+001
1.237983e+003,1.952716e+001
1.238947e+003,2.123773e+001
1.239911e+003,2.184277e+001
1.240876e+003,2.135358e+001
1.241840e+003,1.923083e+001
1.242804e+003,1.533374e+001
1.243768e+003,1.300421e+001
1.244733e+003,1.225861e+001
1.245697e+003,1.341473e+001
1.246661e+003,1.739001e+001
1.247625e+003,2.149237e+001
1.248590e+003,2.448938e+001
1.249554e+003,2.647229e+001
1.250518e+003,2.736096e+001
1.251482e+003,2.673425e+001
1.252447e+003,2.567847e+001
1.253411e+003,2.615167e+001
1.254375e+003,2.763403e+001
1.255339e+003,2.817126e+001
1.256303e+003,2.800751e+001
1.257268e+003,2.930603e+001
1.258232e+003,3.353748e+001
1.259196e+003,3.833899e+001
1.260160e+003,3.900970e+001
1.261125e+003,3.486774e+001
1.262089e+003,3.385266e+001
1.263053e+003,3.845764e+001
1.264017e+003,4.327521e+001
1.264982e+003,4.795593e+001
1.265946e+003,5.201965e+001
1.266910e+003,5.544244e+001
1.267874e+003,5.790332e+001
1.268839e+003,5.881409e+001
1.269803e+003,5.781805e+001
1.270767e+003,5.479785e+001
1.271731e+003,4.870996e+001
1.272695e+003,4.007410e+001
1.273660e+003,3.524274e+001
1.274624e+003,3.473865e+001
1.275588e+003,3.478625e+001
1.276552e+003,3.417401e+001
1.277517e+003,3.337170e+001
1.278481e+003,3.254858e+001
1.279445e+003,3.151825e+001
1.280409e+003,3.085156e+001
1.281374e+003,3.191016e+001
1.282338e+003,3.185883e+001
1.283302e+003,2.766028e+001
1.284266e+003,2.248969e+001
1.285230e+003,2.066791e+001
1.286195e+003,2.205304e+001
1.287159e+003,2.243964e+001
1.288123e+003,1.857104e+001
1.289087e+003,1.282928e+001
1.290052e+003,1.166528e+001
1.291016e+003,1.667133e+001
1.291980e+003,1.915015e+001
1.292944e+003,1.728412e+001
1.293909e+003,1.459454e+001
1.294873e+003,1.183789e+001
1.295837e+003,1.015588e+001
1.296801e+003,1.182355e+001
1.297766e+003,1.671442e+001
1.298730e+003,1.988556e+001
1.299694e+003,1.763702e+001
1.300658e+003,1.395630e+001
1.301622e+003,1.356342e+001
1.302587e+003,1.513831e+001
1.303551e+003,1.699188e+001
1.304515e+003,1.878107e+001
1.305479e+003,1.923254e+001
1.306444e+003,1.648651e+001
1.307408e+003,1.203955e+001
1.308372e+003,1.239374e+001
1.309336e+003,2.025250e+001
1.310301e+003,2.437598e+001
1.311265e+003,2.241357e+001
1.312229e+003,1.956433e+001
1.313193e+003,1.660455e+001
1.314157e+003,1.371033e+001
1.315122e+003,9.990417e+000
1.316086e+003,6.037109e+000
1.317050e+003,4.919495e+000
1.318014e+003,9.122375e+000
1.318979e+003,1.540015e+001
1.319943e+003,1.769672e+001
1.320907e+003,1.648639e+001
1.321871e+003,1.475409e+001
1.322836e+003,1.151794e+001
1.323800e+003,9.197205e+000
1.324764e+003,9.141907e+000
1.325728e+003,1.096112e+001
1.326693e+003,1.464752e+001
1.327657e+003,1.997418e+001
1.328621e+003,2.240259e+001
1.329585e+003,2.021490e+001
1.330549e+003,1.873260e+001
1.331514e+003,2.025220e+001
1.332478e+003,2.186725e+001
1.333442e+003,2.075330e+001
1.334406e+003,1.766339e+001
1.335371e+003,1.563837e+001
1.336335e+003,1.645343e+001
1.337299e+003,1.846600e+001
1.338263e+003,1.832996e+001
1.339228e+003,1.575696e+001
1.340192e+003,1.394049e+001
1.341156e+003,1.257800e+001
1.342120e+003,1.228137e+001
1.343084e+003,1.337897e+001
1.344049e+003,1.445251e+001
1.345013e+003,1.489764e+001
1.345977e+003,1.499207e+001
1.346941e+003,1.514691e+001
1.347906e+003,1.548608e+001
1.348870e+003,1.547528e+001
1.349834e+003,1.400323e+001
1.350798e+003,1.192151e+001
1.351763e+003,1.148608e+001
1.352727e+003,1.257990e+001
1.353691e+003,1.368335e+001
1.354655e+003,1.436353e+001
1.355620e+003,1.472705e+001
1.356584e+003,1.501184e+001
1.357548e+003,1.534723e+001
1.358512e+003,1.523773e+001
1.359476e+003,1.363617e+001
1.360441e+003,1.248669e+001
1.361405e+003,1.280432e+001
1.362369e+003,1.365314e+001
1.363333e+003,1.530524e+001
1.364298e+003,1.691132e+001
1.365262e+003,1.755878e+001
1.366226e+003,1.693378e+001
1.367190e+003,1.465955e+001
1.368155e+003,1.028833e+001
1.369119e+003,5.505066e+000
1.370083e+003,6.030945e+000
1.371047e+003,1.407935e+001
1.372011e+003,1.937128e+001
1.372976e+003,2.018384e+001
1.373940e+003,1.955811e+001
1.374904e+003,1.792590e+001
1.375868e+003,1.635321e+001
1.376833e+003,1.623615e+001
1.377797e+003,1.733856e+001
1.378761e+003,1.805902e+001
1.379725e+003,1.798792e+001
1.380690e+003,1.698700e+001
1.381654e+003,1.395032e+001
1.382618e+003,1.058514e+001
1.383582e+003,8.838684e+000
1.384547e+003,8.917664e+000
1.385511e+003,1.116400e+001
1.386475e+003,1.602777e+001
1.387439e+003,2.132104e+001
1.388403e+003,2.387372e+001
1.389368e+003,2.363391e+001
1.390332e+003,2.224146e+001
1.391296e+003,1.895270e+001
1.392260e+003,1.683972e+001
1.393225e+003,1.706958e+001
1.394189e+003,1.773517e+001
1.395153e+003,1.710596e+001
1.396117e+003,1.651868e+001
1.397082e+003,1.935162e+001
1.398046e+003,2.561481e+001
1.399010e+003,3.021973e+001
1.399974e+003,2.806152e+001
1.400938e+003,2.108466e+001
1.401903e+003,1.706628e+001
1.402867e+003,1.800513e+001
1.403831e+003,2.021088e+001
1.404795e+003,2.347278e+001
1.405760e+003,2.690051e+001
1.406724e+003,3.027521e+001
1.407688e+003,3.184357e+001
1.408652e+003,2.948169e+001
1.409617e+003,2.457141e+001
1.410581e+003,2.217975e+001
1.411545e+003,2.474365e+001
1.412509e+003,2.772119e+001
1.413474e+003,2.576288e+001
1.414438e+003,2.113257e+001
1.415402e+003,1.886890e+001
1.416366e+003,1.910651e+001
1.417330e+003,1.902332e+001
1.418295e+003,1.729883e+001
1.419259e+003,1.582629e+001
1.420223e+003,1.699896e+001
1.421187e+003,1.997559e+001
1.422152e+003,2.120947e+001
1.423116e+003,2.027655e+001
1.424080e+003,2.077759e+001
1.425044e+003,2.536755e+001
1.426009e+003,2.866815e+001
1.426973e+003,2.734326e+001
1.427937e+003,2.408899e+001
1.428901e+003,2.193915e+001
1.429865e+003,2.174481e+001
1.430830e+003,2.330847e+001
1.431794e+003,2.618579e+001
1.432758e+003,2.888092e+001
1.433722e+003,2.886047e+001
1.434687e+003,2.642261e+001
1.435651e+003,2.775140e+001
1.436615e+003,3.499805e+001
1.437579e+003,3.917126e+001
1.438544e+003,3.864972e+001
1.439508e+003,3.617340e+001
1.440472e+003,3.283179e+001
1.441436e+003,2.982666e+001
1.442401e+003,2.888129e+001
1.443365e+003,3.000940e+001
1.444329e+003,3.076807e+001
1.445293e+003,2.933612e+001
1.446257e+003,2.726099e+001
1.447222e+003,2.741638e+001
1.448186e+003,2.926324e+001
1.449150e+003,3.027411e+001
1.450114e+003,2.996008e+001
1.451079e+003,2.919763e+001
1.452043e+003,2.808673e+001
1.453007e+003,2.772180e+001
1.453971e+003,2.988416e+001
1.454936e+003,3.390741e+001
1.455900e+003,3.631360e+001
1.456864e+003,3.637207e+001
1.457828e+003,3.584589e+001
1.458792e+003,3.526648e+001
1.459757e+003,3.420667e+001
1.460721e+003,3.195813e+001
1.461685e+003,2.908820e+001
1.462649e+003,2.664917e+001
1.463614e+003,2.521948e+001
1.464578e+003,2.533221e+001
1.465542e+003,2.757397e+001
1.466506e+003,3.073303e+001
1.467471e+003,3.186298e+001
1.468435e+003,3.131653e+001
1.469399e+003,3.005969e+001
1.470363e+003,2.481879e+001
1.471328e+003,2.242499e+001
1.472292e+003,2.632312e+001
1.473256e+003,3.058142e+001
1.474220e+003,3.169147e+001
1.475184e+003,3.075757e+001
1.476149e+003,2.963342e+001
1.477113e+003,2.893219e+001
1.478077e+003,2.909534e+001
1.479041e+003,3.103796e+001
1.480006e+003,3.438629e+001
1.480970e+003,3.672797e+001
1.481934e+003,3.722510e+001
1.482898e+003,3.775659e+001
1.483863e+003,3.794440e+001
1.484827e+003,3.843494e+001
1.485791e+003,4.038855e+001
1.486755e+003,4.275690e+001
1.487719e+003,4.385803e+001
1.488684e+003,4.403430e+001
1.489648e+003,4.501910e+001
1.490612e+003,4.763000e+001
1.491576e+003,5.148792e+001
1.492541e+003,5.632507e+001
1.493505e+003,6.145074e+001
1.494469e+003,6.563025e+001
1.495433e+003,6.836914e+001
1.496398e+003,6.955048e+001
1.497362e+003,6.905261e+001
1.498326e+003,7.026318e+001
1.499290e+003,7.489105e+001
1.500255e+003,8.205042e+001
1.501219e+003,9.113794e+001
1.502183e+003,1.015623e+002
1.503147e+003,1.106461e+002
1.504111e+003,1.171400e+002
1.505076e+003,1.258112e+002
1.506040e+003,1.411288e+002
1.507004e+003,1.583317e+002
1.507968e+003,1.714041e+002
1.508933e+003,1.829891e+002
1.509897e+003,1.984291e+002
1.510861e+003,2.195247e+002
1.511825e+003,2.456243e+002
1.512790e+003,2.766086e+002
1.513754e+003,3.098602e+002
1.514718e+003,3.405844e+002
1.515682e+003,3.683280e+002
1.516646e+003,3.998002e+002
1.517611e+003,4.396196e+002
1.518575e+003,4.748160e+002
1.519539e+003,5.022428e+002
1.520503e+003,5.241060e+002
1.521468e+003,5.411035e+002
1.522432e+003,5.528359e+002
1.523396e+003,5.585580e+002
1.524360e+003,5.582941e+002
1.525325e+003,5.530790e+002
1.526289e+003,5.437533e+002
1.527253e+003,5.301932e+002
1.528217e+003,5.116774e+002
1.529182e+003,4.885929e+002
1.530146e+003,4.638372e+002
1.531110e+003,4.392007e+002
1.532074e+003,4.082542e+002
1.533039e+003,3.666312e+002
1.534003e+003,3.216389e+002
1.534967e+003,2.737905e+002
1.535931e+003,2.282919e+002
1.536896e+003,1.897605e+002
1.537860e+003,1.588473e+002
1.538824e+003,1.340553e+002
1.539788e+003,1.142236e+002
1.540752e+003,9.882104e+001
1.541717e+003,8.778357e+001
1.542681e+003,8.073499e+001
1.543645e+003,7.330371e+001
1.544609e+003,6.558447e+001
1.545573e+003,5.882544e+001
1.546538e+003,5.138281e+001
1.547502e+003,4.542700e+001
1.548466e+003,4.319946e+001
1.549430e+003,4.303101e+001
1.550395e+003,4.274719e+001
1.551359e+003,4.225586e+001
1.552323e+003,4.335107e+001
1.553287e+003,4.649878e+001
1.554252e+003,4.820544e+001
1.555216e+003,4.507935e+001
1.556180e+003,3.904248e+001
1.557144e+003,3.430164e+001
1.558109e+003,3.115320e+001
1.559073e+003,2.962256e+001
1.560037e+003,2.976465e+001
1.561001e+003,2.961560e+001
1.561966e+003,2.887964e+001
1.562930e+003,2.876941e+001
1.563894e+003,3.087451e+001
1.564858e+003,3.369299e+001
1.565823e+003,3.333411e+001
1.566787e+003,2.921863e+001
1.567751e+003,2.589417e+001
1.568715e+003,2.630029e+001
1.569679e+003,2.807935e+001
1.570644e+003,2.814807e+001
1.571608e+003,2.666101e+001
1.572572e+003,2.511560e+001
1.573536e+003,2.389880e+001
1.574500e+003,2.304211e+001
1.575465e+003,2.164954e+001
1.576429e+003,2.161365e+001
1.577393e+003,2.549927e+001
1.578357e+003,3.101184e+001
1.579322e+003,3.418311e+001
1.580286e+003,3.494336e+001
1.581250e+003,3.431873e+001
1.582214e+003,3.204211e+001
1.583179e+003,3.060168e+001
1.584143e+003,3.280554e+001
1.585107e+003,3.537109e+001
1.586071e+003,3.362708e+001
1.587036e+003,2.974438e+001
1.588000e+003,2.886914e+001
1.588964e+003,3.181592e+001
1.589928e+003,3.568213e+001
1.590893e+003,3.966296e+001
1.591857e+003,4.261719e+001
1.592821e+003,4.201794e+001
1.593785e+003,3.870032e+001
1.594750e+003,3.696912e+001
1.595714e+003,3.721033e+001
1.596678e+003,3.833606e+001
1.597642e+003,4.098450e+001
1.598606e+003,4.292969e+001
1.599571e+003,4.128052e+001
1.600535e+003,3.892163e+001
1.601499e+003,3.999841e+001
1.602463e+003,4.395056e+001
1.603427e+003,4.714417e+001
1.604392e+003,4.826050e+001
1.605356e+003,4.744397e+001
1.606320e+003,4.382629e+001
1.607284e+003,3.877881e+001
1.608249e+003,3.650964e+001
1.609213e+003,3.715356e+001
1.610177e+003,3.652454e+001
1.611141e+003,3.327209e+001
1.612106e+003,3.042188e+001
1.613070e+003,3.017639e+001
1.614034e+003,3.006494e+001
1.614998e+003,2.736328e+001
1.615963e+003,2.399573e+001
1.616927e+003,2.377722e+001
1.617891e+003,2.670886e+001
1.618855e+003,2.877222e+001
1.619820e+003,2.732166e+001
1.620784e+003,2.366479e+001
1.621748e+003,1.984033e+001
1.622712e+003,1.682251e+001
1.623677e+003,1.657861e+001
1.624641e+003,1.968933e+001
1.625605e+003,2.267932e+001
1.626569e+003,2.417432e+001
1.627533e+003,2.379614e+001
1.628498e+003,2.039136e+001
1.629462e+003,1.720544e+001
1.630426e+003,1.717542e+001
1.631390e+003,1.925891e+001
1.632354e+003,2.104614e+001
1.633319e+003,2.186218e+001
1.634283e+003,2.241162e+001
1.635247e+003,2.314001e+001
1.636211e+003,2.380493e+001
1.637176e+003,2.451257e+001
1.638140e+003,2.540747e+001
1.639104e+003,2.496973e+001
1.640068e+003,2.256299e+001
1.641033e+003,1.998572e+001
1.641997e+003,1.608350e+001
1.642961e+003,1.499390e+001
1.643925e+003,2.222192e+001
1.644890e+003,3.009607e+001
1.645854e+003,2.908838e+001
1.646818e+003,2.229639e+001
1.647782e+003,1.992322e+001
1.648747e+003,2.480627e+001
1.649711e+003,3.001953e+001
1.650675e+003,3.008594e+001
1.651639e+003,2.737378e+001
1.652604e+003,2.611646e+001
1.653568e+003,2.594604e+001
1.654532e+003,2.428528e+001
1.655496e+003,2.018958e+001
1.656460e+003,1.762805e+001
1.657425e+003,1.897791e+001
1.658389e+003,2.088196e+001
1.659353e+003,2.190991e+001
1.660317e+003,2.215955e+001
1.661281e+003,2.133582e+001
1.662246e+003,1.970361e+001
1.663210e+003,1.833704e+001
1.664174e+003,1.775330e+001
1.665138e+003,1.722754e+001
1.666103e+003,1.573755e+001
1.667067e+003,1.387000e+001
1.668031e+003,1.348926e+001
1.668995e+003,1.455322e+001
1.669960e+003,1.427771e+001
1.670924e+003,1.201306e+001
1.671888e+003,1.106104e+001
1.672852e+003,1.319678e+001
1.673817e+003,1.520569e+001
1.674781e+003,1.434302e+001
1.675745e+003,1.272595e+001
1.676709e+003,1.319019e+001
1.677674e+003,1.493506e+001
1.678638e+003,1.451013e+001
1.679602e+003,1.089783e+001
1.680566e+003,7.998169e+000
1.681531e+003,9.625366e+000
1.682495e+003,1.335425e+001
1.683459e+003,1.451794e+001
1.684423e+003,1.320886e+001
1.685387e+003,1.178479e+001
1.686352e+003,1.054712e+001
1.687316e+003,9.882324e+000
1.688280e+003,1.030701e+001
1.689244e+003,1.053613e+001
1.690208e+003,8.414795e+000
1.691173e+003,6.159668e+000
1.692137e+003,7.045410e+000
1.693101e+003,1.049402e+001
1.694065e+003,1.328381e+001
1.695030e+003,1.418701e+001
1.695994e+003,1.387061e+001
1.696958e+003,1.235413e+001
1.697922e+003,1.087109e+001
1.698887e+003,1.148987e+001
1.699851e+003,1.344495e+001
1.700815e+003,1.368079e+001
1.701779e+003,1.174280e+001
1.702744e+003,1.021802e+001
1.703708e+003,1.065369e+001
1.704672e+003,1.099402e+001
1.705636e+003,8.108398e+000
1.706601e+003,4.549072e+000
1.707565e+003,6.753784e+000
1.708529e+003,1.249182e+001
1.709493e+003,1.224841e+001
1.710458e+003,3.931885e+000
1.711422e+003,-1.508301e+000
1.712386e+003,3.521729e+000
1.713350e+003,1.005725e+001
1.714314e+003,1.004114e+001
1.715279e+003,6.437988e+000
1.716243e+003,4.249756e+000
1.717207e+003,3.862183e+000
1.718171e+003,4.730103e+000
1.719135e+003,6.805664e+000
1.720100e+003,8.046875e+000
1.721064e+003,6.726929e+000
1.722028e+003,4.102905e+000
1.722992e+003,2.095947e+000
1.723957e+003,1.303955e+000
1.724921e+003,2.479614e+000
1.725885e+003,5.449707e+000
1.726849e+003,5.829590e+000
1.727814e+003,1.352051e+000
1.728778e+003,-1.769043e+000
1.729742e+003,-5.510254e-001
1.730706e+003,2.546631e+000
1.731671e+003,5.370728e+000
1.732635e+003,7.100220e+000
1.733599e+003,7.900513e+000
1.734563e+003,8.179077e+000
1.735528e+003,7.347900e+000
1.736492e+003,4.871826e+000
1.737456e+003,1.789307e+000
1.738420e+003,-8.139648e-001
1.739385e+003,-3.011353e+000
1.740349e+003,-3.382080e+000
1.741313e+003,-8.458252e-001
1.742277e+003,-4.162598e-002
1.743241e+003,-1.951660e+000
1.744206e+003,-3.086304e+000
1.745170e+003,-2.866821e+000
1.746134e+003,-2.494141e+000
1.747098e+003,-3.268799e+000
1.748063e+003,-3.868530e+000
1.749027e+003,-2.027466e+000
1.749991e+003,1.438599e+000
1.750955e+003,3.742798e+000
1.751919e+003,3.903198e+000
1.752884e+003,3.450073e+000
1.753848e+003,3.678345e+000
1.754812e+003,3.235229e+000
1.755776e+003,-8.133545e-001
1.756741e+003,-7.778076e+000
1.757705e+003,-9.139648e+000
1.758669e+003,-2.863159e+000
1.759633e+003,1.838379e+000
1.760598e+003,3.723022e+000
1.761562e+003,3.536255e+000
1.762526e+003,6.278076e-001
1.763490e+003,-2.342163e+000
1.764455e+003,-3.875000e+000
1.765419e+003,-3.906860e+000
1.766383e+003,-2.357178e+000
1.767347e+003,5.627441e-002
1.768312e+003,1.594116e+000
1.769276e+003,1.288818e+000
1.770240e+003,1.528320e-001
1.771204e+003,-1.512451e-001
1.772168e+003,4.019775e-001
1.773133e+003,7.770996e-001
1.774097e+003,9.748535e-001
1.775061e+003,1.385010e+000
1.776025e+003,1.692627e+000
1.776990e+003,5.314941e-001
1.777954e+003,-3.273560e+000
1.778918e+003,-5.240967e+000
1.779882e+003,-7.600098e-001
1.780846e+003,5.318848e+000
1.781811e+003,6.676147e+000
1.782775e+003,4.706421e+000
1.783739e+003,3.854126e+000
1.784703e+003,5.086670e+000
1.785668e+003,5.311523e+000
1.786632e+003,7.601318e-001
1.787596e+003,-3.104492e+000
1.788560e+003,3.916016e-001
1.789525e+003,6.440063e+000
1.790489e+003,6.805054e+000
1.791453e+003,2.852783e+000
1.792417e+003,1.446289e+000
1.793382e+003,3.831787e+000
1.794346e+003,5.708984e+000
1.795310e+003,4.718628e+000
1.796274e+003,2.279907e+000
1.797239e+003,3.906250e-002
1.798203e+003,-1.011719e+000
1.799167e+003,7.065430e-001
1.800131e+003,5.027344e+000
1.801095e+003,5.821289e+000
1.802060e+003,2.895508e-001
1.803024e+003,-1.932617e+000
1.803988e+003,1.808472e+000
1.804952e+003,6.152710e+000
1.805917e+003,9.941895e+000
1.806881e+003,1.192188e+001
1.807845e+003,1.021973e+001
1.808809e+003,6.540161e+000
1.809773e+003,3.461060e+000
1.810738e+003,2.036011e+000
1.811702e+003,3.404419e+000
1.812666e+003,8.101563e+000
1.813630e+003,1.260559e+001
1.814595e+003,1.189551e+001
1.815559e+003,7.274536e+000
1.816523e+003,4.811890e+000
1.817487e+003,4.899048e+000
1.818452e+003,4.116577e+000
1.819416e+003,2.064697e+000
1.820380e+003,1.418213e+000
1.821344e+003,4.568359e+000
1.822309e+003,5.830200e+000
1.823273e+003,-5.717773e-001
1.824237e+003,-7.747437e+000
1.825201e+003,-8.544800e+000
1.826166e+003,-4.749268e+000
1.827130e+003,-1.257568e+000
1.828094e+003,8.399658e-001
1.829058e+003,2.189697e+000
1.830022e+003,3.828369e+000
1.830987e+003,4.097290e+000
1.831951e+003,7.204590e-001
1.832915e+003,-4.182129e+000
1.833879e+003,-8.733521e+000
1.834844e+003,-1.199695e+001
1.835808e+003,-1.063757e+001
1.836772e+003,-4.769897e+000
1.837736e+003,-4.671631e-001
1.838700e+003,-6.412354e-001
1.839665e+003,-2.632446e+000
1.840629e+003,-4.034912e+000
1.841593e+003,-4.675781e+000
1.842557e+003,-4.450195e+000
1.843522e+003,-3.403931e+000
1.844486e+003,-3.007813e+000
1.845450e+003,-3.161133e+000
1.846414e+003,-2.875732e+000
1.847379e+003,-2.000366e+000
1.848343e+003,-2.612793e+000
1.849307e+003,-5.969971e+000
1.850271e+003,-9.746948e+000
1.851236e+003,-1.301050e+001
1.852200e+003,-1.470178e+001
1.853164e+003,-1.379004e+001
1.854128e+003,-1.115320e+001
1.855093e+003,-8.079590e+000
1.856057e+003,-4.843384e+000
1.857021e+003,-2.244629e+000
1.857985e+003,-1.223267e+000
1.858949e+003,-1.568970e+000
1.859914e+003,-3.562500e+000
1.860878e+003,-6.405396e+000
1.861842e+003,-5.893677e+000
1.862806e+003,-2.092651e+000
1.863771e+003,8.569336e-001
1.864735e+003,2.149902e+000
1.865699e+003,1.996216e+000
1.866663e+003,7.592773e-002
1.867627e+003,-1.520752e+000
1.868592e+003,-9.621582e-001
1.869556e+003,1.689453e-001
1.870520e+003,-1.580811e-001
1.871484e+003,-1.860718e+000
1.872449e+003,-4.344482e+000
1.873413e+003,-6.883911e+000
1.874377e+003,-6.994385e+000
1.875341e+003,-4.148438e+000
1.876306e+003,-1.010254e+000
1.877270e+003,1.749390e+000
1.878234e+003,3.131226e+000
1.879198e+003,1.221191e+000
1.880163e+003,-1.966431e+000
1.881127e+003,-2.377808e+000
1.882091e+003,-1.059570e-001
1.883055e+003,1.276245e+000
1.884020e+003,3.210449e-001
1.884984e+003,-8.437500e-001
1.885948e+003,-2.365723e-001
1.886912e+003,1.282959e+000
1.887876e+003,2.153076e+000
1.888841e+003,2.424438e+000
1.889805e+003,1.644897e+000
1.890769e+003,-7.229004e-001
1.891733e+003,-9.470215e-001
1.892698e+003,2.444580e+000
1.893662e+003,4.197266e+000
1.894626e+003,1.704102e+000
1.895590e+003,-1.465088e+000
1.896554e+003,-3.949097e+000
1.897519e+003,-4.479370e+000
1.898483e+003,1.353760e-001
1.899447e+003,7.228149e+000
1.900411e+003,8.155640e+000
1.901376e+003,1.199463e+000
1.902340e+003,-2.546631e+000
1.903304e+003,3.940308e+000
1.904268e+003,9.904785e+000
1.905233e+003,8.504272e+000
1.906197e+003,4.115356e+000
1.907161e+003,2.335205e-001
1.908125e+003,-2.572632e+000
1.909090e+003,-4.692627e+000
1.910054e+003,-6.013672e+000
1.911018e+003,-4.582886e+000
1.911982e+003,2.746582e-002
1.912947e+003,4.270752e+000
1.913911e+003,5.406006e+000
1.914875e+003,5.741943e+000
1.915839e+003,8.961060e+000
1.916803e+003,1.358130e+001
1.917768e+003,1.352954e+001
1.918732e+003,8.084839e+000
1.919696e+003,5.205688e+000
1.920660e+003,6.203369e+000
1.921625e+003,7.295776e+000
1.922589e+003,7.617676e+000
1.923553e+003,7.268555e+000
1.924517e+003,5.110840e+000
1.925481e+003,3.509521e+000
1.926446e+003,5.858032e+000
1.927410e+003,9.822510e+000
1.928374e+003,1.028748e+001
1.929338e+003,6.868286e+000
1.930303e+003,3.575684e+000
1.931267e+003,1.735474e+000
1.932231e+003,1.545044e+000
1.933195e+003,4.194092e+000
1.934160e+003,6.105225e+000
1.935124e+003,4.155884e+000
1.936088e+003,1.293945e-001
1.937052e+003,-4.556030e+000
1.938017e+003,-8.291260e+000
1.938981e+003,-7.974976e+000
1.939945e+003,-4.261353e+000
1.940909e+003,-1.801147e+000
1.941874e+003,-2.763794e+000
1.942838e+003,-4.927490e+000
1.943802e+003,-5.862427e+000
1.944766e+003,-5.371094e+000
1.945730e+003,-4.006348e+000
1.946695e+003,-2.151123e+000
1.947659e+003,8.203125e-002
1.948623e+003,2.670288e+000
1.949587e+003,4.602173e+000
1.950552e+003,6.283813e+000
1.951516e+003,6.179932e+000
1.952480e+003,2.778809e+000
1.953444e+003,-4.260254e-001
1.954408e+003,-7.067871e-001
1.955373e+003,-3.809814e-001
1.956337e+003,-2.556030e+000
1.957301e+003,-5.833252e+000
1.958265e+003,-7.058105e+000
1.959230e+003,-5.891357e+000
1.960194e+003,-4.340088e+000
1.961158e+003,-3.285400e+000
1.962122e+003,-2.647583e+000
1.963087e+003,-1.308228e+000
1.964051e+003,-1.449707e+000
1.965015e+003,-6.318970e+000
1.965979e+003,-1.057031e+001
1.966944e+003,-8.860596e+000
1.967908e+003,-3.322876e+000
1.968872e+003,3.522583e+000
1.969836e+003,9.662598e+000
1.970801e+003,1.030090e+001
1.971765e+003,3.934570e+000
1.972729e+003,-2.111328e+000
1.973693e+003,-1.479248e+000
1.974657e+003,2.116089e+000
1.975622e+003,3.706665e+000
1.976586e+003,3.320557e+000
1.977550e+003,6.539307e-001
1.978514e+003,-3.355347e+000
1.979479e+003,-4.345825e+000
1.980443e+003,-1.953125e+000
1.981407e+003,1.628418e-001
1.982371e+003,8.133545e-001
1.983335e+003,2.300659e+000
1.984300e+003,6.554199e+000
1.985264e+003,9.478149e+000
1.986228e+003,4.253174e+000
1.987192e+003,-6.583618e+000
1.988157e+003,-9.340820e+000
1.989121e+003,-1.518677e+000
1.990085e+003,2.529541e+000
1.991049e+003,1.414185e+000
1.992014e+003,-7.849121e-002
1.992978e+003,-3.185913e+000
1.993942e+003,-4.711182e+000
1.994906e+003,-2.692505e+000
1.995871e+003,4.049072e-001
1.996835e+003,4.517212e+000
1.997799e+003,7.860840e+000
1.998763e+003,6.677002e+000
1.999728e+003,1.805420e+000
