5.003444e+002,3.802176e+001
5.013087e+002,3.827902e+001
5.022729e+002,3.798573e+001
5.032371e+002,3.722406e+001
5.042014e+002,3.570596e+001
5.051656e+002,3.362090e+001
5.061298e+002,3.181779e+001
5.070941e+002,3.106741e+001
5.080583e+002,3.153564e+001
5.090225e+002,3.171037e+001
5.099868e+002,3.134781e+001
5.109510e+002,3.102991e+001
5.119152e+002,3.116075e+001
5.128795e+002,3.180675e+001
5.138437e+002,3.224335e+001
5.148079e+002,3.243069e+001
5.157722e+002,3.226082e+001
5.167364e+002,3.130295e+001
5.177006e+002,2.967639e+001
5.186649e+002,2.811934e+001
5.196291e+002,2.794850e+001
5.205933e+002,2.839893e+001
5.215576e+002,2.822714e+001
5.225218e+002,2.728542e+001
5.234860e+002,2.620868e+001
5.244503e+002,2.634906e+001
5.254145e+002,2.848390e+001
5.263787e+002,2.913808e+001
5.273430e+002,2.728064e+001
5.283072e+002,2.464661e+001
5.292714e+002,2.379070e+001
5.302357e+002,2.603014e+001
5.311999e+002,2.664618e+001
5.321641e+002,2.428751e+001
5.331284e+002,2.134421e+001
5.340926e+002,1.944583e+001
5.350568e+002,1.911469e+001
5.360211e+002,1.963826e+001
5.369853e+002,2.146970e+001
5.379495e+002,2.340356e+001
5.389138e+002,2.416751e+001
5.398780e+002,2.334412e+001
5.408422e+002,2.162317e+001
5.418065e+002,2.097847e+001
5.427707e+002,2.124661e+001
5.437349e+002,2.133107e+001
5.446992e+002,2.084763e+001
5.456634e+002,2.001445e+001
5.466276e+002,1.967896e+001
5.475919e+002,2.123203e+001
5.485561e+002,2.156328e+001
5.495203e+002,1.945290e+001
5.504846e+002,1.631580e+001
5.514488e+002,1.421129e+001
5.524130e+002,1.409369e+001
5.533773e+002,1.487143e+001
5.543415e+002,1.631033e+001
5.553057e+002,1.789923e+001
5.562700e+002,1.923793e+001
5.572342e+002,2.005269e+001
5.581984e+002,2.014861e+001
5.591627e+002,1.875839e+001
5.601269e+002,1.654886e+001
5.610911e+002,1.464471e+001
5.620554e+002,1.358104e+001
5.630196e+002,1.323524e+001
5.639838e+002,1.303256e+001
5.649481e+002,1.294255e+001
5.659123e+002,1.304700e+001
5.668765e+002,1.392375e+001
5.678408e+002,1.523053e+001
5.688050e+002,1.567961e+001
5.697692e+002,1.379671e+001
5.707335e+002,1.216498e+001
5.716977e+002,1.228627e+001
5.726619e+002,1.300554e+001
5.736262e+002,1.243820e+001
5.745904e+002,9.018005e+000
5.755546e+002,5.271133e+000
5.765189e+002,5.129303e+000
5.774831e+002,7.232407e+000
5.784473e+002,9.682129e+000
5.794116e+002,1.123595e+001
5.803758e+002,1.202213e+001
5.813400e+002,1.227599e+001
5.823043e+002,1.194928e+001
5.832685e+002,1.095306e+001
5.842327e+002,8.810394e+000
5.851970e+002,5.911911e+000
5.861612e+002,4.237152e+000
5.871254e+002,4.863464e+000
5.880897e+002,5.780655e+000
5.890539e+002,6.954834e+000
5.900181e+002,8.026230e+000
5.909824e+002,8.501358e+000
5.919466e+002,7.924896e+000
5.929108e+002,7.103790e+000
5.938751e+002,7.042099e+000
5.948393e+002,7.341644e+000
5.958035e+002,7.339767e+000
5.967678e+002,6.580429e+000
5.977320e+002,5.300293e+000
5.986962e+002,4.915649e+000
5.996605e+002,5.162323e+000
6.006247e+002,5.815918e+000
6.015889e+002,7.220062e+000
6.025532e+002,9.268707e+000
6.035174e+002,1.020996e+001
6.044816e+002,9.120209e+000
6.054459e+002,7.818115e+000
6.064101e+002,5.904999e+000
6.073743e+002,4.034760e+000
6.083386e+002,3.505737e+000
6.093028e+002,5.799454e+000
6.102670e+002,8.009186e+000
6.112313e+002,7.575439e+000
6.121955e+002,5.767441e+000
6.131597e+002,4.163651e+000
6.141240e+002,3.850449e+000
6.150882e+002,4.548645e+000
6.160524e+002,5.352783e+000
6.170167e+002,6.303391e+000
6.179809e+002,7.195297e+000
6.189451e+002,7.982758e+000
6.199094e+002,8.526794e+000
6.208736e+002,8.259262e+000
6.218378e+002,6.865906e+000
6.228021e+002,5.168884e+000
6.237663e+002,2.745728e+000
6.247305e+002,2.198181e-001
6.256948e+002,-1.471893e+000
6.266590e+002,-1.915573e+000
6.276232e+002,-1.832504e+000
6.285875e+002,-1.695328e+000
6.295517e+002,-1.280396e+000
6.305159e+002,-1.762390e-001
6.314802e+002,1.739136e+000
6.324444e+002,3.821136e+000
6.334086e+002,4.197662e+000
6.343729e+002,3.488190e+000
6.353371e+002,2.826096e+000
6.363013e+002,2.513000e+000
6.372656e+002,2.531982e+000
6.382298e+002,2.972610e+000
6.391940e+002,5.052170e+000
6.401583e+002,5.713852e+000
6.411225e+002,3.911011e+000
6.420867e+002,1.475143e+000
6.430510e+002,8.078156e-001
6.440152e+002,3.176331e+000
6.449794e+002,4.536530e+000
6.459437e+002,1.627228e+000
6.469079e+002,-2.112091e+000
6.478721e+002,-3.821747e+000
6.488364e+002,-2.589447e+000
6.498006e+002,-1.013489e-001
6.507648e+002,7.647858e-001
6.517291e+002,4.092865e-001
6.526933e+002,-3.840637e-001
6.536575e+002,-1.536926e+000
6.546218e+002,-2.524765e+000
6.555860e+002,-2.263062e+000
6.565502e+002,2.965240e-001
6.575145e+002,1.819305e+000
6.584787e+002,1.788498e+000
6.594429e+002,1.310211e+000
6.604072e+002,1.408569e+000
6.613714e+002,2.341156e+000
6.623356e+002,2.615372e+000
6.632999e+002,3.860779e-001
6.642641e+002,-1.872742e+000
6.652283e+002,-2.724991e+000
6.661926e+002,-2.075653e+000
6.671568e+002,-7.446899e-001
6.681210e+002,4.665070e-001
6.690853e+002,1.298538e+000
6.700495e+002,1.221588e+000
6.710137e+002,3.081818e-001
6.719780e+002,-5.433807e-001
6.729422e+002,-3.282623e-001
6.739064e+002,1.245071e+000
6.748707e+002,1.804047e+000
6.758349e+002,7.814331e-001
6.767991e+002,-3.299103e-001
6.777634e+002,-9.361115e-001
6.787276e+002,-9.469147e-001
6.796918e+002,-4.747009e-001
6.806561e+002,8.243866e-001
6.816203e+002,1.951660e+000
6.825845e+002,2.429581e+000
6.835488e+002,2.498779e+000
6.845130e+002,2.764404e+000
6.854772e+002,3.798813e+000
6.864415e+002,4.805786e+000
6.874057e+002,3.063080e+000
6.883699e+002,-4.554596e-001
6.893342e+002,-2.705719e+000
6.902984e+002,-1.849625e+000
6.912626e+002,1.611176e+000
6.922269e+002,3.914139e+000
6.931911e+002,5.146545e+000
6.941553e+002,5.380325e+000
6.951196e+002,3.034439e+000
6.960838e+002,-3.778076e-002
6.970480e+002,-3.813171e-001
6.980123e+002,4.225449e+000
6.989765e+002,7.870239e+000
6.999407e+002,7.941620e+000
7.009050e+002,6.419540e+000
7.018692e+002,4.671295e+000
7.028334e+002,3.224777e+000
7.037977e+002,1.631210e+000
7.047619e+002,-1.348312e+000
7.057261e+002,-4.581604e+000
7.066904e+002,-5.642700e+000
7.076546e+002,-4.141312e+000
7.086188e+002,-1.475464e+000
7.095831e+002,1.756134e-001
7.105473e+002,4.473572e-001
7.115115e+002,4.434509e-001
7.124758e+002,8.590698e-002
7.134400e+002,-4.804688e-001
7.144042e+002,-1.118271e+000
7.153685e+002,-1.775558e+000
7.163327e+002,-2.544769e+000
7.172969e+002,-3.840424e+000
7.182612e+002,-4.868774e+000
7.192254e+002,-5.552917e+000
7.201896e+002,-5.743057e+000
7.211539e+002,-5.055649e+000
7.221181e+002,-3.013931e+000
7.230823e+002,-3.810425e-001
7.240466e+002,9.471893e-001
7.250108e+002,1.268372e+000
7.259750e+002,9.345398e-001
7.269393e+002,-1.013184e-001
7.279035e+002,-1.800919e+000
7.288677e+002,-2.747559e+000
7.298320e+002,-2.315323e+000
7.307962e+002,-1.281296e+000
7.317604e+002,1.076447e+000
7.327247e+002,3.750504e+000
7.336889e+002,5.200256e+000
7.346531e+002,4.642456e+000
7.356174e+002,3.289291e+000
7.365816e+002,1.797897e+000
7.375458e+002,4.243164e-001
7.385101e+002,-9.024048e-001
7.394743e+002,-2.046783e+000
7.404385e+002,-2.466660e+000
7.414028e+002,-9.719543e-001
7.423670e+002,1.592896e+000
7.433312e+002,2.295502e+000
7.442955e+002,9.772034e-001
7.452597e+002,-5.534973e-001
7.462239e+002,-7.156372e-002
7.471882e+002,3.286057e+000
7.481524e+002,4.531570e+000
7.491166e+002,2.010849e+000
7.500809e+002,-6.817169e-001
7.510451e+002,-2.452637e+000
7.520093e+002,-3.279495e+000
7.529736e+002,-3.459335e+000
7.539378e+002,-2.441406e+000
7.549020e+002,-1.524033e+000
7.558663e+002,-2.133270e+000
7.568306e+002,-3.193176e+000
7.577948e+002,-3.017014e+000
7.587590e+002,-7.247314e-001
7.597233e+002,2.573151e+000
7.606875e+002,3.736603e+000
7.616517e+002,3.103271e+000
7.626160e+002,1.939072e+000
7.635802e+002,1.553497e-001
7.645444e+002,-1.551514e+000
7.655087e+002,-1.587128e+000
7.664729e+002,1.130280e+000
7.674371e+002,3.115189e+000
7.684014e+002,3.939499e+000
7.693656e+002,4.285065e+000
7.703298e+002,4.684830e+000
7.712941e+002,5.177078e+000
7.722583e+002,5.210403e+000
7.732225e+002,4.166275e+000
7.741868e+002,2.611710e+000
7.751510e+002,4.115906e-001
7.761152e+002,-1.892944e+000
7.770795e+002,-3.252045e+000
7.780437e+002,-2.742035e+000
7.790079e+002,-6.133575e-001
7.799722e+002,1.755157e+000
7.809364e+002,4.660614e+000
7.819006e+002,6.278168e+000
7.828649e+002,5.176758e+000
7.838291e+002,2.353226e+000
7.847933e+002,1.028458e+000
7.857576e+002,2.272247e+000
7.867218e+002,3.036591e+000
7.876860e+002,2.640381e+000
7.886503e+002,1.966141e+000
7.896145e+002,1.441971e+000
7.905787e+002,1.285294e+000
7.915430e+002,2.074615e+000
7.925072e+002,5.711990e+000
7.934714e+002,9.596741e+000
7.944357e+002,1.075760e+001
7.953999e+002,9.299606e+000
7.963641e+002,6.934692e+000
7.973284e+002,5.487701e+000
7.982926e+002,5.009171e+000
7.992568e+002,4.844040e+000
8.002211e+002,4.793579e+000
8.011853e+002,4.698578e+000
8.021495e+002,5.041367e+000
8.031138e+002,5.701538e+000
8.040780e+002,5.457138e+000
8.050422e+002,2.533661e+000
8.060065e+002,1.003738e+000
8.069707e+002,3.115341e+000
8.079349e+002,6.314941e+000
8.088992e+002,8.190033e+000
8.098634e+002,7.944748e+000
8.108276e+002,6.820313e+000
8.117919e+002,6.352249e+000
8.127561e+002,6.024200e+000
8.137203e+002,5.014694e+000
8.146846e+002,3.397720e+000
8.156488e+002,2.147751e+000
8.166130e+002,2.479736e+000
8.175773e+002,4.773438e+000
8.185415e+002,6.133728e+000
8.195057e+002,5.892532e+000
8.204700e+002,5.502670e+000
8.214342e+002,5.094330e+000
8.223984e+002,4.914688e+000
8.233627e+002,5.637711e+000
8.243269e+002,8.024033e+000
8.252911e+002,1.042255e+001
8.262554e+002,1.213223e+001
8.272196e+002,1.320901e+001
8.281838e+002,1.378796e+001
8.291481e+002,1.385858e+001
8.301123e+002,1.308023e+001
8.310765e+002,1.052574e+001
8.320408e+002,6.413834e+000
8.330050e+002,3.845459e+000
8.339692e+002,3.233063e+000
8.349335e+002,3.528946e+000
8.358977e+002,3.869904e+000
8.368619e+002,4.349518e+000
8.378262e+002,4.739105e+000
8.387904e+002,5.123505e+000
8.397546e+002,5.097137e+000
8.407189e+002,3.974777e+000
8.416831e+002,2.534210e+000
8.426473e+002,2.183899e+000
8.436116e+002,3.735794e+000
8.445758e+002,5.805023e+000
8.455400e+002,7.139664e+000
8.465043e+002,7.750580e+000
8.474685e+002,7.542816e+000
8.484327e+002,6.703049e+000
8.493970e+002,5.738373e+000
8.503612e+002,5.320435e+000
8.513254e+002,5.446762e+000
8.522897e+002,6.104523e+000
8.532539e+002,7.865067e+000
8.542181e+002,9.201859e+000
8.551824e+002,9.255798e+000
8.561466e+002,8.269623e+000
8.571108e+002,7.134125e+000
8.580751e+002,4.544891e+000
8.590393e+002,3.303741e+000
8.600035e+002,5.194122e+000
8.609678e+002,8.566513e+000
8.619320e+002,1.176398e+001
8.628962e+002,1.401976e+001
8.638605e+002,1.552725e+001
8.648247e+002,1.649738e+001
8.657889e+002,1.685869e+001
8.667532e+002,1.624207e+001
8.677174e+002,1.460487e+001
8.686816e+002,1.291747e+001
8.696459e+002,1.235558e+001
8.706101e+002,1.316034e+001
8.715743e+002,1.385884e+001
8.725386e+002,1.462123e+001
8.735028e+002,1.511423e+001
8.744670e+002,1.474367e+001
8.754313e+002,1.397742e+001
8.763955e+002,1.377399e+001
8.773597e+002,1.452660e+001
8.783240e+002,1.587616e+001
8.792882e+002,1.832062e+001
8.802524e+002,2.057591e+001
8.812167e+002,2.107735e+001
8.821809e+002,1.985501e+001
8.831451e+002,1.853703e+001
8.841094e+002,1.934930e+001
8.850736e+002,2.222487e+001
8.860378e+002,2.314276e+001
8.870021e+002,2.148943e+001
8.879663e+002,2.003865e+001
8.889305e+002,2.067889e+001
8.898948e+002,2.284160e+001
8.908590e+002,2.366164e+001
8.918232e+002,2.158591e+001
8.927875e+002,2.071661e+001
8.937517e+002,2.292451e+001
8.947159e+002,2.581114e+001
8.956802e+002,2.725813e+001
8.966444e+002,2.679005e+001
8.976086e+002,2.560497e+001
8.985729e+002,2.474895e+001
8.995371e+002,2.437144e+001
9.005013e+002,2.454971e+001
9.014656e+002,2.526584e+001
9.024298e+002,2.620390e+001
9.033940e+002,2.705815e+001
9.043583e+002,2.774388e+001
9.053225e+002,2.841640e+001
9.062867e+002,2.938474e+001
9.072510e+002,2.967609e+001
9.082152e+002,2.854459e+001
9.091794e+002,2.749477e+001
9.101437e+002,2.839017e+001
9.111079e+002,3.153784e+001
9.120721e+002,3.410361e+001
9.130364e+002,3.345422e+001
9.140006e+002,3.229462e+001
9.149648e+002,3.248665e+001
9.159291e+002,3.359480e+001
9.168933e+002,3.428430e+001
9.178575e+002,3.356261e+001
9.188218e+002,3.170323e+001
9.197860e+002,2.954472e+001
9.207502e+002,2.693579e+001
9.217145e+002,2.593216e+001
9.226787e+002,2.810907e+001
9.236429e+002,3.125845e+001
9.246072e+002,3.213217e+001
9.255714e+002,3.015135e+001
9.265356e+002,2.844182e+001
9.274999e+002,2.754076e+001
9.284641e+002,2.684746e+001
9.294283e+002,2.672192e+001
9.303926e+002,2.662589e+001
9.313568e+002,2.531870e+001
9.323210e+002,2.202980e+001
9.332853e+002,1.864568e+001
9.342495e+002,1.915178e+001
9.352137e+002,2.141557e+001
9.361780e+002,2.234932e+001
9.371422e+002,2.137309e+001
9.381064e+002,1.957011e+001
9.390707e+002,1.811603e+001
9.400349e+002,1.670261e+001
9.409991e+002,1.689563e+001
9.419634e+002,2.093771e+001
9.429276e+002,2.345088e+001
9.438918e+002,2.200024e+001
9.448561e+002,1.852330e+001
9.458203e+002,1.615456e+001
9.467845e+002,1.574503e+001
9.477488e+002,1.668301e+001
9.487130e+002,1.954454e+001
9.496772e+002,2.273894e+001
9.506415e+002,2.541043e+001
9.516057e+002,2.721071e+001
9.525699e+002,2.765544e+001
9.535342e+002,2.621796e+001
9.544984e+002,2.319000e+001
9.554626e+002,2.166447e+001
9.564269e+002,2.203043e+001
9.573911e+002,2.245767e+001
9.583553e+002,2.229533e+001
9.593196e+002,2.191916e+001
9.602838e+002,2.204457e+001
9.612480e+002,2.284207e+001
9.622123e+002,2.333459e+001
9.631765e+002,2.285820e+001
9.641407e+002,2.249355e+001
9.651050e+002,2.305037e+001
9.660692e+002,2.400023e+001
9.670334e+002,2.417661e+001
9.679977e+002,2.290585e+001
9.689619e+002,2.111285e+001
9.699261e+002,2.050563e+001
9.708904e+002,2.070044e+001
9.718546e+002,2.100267e+001
9.728188e+002,2.113750e+001
9.737831e+002,2.163557e+001
9.747473e+002,2.349062e+001
9.757115e+002,2.714775e+001
9.766758e+002,2.997455e+001
9.776400e+002,3.241298e+001
9.786042e+002,3.368768e+001
9.795685e+002,3.277835e+001
9.805327e+002,3.074081e+001
9.814969e+002,2.898766e+001
9.824612e+002,2.807086e+001
9.834254e+002,2.761467e+001
9.843896e+002,2.791431e+001
9.853539e+002,2.777646e+001
9.863181e+002,2.514816e+001
9.872823e+002,2.046106e+001
9.882466e+002,1.644092e+001
9.892108e+002,1.558205e+001
9.901750e+002,1.747665e+001
9.911393e+002,1.791466e+001
9.921035e+002,1.443375e+001
9.930677e+002,1.285919e+001
9.940320e+002,1.495911e+001
9.949962e+002,1.809665e+001
9.959604e+002,1.986795e+001
9.969247e+002,2.014156e+001
9.978889e+002,2.038477e+001
9.988531e+002,2.074561e+001
9.998174e+002,2.156371e+001
1.000782e+003,2.354488e+001
1.001746e+003,2.609209e+001
1.002710e+003,2.834544e+001
1.003674e+003,2.988715e+001
1.004639e+003,3.090099e+001
1.005603e+003,3.170244e+001
1.006567e+003,3.222108e+001
1.007531e+003,3.254556e+001
1.008495e+003,3.263387e+001
1.009460e+003,3.267546e+001
1.010424e+003,3.326213e+001
1.011388e+003,3.402408e+001
1.012352e+003,3.311536e+001
1.013317e+003,2.917099e+001
1.014281e+003,2.569279e+001
1.015245e+003,2.371288e+001
1.016209e+003,2.239943e+001
1.017174e+003,2.126892e+001
1.018138e+003,2.024226e+001
1.019102e+003,1.954977e+001
1.020066e+003,1.947888e+001
1.021031e+003,1.972282e+001
1.021995e+003,1.903159e+001
1.022959e+003,1.748851e+001
1.023923e+003,1.600053e+001
1.024887e+003,1.490018e+001
1.025852e+003,1.386650e+001
1.026816e+003,1.225504e+001
1.027780e+003,9.833374e+000
1.028744e+003,8.426315e+000
1.029709e+003,9.194534e+000
1.030673e+003,9.722763e+000
1.031637e+003,9.088501e+000
1.032601e+003,7.796234e+000
1.033566e+003,6.517456e+000
1.034530e+003,5.546814e+000
1.035494e+003,5.147552e+000
1.036458e+003,6.089737e+000
1.037422e+003,7.386353e+000
1.038387e+003,7.321808e+000
1.039351e+003,5.910767e+000
1.040315e+003,4.128006e+000
1.041279e+003,2.632980e+000
1.042244e+003,1.567810e+000
1.043208e+003,1.485107e+000
1.044172e+003,3.206451e+000
1.045136e+003,4.283997e+000
1.046101e+003,4.610977e+000
1.047065e+003,4.510223e+000
1.048029e+003,3.851303e+000
1.048993e+003,2.856125e+000
1.049958e+003,2.271576e+000
1.050922e+003,2.568207e+000
1.051886e+003,3.273056e+000
1.052850e+003,4.205612e+000
1.053814e+003,5.027664e+000
1.054779e+003,5.021545e+000
1.055743e+003,4.155823e+000
1.056707e+003,3.364700e+000
1.057671e+003,3.816193e+000
1.058636e+003,5.496826e+000
1.059600e+003,6.574020e+000
1.060564e+003,6.876480e+000
1.061528e+003,7.172485e+000
1.062493e+003,7.244370e+000
1.063457e+003,7.324020e+000
1.064421e+003,8.119675e+000
1.065385e+003,9.700424e+000
1.066349e+003,1.021640e+001
1.067314e+003,7.889008e+000
1.068278e+003,5.175323e+000
1.069242e+003,3.895020e+000
1.070206e+003,3.476517e+000
1.071171e+003,2.648254e+000
1.072135e+003,9.552917e-001
1.073099e+003,-5.539398e-001
1.074063e+003,7.067871e-002
1.075028e+003,3.162537e+000
1.075992e+003,4.813232e+000
1.076956e+003,4.540482e+000
1.077920e+003,3.784317e+000
1.078885e+003,2.751785e+000
1.079849e+003,1.846207e+000
1.080813e+003,1.717865e+000
1.081777e+003,2.494705e+000
1.082741e+003,3.903900e+000
1.083706e+003,7.067627e+000
1.084670e+003,9.476349e+000
1.085634e+003,8.956451e+000
1.086598e+003,6.690414e+000
1.087563e+003,5.207382e+000
1.088527e+003,5.921890e+000
1.089491e+003,7.772079e+000
1.090455e+003,8.525070e+000
1.091420e+003,7.935944e+000
1.092384e+003,7.264832e+000
1.093348e+003,6.388290e+000
1.094312e+003,5.473923e+000
1.095276e+003,4.693222e+000
1.096241e+003,4.087738e+000
1.097205e+003,3.607178e+000
1.098169e+003,3.216476e+000
1.099133e+003,2.757645e+000
1.100098e+003,1.987671e+000
1.101062e+003,1.404160e+000
1.102026e+003,1.266479e+000
1.102990e+003,1.606506e+000
1.103955e+003,2.601563e+000
1.104919e+003,4.303574e+000
1.105883e+003,5.866592e+000
1.106847e+003,5.263107e+000
1.107812e+003,2.454330e+000
1.108776e+003,1.077728e+000
1.109740e+003,1.781021e+000
1.110704e+003,2.888367e+000
1.111668e+003,3.244400e+000
1.112633e+003,3.133667e+000
1.113597e+003,3.487457e+000
1.114561e+003,4.389175e+000
1.115525e+003,5.550720e+000
1.116490e+003,7.214401e+000
1.117454e+003,8.716660e+000
1.118418e+003,9.822800e+000
1.119382e+003,1.050987e+001
1.120347e+003,1.061774e+001
1.121311e+003,9.961288e+000
1.122275e+003,8.930573e+000
1.123239e+003,8.778976e+000
1.124203e+003,9.525085e+000
1.125168e+003,9.366898e+000
1.126132e+003,7.757034e+000
1.127096e+003,6.426102e+000
1.128060e+003,6.906708e+000
1.129025e+003,8.741943e+000
1.129989e+003,9.847900e+000
1.130953e+003,9.496094e+000
1.131917e+003,9.681839e+000
1.132882e+003,1.138689e+001
1.133846e+003,1.336160e+001
1.134810e+003,1.498981e+001
1.135774e+003,1.624281e+001
1.136739e+003,1.738257e+001
1.137703e+003,1.853883e+001
1.138667e+003,1.933186e+001
1.139631e+003,1.871512e+001
1.140595e+003,1.703282e+001
1.141560e+003,1.718398e+001
1.142524e+003,1.953313e+001
1.143488e+003,2.322466e+001
1.144452e+003,2.816359e+001
1.145417e+003,3.396619e+001
1.146381e+003,3.909784e+001
1.147345e+003,4.301601e+001
1.148309e+003,4.754565e+001
1.149274e+003,5.390030e+001
1.150238e+003,6.027495e+001
1.151202e+003,6.551648e+001
1.152166e+003,7.026160e+001
1.153130e+003,7.593149e+001
1.154095e+003,8.299812e+001
1.155059e+003,9.009073e+001
1.156023e+003,9.570566e+001
1.156987e+003,9.960332e+001
1.157952e+003,1.009800e+002
1.158916e+003,9.976865e+001
1.159880e+003,9.789453e+001
1.160844e+003,9.675523e+001
1.161809e+003,9.509396e+001
1.162773e+003,9.010718e+001
1.163737e+003,8.108525e+001
1.164701e+003,7.197365e+001
1.165666e+003,6.271783e+001
1.166630e+003,5.486932e+001
1.167594e+003,4.950999e+001
1.168558e+003,4.567053e+001
1.169522e+003,4.207767e+001
1.170487e+003,3.833252e+001
1.171451e+003,3.500706e+001
1.172415e+003,3.263074e+001
1.173379e+003,3.128139e+001
1.174344e+003,3.189334e+001
1.175308e+003,3.466219e+001
1.176272e+003,3.648441e+001
1.177236e+003,3.638185e+001
1.178201e+003,3.492216e+001
1.179165e+003,3.228931e+001
1.180129e+003,2.836369e+001
1.181093e+003,2.525406e+001
1.182057e+003,2.345348e+001
1.183022e+003,2.265784e+001
1.183986e+003,2.335799e+001
1.184950e+003,2.444748e+001
1.185914e+003,2.516272e+001
1.186879e+003,2.524217e+001
1.187843e+003,2.431207e+001
1.188807e+003,2.197253e+001
1.189771e+003,1.920415e+001
1.190736e+003,1.951352e+001
1.191700e+003,2.335373e+001
1.192664e+003,2.533134e+001
1.193628e+003,2.384442e+001
1.194593e+003,2.205554e+001
1.195557e+003,2.271063e+001
1.196521e+003,2.487439e+001
1.197485e+003,2.505646e+001
1.198449e+003,2.209178e+001
1.199414e+003,1.927452e+001
1.200378e+003,1.815285e+001
1.201342e+003,1.762880e+001
1.202306e+003,1.713800e+001
1.203271e+003,1.662671e+001
1.204235e+003,1.645470e+001
1.205199e+003,1.671385e+001
1.206163e+003,1.656984e+001
1.207128e+003,1.440814e+001
1.208092e+003,1.006499e+001
1.209056e+003,8.240845e+000
1.210020e+003,1.008881e+001
1.210984e+003,1.166219e+001
1.211949e+003,1.216199e+001
1.212913e+003,1.154530e+001
1.213877e+003,9.395309e+000
1.214841e+003,5.802460e+000
1.215806e+003,2.585098e+000
1.216770e+003,2.745056e-001
1.217734e+003,-1.231674e+000
1.218698e+003,-1.738083e+000
1.219663e+003,-1.909256e+000
1.220627e+003,-2.488251e+000
1.221591e+003,-3.625381e+000
1.222555e+003,-5.143509e+000
1.223520e+003,-6.885712e+000
1.224484e+003,-8.670975e+000
1.225448e+003,-9.859451e+000
1.226412e+003,-1.050819e+001
1.227376e+003,-1.029723e+001
1.228341e+003,-8.228699e+000
1.229305e+003,-6.520599e+000
1.230269e+003,-6.387344e+000
1.231233e+003,-7.476303e+000
1.232198e+003,-9.400085e+000
1.233162e+003,-1.213072e+001
1.234126e+003,-1.358713e+001
1.235090e+003,-1.113557e+001
1.236055e+003,-7.868088e+000
1.237019e+003,-7.282059e+000
1.237983e+003,-8.671631e+000
1.238947e+003,-9.901047e+000
1.239911e+003,-1.002325e+001
1.240876e+003,-9.558060e+000
1.241840e+003,-9.277618e+000
1.242804e+003,-9.171524e+000
1.243768e+003,-9.310730e+000
1.244733e+003,-1.014720e+001
1.245697e+003,-1.060745e+001
1.246661e+003,-1.072726e+001
1.247625e+003,-1.053249e+001
1.248590e+003,-9.629379e+000
1.249554e+003,-8.316437e+000
1.250518e+003,-7.544312e+000
1.251482e+003,-7.809113e+000
1.252447e+003,-8.652451e+000
1.253411e+003,-9.859985e+000
1.254375e+003,-1.092619e+001
1.255339e+003,-1.079474e+001
1.256303e+003,-9.415558e+000
1.257268e+003,-7.613800e+000
1.258232e+003,-5.656586e+000
1.259196e+003,-4.064087e+000
1.260160e+003,-4.032455e+000
1.261125e+003,-5.874939e+000
1.262089e+003,-6.750076e+000
1.263053e+003,-5.629730e+000
1.264017e+003,-4.599884e+000
1.264982e+003,-3.920517e+000
1.265946e+003,-3.639450e+000
1.266910e+003,-4.343048e+000
1.267874e+003,-5.516602e+000
1.268839e+003,-5.320801e+000
1.269803e+003,-2.496811e+000
1.270767e+003,1.227020e+000
1.271731e+003,2.527130e+000
1.272695e+003,1.409561e+000
1.273660e+003,-1.568604e-001
1.274624e+003,-2.519333e+000
1.275588e+003,-4.698898e+000
1.276552e+003,-6.070358e+000
1.277517e+003,-6.778687e+000
1.278481e+003,-7.317764e+000
1.279445e+003,-7.791748e+000
1.280409e+003,-7.389496e+000
1.281374e+003,-4.776672e+000
1.282338e+003,-2.667679e+000
1.283302e+003,-2.840790e+000
1.284266e+003,-4.024399e+000
1.285230e+003,-4.853790e+000
1.286195e+003,-5.080978e+000
1.287159e+003,-5.158859e+000
1.288123e+003,-5.414551e+000
1.289087e+003,-5.816086e+000
1.290052e+003,-6.502686e+000
1.291016e+003,-7.910828e+000
1.291980e+003,-8.174789e+000
1.292944e+003,-6.060059e+000
1.293909e+003,-4.666901e+000
1.294873e+003,-5.607910e+000
1.295837e+003,-7.559525e+000
1.296801e+003,-8.898102e+000
1.297766e+003,-9.351456e+000
1.298730e+003,-9.056061e+000
1.299694e+003,-7.696960e+000
1.300658e+003,-6.478699e+000
1.301622e+003,-7.124832e+000
1.302587e+003,-8.544800e+000
1.303551e+003,-8.940140e+000
1.304515e+003,-8.032059e+000
1.305479e+003,-6.970901e+000
1.306444e+003,-6.758804e+000
1.307408e+003,-7.121414e+000
1.308372e+003,-6.851242e+000
1.309336e+003,-5.380356e+000
1.310301e+003,-5.089371e+000
1.311265e+003,-7.368240e+000
1.312229e+003,-9.123032e+000
1.313193e+003,-9.081528e+000
1.314157e+003,-8.359055e+000
1.315122e+003,-8.119949e+000
1.316086e+003,-8.546295e+000
1.317050e+003,-9.134811e+000
1.318014e+003,-9.512756e+000
1.318979e+003,-9.874817e+000
1.319943e+003,-1.088141e+001
1.320907e+003,-1.228738e+001
1.321871e+003,-1.240857e+001
1.322836e+003,-1.105232e+001
1.323800e+003,-9.311172e+000
1.324764e+003,-7.203934e+000
1.325728e+003,-5.314835e+000
1.326693e+003,-4.949783e+000
1.327657e+003,-6.223099e+000
1.328621e+003,-7.217957e+000
1.329585e+003,-7.299026e+000
1.330549e+003,-6.688370e+000
1.331514e+003,-4.915451e+000
1.332478e+003,-3.452087e+000
1.333442e+003,-4.020676e+000
1.334406e+003,-6.187973e+000
1.335371e+003,-8.242874e+000
1.336335e+003,-9.123215e+000
1.337299e+003,-9.027145e+000
1.338263e+003,-8.306854e+000
1.339228e+003,-6.861481e+000
1.340192e+003,-5.688293e+000
1.341156e+003,-4.686234e+000
1.342120e+003,-4.079208e+000
1.343084e+003,-4.062286e+000
1.344049e+003,-4.480942e+000
1.345013e+003,-5.432022e+000
1.345977e+003,-6.563950e+000
1.346941e+003,-7.014587e+000
1.347906e+003,-6.452942e+000
1.348870e+003,-5.714264e+000
1.349834e+003,-5.581573e+000
1.350798e+003,-5.851303e+000
1.351763e+003,-5.922913e+000
1.352727e+003,-5.843719e+000
1.353691e+003,-6.167221e+000
1.354655e+003,-7.256927e+000
1.355620e+003,-8.198593e+000
1.356584e+003,-7.649857e+000
1.357548e+003,-5.795639e+000
1.358512e+003,-4.558960e+000
1.359476e+003,-4.093063e+000
1.360441e+003,-4.351379e+000
1.361405e+003,-6.423462e+000
1.362369e+003,-7.911804e+000
1.363333e+003,-6.579208e+000
1.364298e+003,-4.416565e+000
1.365262e+003,-4.768143e+000
1.366226e+003,-7.966141e+000
1.367190e+003,-1.094359e+001
1.368155e+003,-1.094925e+001
1.369119e+003,-8.944382e+000
1.370083e+003,-7.911484e+000
1.371047e+003,-8.059952e+000
1.372011e+003,-8.198792e+000
1.372976e+003,-9.001373e+000
1.373940e+003,-9.124725e+000
1.374904e+003,-7.159912e+000
1.375868e+003,-4.755264e+000
1.376833e+003,-4.426682e+000
1.377797e+003,-6.057907e+000
1.378761e+003,-6.919907e+000
1.379725e+003,-5.647644e+000
1.380690e+003,-3.898666e+000
1.381654e+003,-3.282883e+000
1.382618e+003,-3.266510e+000
1.383582e+003,-3.096359e+000
1.384547e+003,-2.798538e+000
1.385511e+003,-2.985931e+000
1.386475e+003,-4.087723e+000
1.387439e+003,-5.551544e+000
1.388403e+003,-6.501312e+000
1.389368e+003,-6.947662e+000
1.390332e+003,-7.466888e+000
1.391296e+003,-8.301819e+000
1.392260e+003,-8.595230e+000
1.393225e+003,-8.179062e+000
1.394189e+003,-7.280609e+000
1.395153e+003,-5.347885e+000
1.396117e+003,-3.304077e+000
1.397082e+003,-2.734711e+000
1.398046e+003,-3.789566e+000
1.399010e+003,-4.860199e+000
1.399974e+003,-4.516190e+000
1.400938e+003,-3.370956e+000
1.401903e+003,-3.039398e+000
1.402867e+003,-3.436752e+000
1.403831e+003,-4.010574e+000
1.404795e+003,-5.749527e+000
1.405760e+003,-6.591629e+000
1.406724e+003,-5.413788e+000
1.407688e+003,-3.573898e+000
1.408652e+003,-2.282639e+000
1.409617e+003,-1.594238e+000
1.410581e+003,-1.447800e+000
1.411545e+003,-1.915024e+000
1.412509e+003,-2.445724e+000
1.413474e+003,-2.640717e+000
1.414438e+003,-2.626236e+000
1.415402e+003,-2.407974e+000
1.416366e+003,-1.925079e+000
1.417330e+003,-1.196915e+000
1.418295e+003,-1.220093e-001
1.419259e+003,7.924957e-001
1.420223e+003,9.668579e-001
1.421187e+003,3.663788e-001
1.422152e+003,-1.096344e+000
1.423116e+003,-3.926620e+000
1.424080e+003,-5.579559e+000
1.425044e+003,-4.591217e+000
1.426009e+003,-3.259171e+000
1.426973e+003,-2.183319e+000
1.427937e+003,-1.493210e+000
1.428901e+003,-1.369461e+000
1.429865e+003,-1.661819e+000
1.430830e+003,-1.993073e+000
1.431794e+003,-2.149368e+000
1.432758e+003,-2.124756e+000
1.433722e+003,-1.759888e+000
1.434687e+003,-8.716583e-001
1.435651e+003,-1.503906e-001
1.436615e+003,-1.086426e-001
1.437579e+003,-1.214294e-001
1.438544e+003,-1.354675e-001
1.439508e+003,-1.032257e-001
1.440472e+003,-8.964539e-002
1.441436e+003,1.473694e-001
1.442401e+003,1.369827e+000
1.443365e+003,3.516205e+000
1.444329e+003,4.608536e+000
1.445293e+003,2.986313e+000
1.446257e+003,1.627045e-001
1.447222e+003,-1.187592e+000
1.448186e+003,-1.262070e+000
1.449150e+003,-9.302063e-001
1.450114e+003,-3.494415e-001
1.451079e+003,8.427277e-001
1.452043e+003,3.904938e+000
1.453007e+003,7.063187e+000
1.453971e+003,7.619644e+000
1.454936e+003,5.763611e+000
1.455900e+003,3.122787e+000
1.456864e+003,-6.124573e-001
1.457828e+003,-2.624878e+000
1.458792e+003,7.043762e-001
1.459757e+003,4.529785e+000
1.460721e+003,4.774414e+000
1.461685e+003,2.499954e+000
1.462649e+003,-2.568970e-001
1.463614e+003,-2.698425e+000
1.464578e+003,-3.912231e+000
1.465542e+003,-2.939621e+000
1.466506e+003,-5.725098e-001
1.467471e+003,1.109818e+000
1.468435e+003,2.275574e+000
1.469399e+003,2.489441e+000
1.470363e+003,5.687103e-001
1.471328e+003,-9.160461e-001
1.472292e+003,-1.576065e+000
1.473256e+003,-1.651123e+000
1.474220e+003,-7.613220e-001
1.475184e+003,5.874329e-001
1.476149e+003,1.238297e+000
1.477113e+003,9.116974e-001
1.478077e+003,7.066498e-001
1.479041e+003,1.760605e+000
1.480006e+003,3.906723e+000
1.480970e+003,6.516968e+000
1.481934e+003,1.019864e+001
1.482898e+003,1.103880e+001
1.483863e+003,6.949265e+000
1.484827e+003,3.254501e+000
1.485791e+003,6.998596e-001
1.486755e+003,-1.643372e-001
1.487719e+003,2.162460e+000
1.488684e+003,6.331223e+000
1.489648e+003,8.739059e+000
1.490612e+003,8.350815e+000
1.491576e+003,8.158905e+000
1.492541e+003,1.094644e+001
1.493505e+003,1.480252e+001
1.494469e+003,1.479836e+001
1.495433e+003,1.166444e+001
1.496398e+003,1.091365e+001
1.497362e+003,1.413281e+001
1.498326e+003,1.723911e+001
1.499290e+003,1.761493e+001
1.500255e+003,1.701375e+001
1.501219e+003,1.768855e+001
1.502183e+003,1.951396e+001
1.503147e+003,2.139948e+001
1.504111e+003,2.296376e+001
1.505076e+003,2.537889e+001
1.506040e+003,3.011128e+001
1.507004e+003,3.521596e+001
1.507968e+003,3.828650e+001
1.508933e+003,4.039969e+001
1.509897e+003,4.374118e+001
1.510861e+003,4.888092e+001
1.511825e+003,5.520830e+001
1.512790e+003,6.234146e+001
1.513754e+003,6.999336e+001
1.514718e+003,7.770816e+001
1.515682e+003,8.538492e+001
1.516646e+003,9.370544e+001
1.517611e+003,1.031664e+002
1.518575e+003,1.124664e+002
1.519539e+003,1.219438e+002
1.520503e+003,1.305925e+002
1.521468e+003,1.381537e+002
1.522432e+003,1.443329e+002
1.523396e+003,1.489724e+002
1.524360e+003,1.518922e+002
1.525325e+003,1.527519e+002
1.526289e+003,1.513472e+002
1.527253e+003,1.483032e+002
1.528217e+003,1.447014e+002
1.529182e+003,1.406421e+002
1.530146e+003,1.352707e+002
1.531110e+003,1.283239e+002
1.532074e+003,1.202506e+002
1.533039e+003,1.108115e+002
1.534003e+003,1.002372e+002
1.534967e+003,8.824220e+001
1.535931e+003,7.590515e+001
1.536896e+003,6.365546e+001
1.537860e+003,5.221397e+001
1.538824e+003,4.294746e+001
1.539788e+003,3.643303e+001
1.540752e+003,3.146275e+001
1.541717e+003,2.649359e+001
1.542681e+003,2.177655e+001
1.543645e+003,1.844455e+001
1.544609e+003,1.726909e+001
1.545573e+003,1.587843e+001
1.546538e+003,1.377373e+001
1.547502e+003,1.182393e+001
1.548466e+003,1.013544e+001
1.549430e+003,9.164780e+000
1.550395e+003,9.818039e+000
1.551359e+003,1.140413e+001
1.552323e+003,1.195361e+001
1.553287e+003,1.085912e+001
1.554252e+003,9.655960e+000
1.555216e+003,9.705063e+000
1.556180e+003,1.046913e+001
1.557144e+003,1.094202e+001
1.558109e+003,1.113307e+001
1.559073e+003,9.823166e+000
1.560037e+003,5.612762e+000
1.561001e+003,2.516159e+000
1.561966e+003,2.765121e+000
1.562930e+003,4.064819e+000
1.563894e+003,4.131607e+000
1.564858e+003,3.463348e+000
1.565823e+003,3.673798e+000
1.566787e+003,5.023666e+000
1.567751e+003,6.498016e+000
1.568715e+003,7.676956e+000
1.569679e+003,8.427383e+000
1.570644e+003,8.351593e+000
1.571608e+003,7.647812e+000
1.572572e+003,6.937561e+000
1.573536e+003,6.285385e+000
1.574500e+003,6.494110e+000
1.575465e+003,8.657013e+000
1.576429e+003,1.036691e+001
1.577393e+003,8.994171e+000
1.578357e+003,6.036880e+000
1.579322e+003,4.322174e+000
1.580286e+003,4.085052e+000
1.581250e+003,4.985413e+000
1.582214e+003,7.294739e+000
1.583179e+003,9.299545e+000
1.584143e+003,9.481033e+000
1.585107e+003,8.782730e+000
1.586071e+003,8.529434e+000
1.587036e+003,8.726868e+000
1.588000e+003,9.100815e+000
1.588964e+003,9.539566e+000
1.589928e+003,9.831268e+000
1.590893e+003,9.676941e+000
1.591857e+003,9.485779e+000
1.592821e+003,9.946991e+000
1.593785e+003,1.097218e+001
1.594750e+003,1.205028e+001
1.595714e+003,1.317024e+001
1.596678e+003,1.368301e+001
1.597642e+003,1.305807e+001
1.598606e+003,1.216310e+001
1.599571e+003,1.150957e+001
1.600535e+003,1.118025e+001
1.601499e+003,1.123831e+001
1.602463e+003,1.167790e+001
1.603427e+003,1.267511e+001
1.604392e+003,1.440582e+001
1.605356e+003,1.595879e+001
1.606320e+003,1.640060e+001
1.607284e+003,1.597260e+001
1.608249e+003,1.518896e+001
1.609213e+003,1.403030e+001
1.610177e+003,1.332758e+001
1.611141e+003,1.351913e+001
1.612106e+003,1.342599e+001
1.613070e+003,1.192471e+001
1.614034e+003,1.042131e+001
1.614998e+003,9.751480e+000
1.615963e+003,9.873138e+000
1.616927e+003,1.105727e+001
1.617891e+003,1.302663e+001
1.618855e+003,1.408730e+001
1.619820e+003,1.307327e+001
1.620784e+003,1.122672e+001
1.621748e+003,1.037227e+001
1.622712e+003,1.052448e+001
1.623677e+003,1.107024e+001
1.624641e+003,1.211432e+001
1.625605e+003,1.299109e+001
1.626569e+003,1.346298e+001
1.627533e+003,1.340176e+001
1.628498e+003,1.246768e+001
1.629462e+003,1.147408e+001
1.630426e+003,1.085535e+001
1.631390e+003,1.074844e+001
1.632354e+003,1.177628e+001
1.633319e+003,1.382916e+001
1.634283e+003,1.484996e+001
1.635247e+003,1.304919e+001
1.636211e+003,1.012846e+001
1.637176e+003,9.315292e+000
1.638140e+003,1.049771e+001
1.639104e+003,1.122142e+001
1.640068e+003,1.121927e+001
1.641033e+003,1.136836e+001
1.641997e+003,1.207878e+001
1.642961e+003,1.279993e+001
1.643925e+003,1.355058e+001
1.644890e+003,1.394157e+001
1.645854e+003,1.302554e+001
1.646818e+003,1.148039e+001
1.647782e+003,1.133150e+001
1.648747e+003,1.306996e+001
1.649711e+003,1.454054e+001
1.650675e+003,1.381491e+001
1.651639e+003,1.221504e+001
1.652604e+003,1.288028e+001
1.653568e+003,1.560468e+001
1.654532e+003,1.550691e+001
1.655496e+003,1.117680e+001
1.656460e+003,8.257797e+000
1.657425e+003,9.568863e+000
1.658389e+003,1.108263e+001
1.659353e+003,1.009116e+001
1.660317e+003,8.545578e+000
1.661281e+003,8.713806e+000
1.662246e+003,1.018736e+001
1.663210e+003,1.133910e+001
1.664174e+003,1.164578e+001
1.665138e+003,1.134892e+001
1.666103e+003,1.043030e+001
1.667067e+003,9.284073e+000
1.668031e+003,8.843369e+000
1.668995e+003,9.075424e+000
1.669960e+003,9.058167e+000
1.670924e+003,8.594391e+000
1.671888e+003,8.609940e+000
1.672852e+003,9.854477e+000
1.673817e+003,1.086534e+001
1.674781e+003,1.050047e+001
1.675745e+003,9.586304e+000
1.676709e+003,8.897812e+000
1.677674e+003,8.476303e+000
1.678638e+003,8.266220e+000
1.679602e+003,8.248901e+000
1.680566e+003,7.985153e+000
1.681531e+003,7.076370e+000
1.682495e+003,5.920120e+000
1.683459e+003,5.028381e+000
1.684423e+003,4.349701e+000
1.685387e+003,3.869049e+000
1.686352e+003,3.598770e+000
1.687316e+003,3.735641e+000
1.688280e+003,4.619720e+000
1.689244e+003,5.393692e+000
1.690208e+003,4.949448e+000
1.691173e+003,4.338135e+000
1.692137e+003,5.140900e+000
1.693101e+003,6.877716e+000
1.694065e+003,7.482239e+000
1.695030e+003,6.324402e+000
1.695994e+003,5.377716e+000
1.696958e+003,6.308868e+000
1.697922e+003,7.614090e+000
1.698887e+003,7.183365e+000
1.699851e+003,5.647186e+000
1.700815e+003,4.932770e+000
1.701779e+003,5.147690e+000
1.702744e+003,5.051773e+000
1.703708e+003,4.193512e+000
1.704672e+003,3.634903e+000
1.705636e+003,4.193970e+000
1.706601e+003,5.182449e+000
1.707565e+003,5.942719e+000
1.708529e+003,6.451614e+000
1.709493e+003,6.363861e+000
1.710458e+003,5.605499e+000
1.711422e+003,4.448318e+000
1.712386e+003,2.801483e+000
1.713350e+003,1.177139e+000
1.714314e+003,-3.856812e-001
1.715279e+003,-1.626785e+000
1.716243e+003,-2.040146e+000
1.717207e+003,-1.624512e+000
1.718171e+003,-3.535156e-001
1.719135e+003,1.792709e+000
1.720100e+003,3.263046e+000
1.721064e+003,2.761429e+000
1.722028e+003,1.718781e+000
1.722992e+003,2.636536e+000
1.723957e+003,4.961868e+000
1.724921e+003,4.756363e+000
1.725885e+003,1.363525e+000
1.726849e+003,-1.114670e+000
1.727814e+003,-1.606369e+000
1.728778e+003,-1.362183e+000
1.729742e+003,-5.912628e-001
1.730706e+003,3.213196e-001
1.731671e+003,1.036972e+000
1.732635e+003,1.431931e+000
1.733599e+003,1.601166e+000
1.734563e+003,1.587112e+000
1.735528e+003,9.072571e-001
1.736492e+003,-7.244110e-001
1.737456e+003,-1.936447e+000
1.738420e+003,-9.345398e-001
1.739385e+003,1.342331e+000
1.740349e+003,1.602173e+000
1.741313e+003,-6.495972e-001
1.742277e+003,-2.080902e+000
1.743241e+003,-1.960678e+000
1.744206e+003,-2.081482e+000
1.745170e+003,-2.947159e+000
1.746134e+003,-3.868317e+000
1.747098e+003,-4.753723e+000
1.748063e+003,-5.289291e+000
1.749027e+003,-4.979553e+000
1.749991e+003,-4.033478e+000
1.750955e+003,-3.111923e+000
1.751919e+003,-2.442078e+000
1.752884e+003,-1.595520e+000
1.753848e+003,-2.018738e-001
1.754812e+003,1.157867e+000
1.755776e+003,1.359589e+000
1.756741e+003,5.000000e-001
1.757705e+003,-9.512939e-001
1.758669e+003,-3.843842e+000
1.759633e+003,-4.981110e+000
1.760598e+003,-2.322021e+000
1.761562e+003,-4.779816e-001
1.762526e+003,-1.533142e+000
1.763490e+003,-2.957901e+000
1.764455e+003,-2.751038e+000
1.765419e+003,-1.792358e+000
1.766383e+003,-1.905045e+000
1.767347e+003,-3.078384e+000
1.768312e+003,-3.556259e+000
1.769276e+003,-2.515396e+000
1.770240e+003,-1.475189e+000
1.771204e+003,-2.157227e+000
1.772168e+003,-3.567184e+000
1.773133e+003,-3.438553e+000
1.774097e+003,-1.951874e+000
1.775061e+003,-9.646454e-001
1.776025e+003,-8.278198e-001
1.776990e+003,-3.896637e-001
1.777954e+003,1.358521e+000
1.778918e+003,2.353119e+000
1.779882e+003,7.568359e-002
1.780846e+003,-3.132767e+000
1.781811e+003,-3.890121e+000
1.782775e+003,-2.806549e+000
1.783739e+003,-1.913910e+000
1.784703e+003,-1.458130e+000
1.785668e+003,-1.269760e+000
1.786632e+003,-1.730087e+000
1.787596e+003,-2.039719e+000
1.788560e+003,-1.178741e+000
1.789525e+003,9.643555e-002
1.790489e+003,6.691895e-001
1.791453e+003,5.484314e-001
1.792417e+003,4.943848e-003
1.793382e+003,-8.090820e-001
1.794346e+003,-1.324448e+000
1.795310e+003,-1.243988e+000
1.796274e+003,-8.278809e-001
1.797239e+003,-1.948395e-001
1.798203e+003,4.393768e-001
1.799167e+003,-7.037354e-002
1.800131e+003,-2.231461e+000
1.801095e+003,-3.311066e+000
1.802060e+003,-2.715836e+000
1.803024e+003,-1.776016e+000
1.803988e+003,-1.275635e-001
1.804952e+003,1.120239e+000
1.805917e+003,1.134598e+000
1.806881e+003,7.529907e-001
1.807845e+003,9.900818e-001
1.808809e+003,1.536591e+000
1.809773e+003,1.362381e+000
1.810738e+003,4.095917e-001
1.811702e+003,-2.030792e-001
1.812666e+003,2.022552e-001
1.813630e+003,8.617096e-001
1.814595e+003,7.081909e-001
1.815559e+003,-1.927185e-002
1.816523e+003,-1.895905e-001
1.817487e+003,2.850342e-001
1.818452e+003,5.429993e-001
1.819416e+003,5.148010e-001
1.820380e+003,5.905457e-001
1.821344e+003,8.626404e-001
1.822309e+003,1.112183e+000
1.823273e+003,1.240524e+000
1.824237e+003,1.382889e+000
1.825201e+003,1.793640e+000
1.826166e+003,2.231674e+000
1.827130e+003,1.895020e+000
1.828094e+003,6.625519e-001
1.829058e+003,4.232788e-002
1.830022e+003,1.018082e+000
1.830987e+003,2.372238e+000
1.831951e+003,3.681061e+000
1.832915e+003,4.339081e+000
1.833879e+003,2.748077e+000
1.834844e+003,-1.687469e-001
1.835808e+003,-1.496216e+000
1.836772e+003,-8.692017e-001
1.837736e+003,1.155853e-001
1.838700e+003,7.474365e-001
1.839665e+003,1.108383e+000
1.840629e+003,1.307404e+000
1.841593e+003,1.329803e+000
1.842557e+003,1.060120e+000
1.843522e+003,4.998016e-001
1.844486e+003,-3.340149e-002
1.845450e+003,-1.861877e-001
1.846414e+003,-8.100281e-001
1.847379e+003,-3.078232e+000
1.848343e+003,-4.458420e+000
1.849307e+003,-3.499741e+000
1.850271e+003,-2.058914e+000
1.851236e+003,-1.571793e+000
1.852200e+003,-1.325317e+000
1.853164e+003,1.966248e-001
1.854128e+003,2.427414e+000
1.855093e+003,2.991592e+000
1.856057e+003,1.293625e+000
1.857021e+003,-7.907104e-002
1.857985e+003,1.084564e+000
1.858949e+003,3.253372e+000
1.859914e+003,3.865952e+000
1.860878e+003,3.170502e+000
1.861842e+003,2.232468e+000
1.862806e+003,1.010712e+000
1.863771e+003,6.760101e-001
1.864735e+003,1.588699e+000
1.865699e+003,2.498840e+000
1.866663e+003,3.095505e+000
1.867627e+003,3.223907e+000
1.868592e+003,2.364670e+000
1.869556e+003,1.027328e+000
1.870520e+003,3.836212e-001
1.871484e+003,3.101807e-001
1.872449e+003,-8.105469e-002
1.873413e+003,-9.690704e-001
1.874377e+003,-9.031372e-001
1.875341e+003,1.309113e+000
1.876306e+003,3.167923e+000
1.877270e+003,3.062454e+000
1.878234e+003,2.172943e+000
1.879198e+003,1.304306e+000
1.880163e+003,8.231201e-001
1.881127e+003,1.308777e+000
1.882091e+003,2.632507e+000
1.883055e+003,4.259872e+000
1.884020e+003,5.815216e+000
1.884984e+003,6.360077e+000
1.885948e+003,4.997940e+000
1.886912e+003,2.786484e+000
1.887876e+003,1.818710e+000
1.888841e+003,2.037033e+000
1.889805e+003,2.767761e+000
1.890769e+003,4.159088e+000
1.891733e+003,5.314362e+000
1.892698e+003,6.284363e+000
1.893662e+003,6.492798e+000
1.894626e+003,5.183853e+000
1.895590e+003,3.847214e+000
1.896554e+003,3.784760e+000
1.897519e+003,4.146576e+000
1.898483e+003,3.617950e+000
1.899447e+003,2.500122e+000
1.900411e+003,2.410645e+000
1.901376e+003,3.736389e+000
1.902340e+003,4.309830e+000
1.903304e+003,2.455673e+000
1.904268e+003,9.825592e-001
1.905233e+003,2.568359e+000
1.906197e+003,4.508270e+000
1.907161e+003,3.102676e+000
1.908125e+003,4.873047e-001
1.909090e+003,1.216415e+000
1.910054e+003,4.780411e+000
1.911018e+003,7.143860e+000
1.911982e+003,7.016464e+000
1.912947e+003,6.108170e+000
1.913911e+003,5.651962e+000
1.914875e+003,5.522369e+000
1.915839e+003,5.555054e+000
1.916803e+003,5.576752e+000
1.917768e+003,5.022888e+000
1.918732e+003,3.908493e+000
1.919696e+003,2.300659e+000
1.920660e+003,-5.144958e-001
1.921625e+003,-1.525131e+000
1.922589e+003,1.117401e+000
1.923553e+003,3.603256e+000
1.924517e+003,3.442688e+000
1.925481e+003,2.714066e+000
1.926446e+003,3.265335e+000
1.927410e+003,4.571991e+000
1.928374e+003,5.645538e+000
1.929338e+003,6.332199e+000
1.930303e+003,6.653961e+000
1.931267e+003,6.844208e+000
1.932231e+003,6.357178e+000
1.933195e+003,3.838333e+000
1.934160e+003,1.672653e+000
1.935124e+003,2.029526e+000
1.936088e+003,3.324356e+000
1.937052e+003,3.536865e+000
1.938017e+003,3.200104e+000
1.938981e+003,4.115219e+000
1.939945e+003,6.169128e+000
1.940909e+003,7.303787e+000
1.941874e+003,6.627731e+000
1.942838e+003,5.451706e+000
1.943802e+003,5.056473e+000
1.944766e+003,5.080338e+000
1.945730e+003,4.495667e+000
1.946695e+003,3.435287e+000
1.947659e+003,3.794678e+000
1.948623e+003,5.808563e+000
1.949587e+003,6.058197e+000
1.950552e+003,3.591675e+000
1.951516e+003,2.033722e+000
1.952480e+003,2.910919e+000
1.953444e+003,4.260971e+000
1.954408e+003,4.870544e+000
1.955373e+003,4.957840e+000
1.956337e+003,4.676956e+000
1.957301e+003,4.300583e+000
1.958265e+003,4.673599e+000
1.959230e+003,5.988647e+000
1.960194e+003,6.625214e+000
1.961158e+003,5.606735e+000
1.962122e+003,4.778046e+000
1.963087e+003,4.652542e+000
1.964051e+003,4.827621e+000
1.965015e+003,5.297089e+000
1.965979e+003,5.905624e+000
1.966944e+003,6.717957e+000
1.967908e+003,7.311874e+000
1.968872e+003,6.846756e+000
1.969836e+003,5.518143e+000
1.970801e+003,4.420624e+000
1.971765e+003,4.054886e+000
1.972729e+003,4.362671e+000
1.973693e+003,5.416168e+000
1.974657e+003,6.714203e+000
1.975622e+003,7.461288e+000
1.976586e+003,7.824631e+000
1.977550e+003,8.428986e+000
1.978514e+003,9.219131e+000
1.979479e+003,9.731186e+000
1.980443e+003,9.857254e+000
1.981407e+003,9.267151e+000
1.982371e+003,7.822144e+000
1.983335e+003,6.423889e+000
1.984300e+003,5.616592e+000
1.985264e+003,5.640244e+000
1.986228e+003,7.105362e+000
1.987192e+003,9.583054e+000
1.988157e+003,1.079593e+001
1.989121e+003,1.044728e+001
1.990085e+003,1.056041e+001
1.991049e+003,1.192218e+001
1.992014e+003,1.224229e+001
1.992978e+003,1.009167e+001
1.993942e+003,8.354309e+000
1.994906e+003,8.133408e+000
1.995871e+003,8.543121e+000
1.996835e+003,9.456879e+000
1.997799e+003,1.033571e+001
1.998763e+003,1.028249e+001
1.999728e+003,9.407135e+000
