5.003444e+002,3.179382e+001
5.013087e+002,3.143802e+001
5.022729e+002,2.952625e+001
5.032371e+002,2.708566e+001
5.042014e+002,2.681555e+001
5.051656e+002,2.842581e+001
5.061298e+002,3.042291e+001
5.070941e+002,3.147406e+001
5.080583e+002,3.139542e+001
5.090225e+002,3.048083e+001
5.099868e+002,2.815567e+001
5.109510e+002,2.586188e+001
5.119152e+002,2.444125e+001
5.128795e+002,2.399915e+001
5.138437e+002,2.347238e+001
5.148079e+002,2.230630e+001
5.157722e+002,2.125122e+001
5.167364e+002,2.040485e+001
5.177006e+002,1.982156e+001
5.186649e+002,1.963733e+001
5.196291e+002,2.072110e+001
5.205933e+002,2.227850e+001
5.215576e+002,2.306287e+001
5.225218e+002,2.281845e+001
5.234860e+002,2.182675e+001
5.244503e+002,2.077856e+001
5.254145e+002,1.985419e+001
5.263787e+002,1.978674e+001
5.273430e+002,2.126215e+001
5.283072e+002,2.313516e+001
5.292714e+002,2.366287e+001
5.302357e+002,2.176059e+001
5.311999e+002,2.007776e+001
5.321641e+002,2.021634e+001
5.331284e+002,2.026434e+001
5.340926e+002,1.783600e+001
5.350568e+002,1.169125e+001
5.360211e+002,6.493774e+000
5.369853e+002,8.233459e+000
5.379495e+002,1.225375e+001
5.389138e+002,1.463565e+001
5.398780e+002,1.390469e+001
5.408422e+002,1.162122e+001
5.418065e+002,1.256158e+001
5.427707e+002,1.617429e+001
5.437349e+002,1.859512e+001
5.446992e+002,1.857043e+001
5.456634e+002,1.676636e+001
5.466276e+002,1.562845e+001
5.475919e+002,1.649664e+001
5.485561e+002,1.651013e+001
5.495203e+002,1.447620e+001
5.504846e+002,1.172348e+001
5.514488e+002,1.038071e+001
5.524130e+002,1.193454e+001
5.533773e+002,1.363266e+001
5.543415e+002,1.380389e+001
5.553057e+002,1.343527e+001
5.562700e+002,1.382419e+001
5.572342e+002,1.571127e+001
5.581984e+002,1.767743e+001
5.591627e+002,1.602295e+001
5.601269e+002,1.212747e+001
5.610911e+002,8.017822e+000
5.620554e+002,4.563263e+000
5.630196e+002,1.824860e+000
5.639838e+002,1.228790e+000
5.649481e+002,4.965271e+000
5.659123e+002,7.668457e+000
5.668765e+002,8.329773e+000
5.678408e+002,7.607452e+000
5.688050e+002,6.952209e+000
5.697692e+002,5.837311e+000
5.707335e+002,5.493622e+000
5.716977e+002,7.737976e+000
5.726619e+002,1.061444e+001
5.736262e+002,1.126569e+001
5.745904e+002,7.431244e+000
5.755546e+002,2.209473e+000
5.765189e+002,-1.682129e-001
5.774831e+002,-4.883423e-001
5.784473e+002,6.578064e-001
5.794116e+002,2.939056e+000
5.803758e+002,6.270233e+000
5.813400e+002,7.531311e+000
5.823043e+002,5.982635e+000
5.832685e+002,4.274078e+000
5.842327e+002,3.336182e+000
5.851970e+002,3.235199e+000
5.861612e+002,3.553284e+000
5.871254e+002,4.602417e+000
5.880897e+002,5.399200e+000
5.890539e+002,5.680542e+000
5.900181e+002,5.482513e+000
5.909824e+002,4.806732e+000
5.919466e+002,3.363678e+000
5.929108e+002,2.384308e+000
5.938751e+002,3.820465e+000
5.948393e+002,6.256439e+000
5.958035e+002,7.244049e+000
5.967678e+002,5.068573e+000
5.977320e+002,5.256042e-001
5.986962e+002,-3.590088e-001
5.996605e+002,2.157990e+000
6.006247e+002,4.343109e+000
6.015889e+002,4.329651e+000
6.025532e+002,2.309998e+000
6.035174e+002,8.623047e-001
6.044816e+002,-3.845215e-003
6.054459e+002,-8.886719e-002
6.064101e+002,1.533813e+000
6.073743e+002,3.807281e+000
6.083386e+002,4.803558e+000
6.093028e+002,3.021759e+000
6.102670e+002,8.602600e-001
6.112313e+002,-1.388855e-001
6.121955e+002,-2.326050e-001
6.131597e+002,3.365173e-001
6.141240e+002,1.379913e+000
6.150882e+002,2.725922e+000
6.160524e+002,3.907135e+000
6.170167e+002,5.042969e+000
6.179809e+002,5.968781e+000
6.189451e+002,6.595154e+000
6.199094e+002,6.770844e+000
6.208736e+002,6.085968e+000
6.218378e+002,3.209137e+000
6.228021e+002,1.441040e+000
6.237663e+002,1.790314e+000
6.247305e+002,3.305206e+000
6.256948e+002,4.379974e+000
6.266590e+002,4.189941e+000
6.276232e+002,3.432861e+000
6.285875e+002,2.519257e+000
6.295517e+002,1.748138e+000
6.305159e+002,1.358734e+000
6.314802e+002,1.424408e+000
6.324444e+002,1.754425e+000
6.334086e+002,2.401642e+000
6.343729e+002,3.332062e+000
6.353371e+002,3.843445e+000
6.363013e+002,3.587189e+000
6.372656e+002,2.700073e+000
6.382298e+002,1.846893e+000
6.391940e+002,1.307343e+000
6.401583e+002,2.184753e-001
6.411225e+002,-2.015656e+000
6.420867e+002,-4.102020e+000
6.430510e+002,-4.299530e+000
6.440152e+002,-1.573944e+000
6.449794e+002,3.000793e-001
6.459437e+002,-1.305481e+000
6.469079e+002,-3.873596e+000
6.478721e+002,-5.600372e+000
6.488364e+002,-5.732086e+000
6.498006e+002,-4.728882e+000
6.507648e+002,-2.836609e+000
6.517291e+002,-7.002869e-001
6.526933e+002,-4.257202e-002
6.536575e+002,-1.278076e+000
6.546218e+002,-3.359497e+000
6.555860e+002,-4.254028e+000
6.565502e+002,-3.276672e+000
6.575145e+002,-2.477509e+000
6.584787e+002,-1.623871e+000
6.594429e+002,-1.063080e+000
6.604072e+002,-1.357758e+000
6.613714e+002,-2.724365e+000
6.623356e+002,-3.407593e+000
6.632999e+002,-1.631226e+000
6.642641e+002,-3.112793e-002
6.652283e+002,-1.755066e-001
6.661926e+002,-1.826843e+000
6.671568e+002,-3.486481e+000
6.681210e+002,-3.539063e+000
6.690853e+002,-2.307281e+000
6.700495e+002,-3.192749e-001
6.710137e+002,2.290985e+000
6.719780e+002,4.171539e+000
6.729422e+002,3.723450e+000
6.739064e+002,2.441101e-001
6.748707e+002,-1.820923e+000
6.758349e+002,-1.553101e+000
6.767991e+002,-1.442566e+000
6.777634e+002,-2.570648e+000
6.787276e+002,-4.637817e+000
6.796918e+002,-6.225342e+000
6.806561e+002,-7.419739e+000
6.816203e+002,-7.592010e+000
6.825845e+002,-5.575958e+000
6.835488e+002,-2.559570e+000
6.845130e+002,-5.314636e-001
6.854772e+002,-1.053253e+000
6.864415e+002,-2.538239e+000
6.874057e+002,-1.488159e+000
6.883699e+002,1.107483e+000
6.893342e+002,3.436920e+000
6.902984e+002,4.579773e+000
6.912626e+002,4.666718e+000
6.922269e+002,4.193390e+000
6.931911e+002,3.026886e+000
6.941553e+002,2.037079e+000
6.951196e+002,1.306976e+000
6.960838e+002,4.252014e-001
6.970480e+002,-1.369232e+000
6.980123e+002,-4.914764e+000
6.989765e+002,-7.231262e+000
6.999407e+002,-6.746490e+000
7.009050e+002,-5.222076e+000
7.018692e+002,-4.012726e+000
7.028334e+002,-3.609009e+000
7.037977e+002,-3.371948e+000
7.047619e+002,-1.599915e+000
7.057261e+002,7.099304e-001
7.066904e+002,6.612244e-001
7.076546e+002,-2.219543e+000
7.086188e+002,-5.801971e+000
7.095831e+002,-6.645966e+000
7.105473e+002,-3.690308e+000
7.115115e+002,-1.460907e+000
7.124758e+002,1.822205e-001
7.134400e+002,1.039001e+000
7.144042e+002,8.578186e-001
7.153685e+002,-2.531433e-001
7.163327e+002,-1.403625e+000
7.172969e+002,-2.506989e+000
7.182612e+002,-3.205811e+000
7.192254e+002,-3.163086e+000
7.201896e+002,-2.696625e+000
7.211539e+002,-2.252655e+000
7.221181e+002,-2.106049e+000
7.230823e+002,-2.495819e+000
7.240466e+002,-4.643829e+000
7.250108e+002,-7.821777e+000
7.259750e+002,-9.307861e+000
7.269393e+002,-7.393738e+000
7.279035e+002,-2.865143e+000
7.288677e+002,-6.136169e-001
7.298320e+002,-2.943787e+000
7.307962e+002,-3.917511e+000
7.317604e+002,-1.915436e+000
7.327247e+002,1.214203e+000
7.336889e+002,2.538696e+000
7.346531e+002,4.880981e-001
7.356174e+002,-1.825653e+000
7.365816e+002,-2.723267e+000
7.375458e+002,-2.449005e+000
7.385101e+002,-5.803833e-001
7.394743e+002,2.584656e+000
7.404385e+002,5.734619e+000
7.414028e+002,6.681488e+000
7.423670e+002,5.355804e+000
7.433312e+002,3.953735e+000
7.442955e+002,2.906281e+000
7.452597e+002,2.101440e+000
7.462239e+002,1.077301e+000
7.471882e+002,-6.159363e-001
7.481524e+002,-8.335876e-001
7.491166e+002,1.554535e+000
7.500809e+002,3.283630e+000
7.510451e+002,2.874512e+000
7.520093e+002,7.420044e-001
7.529736e+002,-1.420288e+000
7.539378e+002,-2.852020e+000
7.549020e+002,-3.498169e+000
7.558663e+002,-3.249115e+000
7.568306e+002,-2.454803e+000
7.577948e+002,-1.622620e+000
7.587590e+002,-1.121643e+000
7.597233e+002,-8.996887e-001
7.606875e+002,-3.496704e-001
7.616517e+002,6.226501e-001
7.626160e+002,1.664825e+000
7.635802e+002,2.781738e+000
7.645444e+002,3.913422e+000
7.655087e+002,4.911285e+000
7.664729e+002,5.882965e+000
7.674371e+002,6.240967e+000
7.684014e+002,5.716797e+000
7.693656e+002,4.888489e+000
7.703298e+002,3.828522e+000
7.712941e+002,2.722870e+000
7.722583e+002,2.424255e+000
7.732225e+002,4.630615e+000
7.741868e+002,6.837524e+000
7.751510e+002,6.964966e+000
7.761152e+002,5.395844e+000
7.770795e+002,3.074646e+000
7.780437e+002,7.786865e-001
7.790079e+002,-1.301605e+000
7.799722e+002,-1.029053e-001
7.809364e+002,4.819366e+000
7.819006e+002,8.238129e+000
7.828649e+002,7.400696e+000
7.838291e+002,3.733459e+000
7.847933e+002,1.733551e+000
7.857576e+002,2.325714e+000
7.867218e+002,2.748291e+000
7.876860e+002,2.872559e+000
7.886503e+002,2.787537e+000
7.896145e+002,2.469727e+000
7.905787e+002,1.944458e+000
7.915430e+002,1.449860e+000
7.925072e+002,9.745483e-001
7.934714e+002,5.046082e-001
7.944357e+002,3.174438e-001
7.953999e+002,5.331421e-001
7.963641e+002,1.094025e+000
7.973284e+002,1.885376e+000
7.982926e+002,2.946228e+000
7.992568e+002,3.427246e+000
8.002211e+002,3.066589e+000
8.011853e+002,1.924225e+000
8.021495e+002,-5.706787e-001
8.031138e+002,-3.391296e+000
8.040780e+002,-3.577515e+000
8.050422e+002,9.703674e-001
8.060065e+002,5.099640e+000
8.069707e+002,7.652740e+000
8.079349e+002,8.531555e+000
8.088992e+002,6.940857e+000
8.098634e+002,3.074036e+000
8.108276e+002,-5.379944e-001
8.117919e+002,2.215881e-001
8.127561e+002,3.251984e+000
8.137203e+002,5.197052e+000
8.146846e+002,5.856140e+000
8.156488e+002,5.540161e+000
8.166130e+002,4.280334e+000
8.175773e+002,1.587250e+000
8.185415e+002,6.014099e-001
8.195057e+002,2.001587e+000
8.204700e+002,3.511169e+000
8.214342e+002,4.725494e+000
8.223984e+002,5.480865e+000
8.233627e+002,5.335236e+000
8.243269e+002,3.613251e+000
8.252911e+002,2.202148e+000
8.262554e+002,2.271912e+000
8.272196e+002,3.019287e+000
8.281838e+002,3.675476e+000
8.291481e+002,3.911682e+000
8.301123e+002,3.881989e+000
8.310765e+002,3.791504e+000
8.320408e+002,3.631042e+000
8.330050e+002,3.843384e+000
8.339692e+002,4.661072e+000
8.349335e+002,5.375824e+000
8.358977e+002,4.950958e+000
8.368619e+002,3.122467e+000
8.378262e+002,3.049438e+000
8.387904e+002,7.442169e+000
8.397546e+002,1.021240e+001
8.407189e+002,9.042755e+000
8.416831e+002,5.456238e+000
8.426473e+002,1.936493e+000
8.436116e+002,-6.436462e-001
8.445758e+002,-1.783630e+000
8.455400e+002,-6.015320e-001
8.465043e+002,1.530518e+000
8.474685e+002,3.743683e+000
8.484327e+002,5.763550e+000
8.493970e+002,7.316437e+000
8.503612e+002,7.627655e+000
8.513254e+002,6.304993e+000
8.522897e+002,5.789978e+000
8.532539e+002,6.186462e+000
8.542181e+002,6.851746e+000
8.551824e+002,7.926239e+000
8.561466e+002,9.491150e+000
8.571108e+002,1.044263e+001
8.580751e+002,8.712830e+000
8.590393e+002,7.821716e+000
8.600035e+002,1.087625e+001
8.609678e+002,1.468640e+001
8.619320e+002,1.480957e+001
8.628962e+002,9.733612e+000
8.638605e+002,3.696228e+000
8.648247e+002,3.789703e+000
8.657889e+002,7.585358e+000
8.667532e+002,9.949860e+000
8.677174e+002,1.022012e+001
8.686816e+002,1.019147e+001
8.696459e+002,1.226276e+001
8.706101e+002,1.716702e+001
8.715743e+002,1.926965e+001
8.725386e+002,1.601694e+001
8.735028e+002,1.354510e+001
8.744670e+002,1.352444e+001
8.754313e+002,1.498257e+001
8.763955e+002,1.617123e+001
8.773597e+002,1.659708e+001
8.783240e+002,1.691623e+001
8.792882e+002,1.752112e+001
8.802524e+002,1.813098e+001
8.812167e+002,1.858521e+001
8.821809e+002,1.882626e+001
8.831451e+002,1.886206e+001
8.841094e+002,1.872931e+001
8.850736e+002,1.857425e+001
8.860378e+002,1.843179e+001
8.870021e+002,1.804016e+001
8.879663e+002,1.804761e+001
8.889305e+002,1.910016e+001
8.898948e+002,2.083255e+001
8.908590e+002,2.159140e+001
8.918232e+002,2.051630e+001
8.927875e+002,2.007562e+001
8.937517e+002,2.109229e+001
8.947159e+002,2.265927e+001
8.956802e+002,2.395184e+001
8.966444e+002,2.466214e+001
8.976086e+002,2.504602e+001
8.985729e+002,2.554980e+001
8.995371e+002,2.613254e+001
9.005013e+002,2.636795e+001
9.014656e+002,2.643640e+001
9.024298e+002,2.692868e+001
9.033940e+002,2.827646e+001
9.043583e+002,3.005698e+001
9.053225e+002,3.017090e+001
9.062867e+002,2.527802e+001
9.072510e+002,2.287521e+001
9.082152e+002,2.578503e+001
9.091794e+002,2.995587e+001
9.101437e+002,3.098383e+001
9.111079e+002,2.812277e+001
9.120721e+002,2.540302e+001
9.130364e+002,2.487552e+001
9.140006e+002,2.515631e+001
9.149648e+002,2.626059e+001
9.159291e+002,2.775974e+001
9.168933e+002,2.876712e+001
9.178575e+002,2.857965e+001
9.188218e+002,2.751151e+001
9.197860e+002,2.717435e+001
9.207502e+002,2.756442e+001
9.217145e+002,2.628336e+001
9.226787e+002,2.153241e+001
9.236429e+002,1.665555e+001
9.246072e+002,1.673914e+001
9.255714e+002,2.296631e+001
9.265356e+002,2.705188e+001
9.274999e+002,2.607693e+001
9.284641e+002,2.429272e+001
9.294283e+002,2.286298e+001
9.303926e+002,2.188025e+001
9.313568e+002,2.110712e+001
9.323210e+002,2.042020e+001
9.332853e+002,1.968436e+001
9.342495e+002,1.831775e+001
9.352137e+002,1.679352e+001
9.361780e+002,1.630704e+001
9.371422e+002,1.723804e+001
9.381064e+002,1.871921e+001
9.390707e+002,1.945630e+001
9.400349e+002,1.924539e+001
9.409991e+002,1.814523e+001
9.419634e+002,1.405951e+001
9.429276e+002,1.174316e+001
9.438918e+002,1.382175e+001
9.448561e+002,1.808743e+001
9.458203e+002,2.075809e+001
9.467845e+002,2.066650e+001
9.477488e+002,2.001193e+001
9.487130e+002,2.025766e+001
9.496772e+002,2.068561e+001
9.506415e+002,2.070410e+001
9.516057e+002,2.030878e+001
9.525699e+002,1.988913e+001
9.535342e+002,1.980939e+001
9.544984e+002,1.989325e+001
9.554626e+002,1.909650e+001
9.564269e+002,1.728464e+001
9.573911e+002,1.661136e+001
9.583553e+002,1.848569e+001
9.593196e+002,2.134094e+001
9.602838e+002,2.249054e+001
9.612480e+002,2.132629e+001
9.622123e+002,2.028882e+001
9.631765e+002,2.033096e+001
9.641407e+002,2.054919e+001
9.651050e+002,2.061096e+001
9.660692e+002,2.035855e+001
9.670334e+002,1.962726e+001
9.679977e+002,1.840390e+001
9.689619e+002,1.738129e+001
9.699261e+002,1.830316e+001
9.708904e+002,2.022238e+001
9.718546e+002,2.053235e+001
9.728188e+002,1.829037e+001
9.737831e+002,1.544867e+001
9.747473e+002,1.468494e+001
9.757115e+002,1.641483e+001
9.766758e+002,1.841919e+001
9.776400e+002,2.182999e+001
9.786042e+002,2.446124e+001
9.795685e+002,2.605856e+001
9.805327e+002,2.615723e+001
9.814969e+002,2.361905e+001
9.824612e+002,1.816479e+001
9.834254e+002,1.331985e+001
9.843896e+002,1.302863e+001
9.853539e+002,1.465430e+001
9.863181e+002,1.601031e+001
9.872823e+002,1.657596e+001
9.882466e+002,1.584286e+001
9.892108e+002,1.347162e+001
9.901750e+002,1.026175e+001
9.911393e+002,1.017017e+001
9.921035e+002,1.560001e+001
9.930677e+002,1.919815e+001
9.940320e+002,2.002200e+001
9.949962e+002,1.984576e+001
9.959604e+002,2.010165e+001
9.969247e+002,2.095648e+001
9.978889e+002,2.192401e+001
9.988531e+002,2.188739e+001
9.998174e+002,2.249661e+001
1.000782e+003,2.574500e+001
1.001746e+003,3.020856e+001
1.002710e+003,3.384882e+001
1.003674e+003,3.568393e+001
1.004639e+003,3.608682e+001
1.005603e+003,3.559506e+001
1.006567e+003,3.402670e+001
1.007531e+003,3.336755e+001
1.008495e+003,3.424701e+001
1.009460e+003,3.482404e+001
1.010424e+003,3.355118e+001
1.011388e+003,3.109000e+001
1.012352e+003,3.017722e+001
1.013317e+003,3.232465e+001
1.014281e+003,3.327142e+001
1.015245e+003,3.078574e+001
1.016209e+003,2.750076e+001
1.017174e+003,2.553168e+001
1.018138e+003,2.487009e+001
1.019102e+003,2.384979e+001
1.020066e+003,2.103192e+001
1.021031e+003,1.751120e+001
1.021995e+003,1.621362e+001
1.022959e+003,1.651440e+001
1.023923e+003,1.705212e+001
1.024887e+003,1.782379e+001
1.025852e+003,1.778229e+001
1.026816e+003,1.454825e+001
1.027780e+003,6.875427e+000
1.028744e+003,2.770782e+000
1.029709e+003,6.322174e+000
1.030673e+003,9.277954e+000
1.031637e+003,8.414307e+000
1.032601e+003,5.696320e+000
1.033566e+003,4.397064e+000
1.034530e+003,5.681427e+000
1.035494e+003,7.254883e+000
1.036458e+003,6.115906e+000
1.037422e+003,3.744385e+000
1.038387e+003,2.569153e+000
1.039351e+003,2.640594e+000
1.040315e+003,3.580933e+000
1.041279e+003,5.346558e+000
1.042244e+003,7.695160e+000
1.043208e+003,8.959778e+000
1.044172e+003,8.126404e+000
1.045136e+003,7.435425e+000
1.046101e+003,7.014771e+000
1.047065e+003,6.858765e+000
1.048029e+003,6.846008e+000
1.048993e+003,6.991669e+000
1.049958e+003,7.722870e+000
1.050922e+003,9.783997e+000
1.051886e+003,1.141846e+001
1.052850e+003,1.001239e+001
1.053814e+003,7.464325e+000
1.054779e+003,6.337280e+000
1.055743e+003,7.068970e+000
1.056707e+003,8.246979e+000
1.057671e+003,8.186249e+000
1.058636e+003,6.835297e+000
1.059600e+003,5.563812e+000
1.060564e+003,3.951691e+000
1.061528e+003,3.514252e+000
1.062493e+003,4.831848e+000
1.063457e+003,6.796295e+000
1.064421e+003,8.674988e+000
1.065385e+003,1.041757e+001
1.066349e+003,1.115009e+001
1.067314e+003,9.716858e+000
1.068278e+003,7.954437e+000
1.069242e+003,7.565125e+000
1.070206e+003,7.741913e+000
1.071171e+003,6.765625e+000
1.072135e+003,3.997833e+000
1.073099e+003,6.703491e-001
1.074063e+003,-1.011353e+000
1.075028e+003,-8.646851e-001
1.075992e+003,5.199585e-001
1.076956e+003,4.070190e+000
1.077920e+003,6.788025e+000
1.078885e+003,7.585999e+000
1.079849e+003,7.133820e+000
1.080813e+003,6.393402e+000
1.081777e+003,5.444580e+000
1.082741e+003,4.659119e+000
1.083706e+003,3.626373e+000
1.084670e+003,2.942505e+000
1.085634e+003,3.394043e+000
1.086598e+003,4.407562e+000
1.087563e+003,5.021210e+000
1.088527e+003,4.769135e+000
1.089491e+003,3.881439e+000
1.090455e+003,2.304626e+000
1.091420e+003,-2.282715e-001
1.092384e+003,-7.290649e-001
1.093348e+003,1.776123e+000
1.094312e+003,4.183136e+000
1.095276e+003,4.703583e+000
1.096241e+003,3.989166e+000
1.097205e+003,3.586639e+000
1.098169e+003,3.487885e+000
1.099133e+003,3.774902e+000
1.100098e+003,5.199860e+000
1.101062e+003,6.512878e+000
1.102026e+003,6.402557e+000
1.102990e+003,5.582550e+000
1.103955e+003,6.090515e+000
1.104919e+003,9.076782e+000
1.105883e+003,1.265747e+001
1.106847e+003,1.263812e+001
1.107812e+003,8.899933e+000
1.108776e+003,6.456085e+000
1.109740e+003,5.909027e+000
1.110704e+003,5.839325e+000
1.111668e+003,5.008972e+000
1.112633e+003,3.982849e+000
1.113597e+003,5.101105e+000
1.114561e+003,1.005875e+001
1.115525e+003,1.321140e+001
1.116490e+003,1.119507e+001
1.117454e+003,8.558655e+000
1.118418e+003,8.446320e+000
1.119382e+003,1.052307e+001
1.120347e+003,1.259692e+001
1.121311e+003,1.316772e+001
1.122275e+003,1.296249e+001
1.123239e+003,1.424179e+001
1.124203e+003,1.703979e+001
1.125168e+003,1.842075e+001
1.126132e+003,1.779187e+001
1.127096e+003,1.690118e+001
1.128060e+003,1.686649e+001
1.129025e+003,1.750052e+001
1.129989e+003,1.845419e+001
1.130953e+003,2.035635e+001
1.131917e+003,2.078085e+001
1.132882e+003,1.774435e+001
1.133846e+003,1.475064e+001
1.134810e+003,1.361801e+001
1.135774e+003,1.441476e+001
1.136739e+003,1.663388e+001
1.137703e+003,1.994812e+001
1.138667e+003,2.412512e+001
1.139631e+003,2.932184e+001
1.140595e+003,3.510532e+001
1.141560e+003,3.856335e+001
1.142524e+003,3.902182e+001
1.143488e+003,3.968314e+001
1.144452e+003,4.215405e+001
1.145417e+003,4.645200e+001
1.146381e+003,5.286700e+001
1.147345e+003,6.194986e+001
1.148309e+003,7.153964e+001
1.149274e+003,8.232001e+001
1.150238e+003,9.241223e+001
1.151202e+003,1.007492e+002
1.152166e+003,1.078906e+002
1.153130e+003,1.152903e+002
1.154095e+003,1.232836e+002
1.155059e+003,1.296241e+002
1.156023e+003,1.312962e+002
1.156987e+003,1.285684e+002
1.157952e+003,1.248246e+002
1.158916e+003,1.205320e+002
1.159880e+003,1.149724e+002
1.160844e+003,1.064789e+002
1.161809e+003,9.614072e+001
1.162773e+003,8.711292e+001
1.163737e+003,7.972733e+001
1.164701e+003,7.231720e+001
1.165666e+003,6.334708e+001
1.166630e+003,5.578128e+001
1.167594e+003,5.070297e+001
1.168558e+003,4.769028e+001
1.169522e+003,4.650323e+001
1.170487e+003,4.679837e+001
1.171451e+003,4.778281e+001
1.172415e+003,4.868164e+001
1.173379e+003,4.923343e+001
1.174344e+003,4.828101e+001
1.175308e+003,4.586996e+001
1.176272e+003,4.347507e+001
1.177236e+003,4.194012e+001
1.178201e+003,4.050269e+001
1.179165e+003,3.771863e+001
1.180129e+003,3.340668e+001
1.181093e+003,2.991058e+001
1.182057e+003,2.772906e+001
1.183022e+003,2.672830e+001
1.183986e+003,2.749423e+001
1.184950e+003,2.881973e+001
1.185914e+003,2.977167e+001
1.186879e+003,3.016818e+001
1.187843e+003,3.006055e+001
1.188807e+003,2.939957e+001
1.189771e+003,2.858112e+001
1.190736e+003,2.924258e+001
1.191700e+003,3.157880e+001
1.192664e+003,3.314990e+001
1.193628e+003,3.409238e+001
1.194593e+003,3.404797e+001
1.195557e+003,3.206128e+001
1.196521e+003,2.876950e+001
1.197485e+003,2.665286e+001
1.198449e+003,2.647824e+001
1.199414e+003,2.634180e+001
1.200378e+003,2.557642e+001
1.201342e+003,2.442468e+001
1.202306e+003,2.242239e+001
1.203271e+003,2.012332e+001
1.204235e+003,1.893524e+001
1.205199e+003,1.942960e+001
1.206163e+003,2.011026e+001
1.207128e+003,1.823526e+001
1.208092e+003,1.361115e+001
1.209056e+003,1.174985e+001
1.210020e+003,1.430225e+001
1.210984e+003,1.585098e+001
1.211949e+003,1.442194e+001
1.212913e+003,1.135190e+001
1.213877e+003,8.162323e+000
1.214841e+003,5.060303e+000
1.215806e+003,2.242950e+000
1.216770e+003,-6.041870e-001
1.217734e+003,-2.553375e+000
1.218698e+003,-2.785797e+000
1.219663e+003,-2.238708e+000
1.220627e+003,-2.035431e+000
1.221591e+003,-2.339722e+000
1.222555e+003,-2.395355e+000
1.223520e+003,-1.414032e+000
1.224484e+003,1.208801e-001
1.225448e+003,-5.260925e-001
1.226412e+003,-5.207642e+000
1.227376e+003,-7.999573e+000
1.228341e+003,-7.918518e+000
1.229305e+003,-7.269226e+000
1.230269e+003,-6.894989e+000
1.231233e+003,-6.967010e+000
1.232198e+003,-7.977661e+000
1.233162e+003,-1.006870e+001
1.234126e+003,-1.114792e+001
1.235090e+003,-8.692841e+000
1.236055e+003,-5.727997e+000
1.237019e+003,-6.201111e+000
1.237983e+003,-8.851898e+000
1.238947e+003,-9.604828e+000
1.239911e+003,-6.705658e+000
1.240876e+003,-3.133453e+000
1.241840e+003,-3.748932e+000
1.242804e+003,-8.912231e+000
1.243768e+003,-1.138950e+001
1.244733e+003,-8.686523e+000
1.245697e+003,-6.397644e+000
1.246661e+003,-5.050842e+000
1.247625e+003,-4.486389e+000
1.248590e+003,-4.708160e+000
1.249554e+003,-5.337311e+000
1.250518e+003,-5.794403e+000
1.251482e+003,-5.937012e+000
1.252447e+003,-5.859802e+000
1.253411e+003,-5.549408e+000
1.254375e+003,-4.838562e+000
1.255339e+003,-3.295135e+000
1.256303e+003,-8.933716e-001
1.257268e+003,1.065033e+000
1.258232e+003,1.635345e+000
1.259196e+003,1.156860e+000
1.260160e+003,4.076843e-001
1.261125e+003,-6.045532e-001
1.262089e+003,-8.212891e-001
1.263053e+003,-2.572937e-001
1.264017e+003,9.924316e-001
1.264982e+003,4.307373e+000
1.265946e+003,7.409485e+000
1.266910e+003,7.805237e+000
1.267874e+003,5.794098e+000
1.268839e+003,3.650574e+000
1.269803e+003,2.890656e+000
1.270767e+003,2.839447e+000
1.271731e+003,2.349487e+000
1.272695e+003,1.452942e+000
1.273660e+003,-2.333069e-001
1.274624e+003,-3.617432e+000
1.275588e+003,-6.178894e+000
1.276552e+003,-5.520020e+000
1.277517e+003,-3.262970e+000
1.278481e+003,-3.097351e+000
1.279445e+003,-5.521179e+000
1.280409e+003,-6.459961e+000
1.281374e+003,-3.065765e+000
1.282338e+003,5.914307e-002
1.283302e+003,3.643799e-002
1.284266e+003,-1.277008e+000
1.285230e+003,-1.605469e+000
1.286195e+003,-7.923584e-001
1.287159e+003,-3.389282e-001
1.288123e+003,-1.403778e+000
1.289087e+003,-3.399628e+000
1.290052e+003,-4.921204e+000
1.291016e+003,-6.154724e+000
1.291980e+003,-6.629364e+000
1.292944e+003,-5.636810e+000
1.293909e+003,-5.194458e+000
1.294873e+003,-6.629730e+000
1.295837e+003,-8.461609e+000
1.296801e+003,-8.360168e+000
1.297766e+003,-6.189209e+000
1.298730e+003,-4.488434e+000
1.299694e+003,-4.786987e+000
1.300658e+003,-5.980743e+000
1.301622e+003,-7.066223e+000
1.302587e+003,-7.902618e+000
1.303551e+003,-8.272308e+000
1.304515e+003,-8.098846e+000
1.305479e+003,-7.601563e+000
1.306444e+003,-7.059326e+000
1.307408e+003,-6.464325e+000
1.308372e+003,-5.392578e+000
1.309336e+003,-3.388824e+000
1.310301e+003,-2.395874e+000
1.311265e+003,-3.344818e+000
1.312229e+003,-4.039551e+000
1.313193e+003,-3.293945e+000
1.314157e+003,-2.434448e+000
1.315122e+003,-3.060760e+000
1.316086e+003,-5.207397e+000
1.317050e+003,-7.820343e+000
1.318014e+003,-1.021637e+001
1.318979e+003,-1.183243e+001
1.319943e+003,-1.147903e+001
1.320907e+003,-9.311584e+000
1.321871e+003,-7.694458e+000
1.322836e+003,-6.959839e+000
1.323800e+003,-6.771332e+000
1.324764e+003,-7.400665e+000
1.325728e+003,-8.164825e+000
1.326693e+003,-7.576355e+000
1.327657e+003,-5.658386e+000
1.328621e+003,-5.276886e+000
1.329585e+003,-8.192383e+000
1.330549e+003,-9.976257e+000
1.331514e+003,-8.008484e+000
1.332478e+003,-5.070313e+000
1.333442e+003,-3.342682e+000
1.334406e+003,-3.015747e+000
1.335371e+003,-3.701294e+000
1.336335e+003,-5.098328e+000
1.337299e+003,-6.488251e+000
1.338263e+003,-6.551422e+000
1.339228e+003,-5.166656e+000
1.340192e+003,-3.472534e+000
1.341156e+003,1.649780e-001
1.342120e+003,1.711517e+000
1.343084e+003,-1.185028e+000
1.344049e+003,-5.119354e+000
1.345013e+003,-7.525299e+000
1.345977e+003,-8.239502e+000
1.346941e+003,-7.798309e+000
1.347906e+003,-6.357544e+000
1.348870e+003,-4.666260e+000
1.349834e+003,-3.354980e+000
1.350798e+003,-2.441254e+000
1.351763e+003,-1.453156e+000
1.352727e+003,-4.973450e-001
1.353691e+003,-6.935730e-001
1.354655e+003,-2.777191e+000
1.355620e+003,-4.887756e+000
1.356584e+003,-4.267761e+000
1.357548e+003,-1.308380e+000
1.358512e+003,-3.736572e-001
1.359476e+003,-2.981323e+000
1.360441e+003,-4.649170e+000
1.361405e+003,-2.847137e+000
1.362369e+003,-1.176178e+000
1.363333e+003,-1.159729e+000
1.364298e+003,-2.483215e+000
1.365262e+003,-5.061249e+000
1.366226e+003,-8.395721e+000
1.367190e+003,-1.100568e+001
1.368155e+003,-1.156451e+001
1.369119e+003,-1.054532e+001
1.370083e+003,-9.320160e+000
1.371047e+003,-7.616150e+000
1.372011e+003,-6.531738e+000
1.372976e+003,-6.583313e+000
1.373940e+003,-6.936768e+000
1.374904e+003,-7.616333e+000
1.375868e+003,-8.059875e+000
1.376833e+003,-7.516998e+000
1.377797e+003,-6.076080e+000
1.378761e+003,-4.472687e+000
1.379725e+003,-2.865326e+000
1.380690e+003,-1.489716e+000
1.381654e+003,-4.820557e-001
1.382618e+003,1.471863e-001
1.383582e+003,3.551941e-001
1.384547e+003,1.113586e-001
1.385511e+003,-9.908142e-001
1.386475e+003,-3.575897e+000
1.387439e+003,-5.970764e+000
1.388403e+003,-4.819580e+000
1.389368e+003,-1.604309e-001
1.390332e+003,1.811157e+000
1.391296e+003,-4.996033e-001
1.392260e+003,-2.380035e+000
1.393225e+003,-3.039917e+000
1.394189e+003,-2.858459e+000
1.395153e+003,-1.278992e+000
1.396117e+003,6.874084e-001
1.397082e+003,1.475128e+000
1.398046e+003,8.631287e-001
1.399010e+003,1.594238e-001
1.399974e+003,4.646606e-001
1.400938e+003,1.105957e+000
1.401903e+003,5.041809e-001
1.402867e+003,-1.323120e+000
1.403831e+003,-2.136658e+000
1.404795e+003,-1.772614e+000
1.405760e+003,-1.158020e+000
1.406724e+003,-7.347107e-001
1.407688e+003,-7.648010e-001
1.408652e+003,-1.452911e+000
1.409617e+003,-2.402191e+000
1.410581e+003,-2.531647e+000
1.411545e+003,-1.302795e+000
1.412509e+003,1.887512e-001
1.413474e+003,9.074707e-001
1.414438e+003,8.476563e-001
1.415402e+003,-7.873535e-003
1.416366e+003,-1.237183e+000
1.417330e+003,-1.119049e+000
1.418295e+003,1.465179e+000
1.419259e+003,3.933746e+000
1.420223e+003,2.116638e+000
1.421187e+003,-3.019165e+000
1.422152e+003,-4.154388e+000
1.423116e+003,5.351868e-001
1.424080e+003,4.418060e+000
1.425044e+003,5.355804e+000
1.426009e+003,5.053680e+000
1.426973e+003,3.268250e+000
1.427937e+003,1.140900e+000
1.428901e+003,3.317261e-002
1.429865e+003,9.683228e-002
1.430830e+003,6.307678e-001
1.431794e+003,1.067505e+000
1.432758e+003,1.271210e+000
1.433722e+003,1.112152e+000
1.434687e+003,7.073364e-001
1.435651e+003,2.122955e+000
1.436615e+003,7.145721e+000
1.437579e+003,1.000989e+001
1.438544e+003,9.144623e+000
1.439508e+003,7.237396e+000
1.440472e+003,5.824768e+000
1.441436e+003,5.030182e+000
1.442401e+003,4.553436e+000
1.443365e+003,4.262146e+000
1.444329e+003,4.396881e+000
1.445293e+003,5.318390e+000
1.446257e+003,6.505676e+000
1.447222e+003,6.835785e+000
1.448186e+003,6.401306e+000
1.449150e+003,5.779205e+000
1.450114e+003,4.939453e+000
1.451079e+003,3.959045e+000
1.452043e+003,2.674683e+000
1.453007e+003,1.670715e+000
1.453971e+003,1.956177e+000
1.454936e+003,3.219025e+000
1.455900e+003,3.484650e+000
1.456864e+003,2.021698e+000
1.457828e+003,1.061005e+000
1.458792e+003,2.652771e+000
1.459757e+003,4.328979e+000
1.460721e+003,3.400665e+000
1.461685e+003,1.189270e+000
1.462649e+003,7.716675e-001
1.463614e+003,2.899414e+000
1.464578e+003,5.513031e+000
1.465542e+003,6.831696e+000
1.466506e+003,6.965393e+000
1.467471e+003,6.272919e+000
1.468435e+003,4.694977e+000
1.469399e+003,3.705261e+000
1.470363e+003,3.030579e+000
1.471328e+003,3.037048e+000
1.472292e+003,4.596985e+000
1.473256e+003,5.720459e+000
1.474220e+003,4.646881e+000
1.475184e+003,2.567871e+000
1.476149e+003,1.768494e+000
1.477113e+003,2.781097e+000
1.478077e+003,4.189575e+000
1.479041e+003,4.791595e+000
1.480006e+003,4.862030e+000
1.480970e+003,4.874664e+000
1.481934e+003,4.600708e+000
1.482898e+003,4.361694e+000
1.483863e+003,3.220581e+000
1.484827e+003,3.321381e+000
1.485791e+003,6.665680e+000
1.486755e+003,1.056531e+001
1.487719e+003,1.242694e+001
1.488684e+003,1.251950e+001
1.489648e+003,1.229086e+001
1.490612e+003,1.233218e+001
1.491576e+003,1.269879e+001
1.492541e+003,1.321072e+001
1.493505e+003,1.419974e+001
1.494469e+003,1.702420e+001
1.495433e+003,2.106619e+001
1.496398e+003,2.368625e+001
1.497362e+003,2.469937e+001
1.498326e+003,2.496768e+001
1.499290e+003,2.383469e+001
1.500255e+003,2.291046e+001
1.501219e+003,2.428949e+001
1.502183e+003,2.780392e+001
1.503147e+003,3.268951e+001
1.504111e+003,3.905682e+001
1.505076e+003,4.535236e+001
1.506040e+003,5.072260e+001
1.507004e+003,5.564294e+001
1.507968e+003,6.013559e+001
1.508933e+003,6.472342e+001
1.509897e+003,7.051120e+001
1.510861e+003,7.796182e+001
1.511825e+003,8.673672e+001
1.512790e+003,9.642657e+001
1.513754e+003,1.069237e+002
1.514718e+003,1.186584e+002
1.515682e+003,1.314434e+002
1.516646e+003,1.432839e+002
1.517611e+003,1.543708e+002
1.518575e+003,1.642610e+002
1.519539e+003,1.739723e+002
1.520503e+003,1.816187e+002
1.521468e+003,1.854004e+002
1.522432e+003,1.866691e+002
1.523396e+003,1.877467e+002
1.524360e+003,1.885485e+002
1.525325e+003,1.867195e+002
1.526289e+003,1.807578e+002
1.527253e+003,1.723551e+002
1.528217e+003,1.644714e+002
1.529182e+003,1.572855e+002
1.530146e+003,1.484064e+002
1.531110e+003,1.371415e+002
1.532074e+003,1.250484e+002
1.533039e+003,1.117155e+002
1.534003e+003,9.748456e+001
1.534967e+003,8.122171e+001
1.535931e+003,6.577438e+001
1.536896e+003,5.404559e+001
1.537860e+003,4.622324e+001
1.538824e+003,4.147302e+001
1.539788e+003,3.902145e+001
1.540752e+003,3.665955e+001
1.541717e+003,3.148181e+001
1.542681e+003,2.433960e+001
1.543645e+003,2.003989e+001
1.544609e+003,2.045343e+001
1.545573e+003,1.955194e+001
1.546538e+003,1.526630e+001
1.547502e+003,1.185217e+001
1.548466e+003,1.181744e+001
1.549430e+003,1.309332e+001
1.550395e+003,1.346674e+001
1.551359e+003,1.292926e+001
1.552323e+003,1.257895e+001
1.553287e+003,1.280612e+001
1.554252e+003,1.295221e+001
1.555216e+003,1.248190e+001
1.556180e+003,1.131293e+001
1.557144e+003,8.849030e+000
1.558109e+003,5.133698e+000
1.559073e+003,3.636963e+000
1.560037e+003,5.436096e+000
1.561001e+003,6.672577e+000
1.561966e+003,5.663300e+000
1.562930e+003,4.503265e+000
1.563894e+003,5.484344e+000
1.564858e+003,7.526855e+000
1.565823e+003,7.651672e+000
1.566787e+003,5.391113e+000
1.567751e+003,3.444641e+000
1.568715e+003,3.271912e+000
1.569679e+003,4.490723e+000
1.570644e+003,7.564606e+000
1.571608e+003,1.114038e+001
1.572572e+003,1.117172e+001
1.573536e+003,7.562988e+000
1.574500e+003,5.655060e+000
1.575465e+003,8.191437e+000
1.576429e+003,1.117529e+001
1.577393e+003,1.122794e+001
1.578357e+003,9.420105e+000
1.579322e+003,7.696167e+000
1.580286e+003,6.328278e+000
1.581250e+003,5.723938e+000
1.582214e+003,6.116272e+000
1.583179e+003,6.872070e+000
1.584143e+003,7.865662e+000
1.585107e+003,8.446472e+000
1.586071e+003,7.371277e+000
1.587036e+003,5.632721e+000
1.588000e+003,5.992157e+000
1.588964e+003,9.033142e+000
1.589928e+003,1.188831e+001
1.590893e+003,1.249524e+001
1.591857e+003,1.208743e+001
1.592821e+003,1.262314e+001
1.593785e+003,1.389597e+001
1.594750e+003,1.426944e+001
1.595714e+003,1.320917e+001
1.596678e+003,1.291684e+001
1.597642e+003,1.500464e+001
1.598606e+003,1.708868e+001
1.599571e+003,1.744165e+001
1.600535e+003,1.670215e+001
1.601499e+003,1.491614e+001
1.602463e+003,1.255341e+001
1.603427e+003,1.188434e+001
1.604392e+003,1.404962e+001
1.605356e+003,1.642938e+001
1.606320e+003,1.594980e+001
1.607284e+003,1.378976e+001
1.608249e+003,1.346463e+001
1.609213e+003,1.504858e+001
1.610177e+003,1.633829e+001
1.611141e+003,1.718262e+001
1.612106e+003,1.720508e+001
1.613070e+003,1.536414e+001
1.614034e+003,1.335968e+001
1.614998e+003,1.211093e+001
1.615963e+003,1.169965e+001
1.616927e+003,1.245020e+001
1.617891e+003,1.414575e+001
1.618855e+003,1.554877e+001
1.619820e+003,1.587277e+001
1.620784e+003,1.523734e+001
1.621748e+003,1.361948e+001
1.622712e+003,1.162219e+001
1.623677e+003,1.170093e+001
1.624641e+003,1.437216e+001
1.625605e+003,1.629062e+001
1.626569e+003,1.601447e+001
1.627533e+003,1.510718e+001
1.628498e+003,1.438553e+001
1.629462e+003,1.379654e+001
1.630426e+003,1.303357e+001
1.631390e+003,1.233139e+001
1.632354e+003,1.248251e+001
1.633319e+003,1.351785e+001
1.634283e+003,1.410736e+001
1.635247e+003,1.313824e+001
1.636211e+003,1.144345e+001
1.637176e+003,1.070563e+001
1.638140e+003,1.092395e+001
1.639104e+003,1.060385e+001
1.640068e+003,9.325989e+000
1.641033e+003,8.604248e+000
1.641997e+003,8.976563e+000
1.642961e+003,9.962769e+000
1.643925e+003,1.212231e+001
1.644890e+003,1.405258e+001
1.645854e+003,1.398102e+001
1.646818e+003,1.248422e+001
1.647782e+003,1.120865e+001
1.648747e+003,1.070450e+001
1.649711e+003,1.098840e+001
1.650675e+003,1.247485e+001
1.651639e+003,1.424481e+001
1.652604e+003,1.380637e+001
1.653568e+003,1.116562e+001
1.654532e+003,9.530365e+000
1.655496e+003,9.336456e+000
1.656460e+003,9.163544e+000
1.657425e+003,8.285431e+000
1.658389e+003,7.970978e+000
1.659353e+003,9.083496e+000
1.660317e+003,1.088156e+001
1.661281e+003,1.325485e+001
1.662246e+003,1.546445e+001
1.663210e+003,1.555307e+001
1.664174e+003,1.304904e+001
1.665138e+003,1.056897e+001
1.666103e+003,1.039374e+001
1.667067e+003,1.127972e+001
1.668031e+003,1.058292e+001
1.668995e+003,8.524170e+000
1.669960e+003,7.805847e+000
1.670924e+003,8.994080e+000
1.671888e+003,1.018735e+001
1.672852e+003,1.093979e+001
1.673817e+003,1.114276e+001
1.674781e+003,1.042908e+001
1.675745e+003,9.366791e+000
1.676709e+003,8.584595e+000
1.677674e+003,8.001404e+000
1.678638e+003,7.170868e+000
1.679602e+003,5.968109e+000
1.680566e+003,4.713470e+000
1.681531e+003,3.589661e+000
1.682495e+003,2.896881e+000
1.683459e+003,3.101898e+000
1.684423e+003,3.964203e+000
1.685387e+003,4.744171e+000
1.686352e+003,5.504456e+000
1.687316e+003,5.602509e+000
1.688280e+003,4.461639e+000
1.689244e+003,3.300232e+000
1.690208e+003,3.179901e+000
1.691173e+003,3.305481e+000
1.692137e+003,2.739777e+000
1.693101e+003,1.870636e+000
1.694065e+003,1.604279e+000
1.695030e+003,2.001495e+000
1.695994e+003,2.736511e+000
1.696958e+003,4.396545e+000
1.697922e+003,5.526642e+000
1.698887e+003,3.345795e+000
1.699851e+003,-6.543274e-001
1.700815e+003,-1.753174e+000
1.701779e+003,3.070679e-001
1.702744e+003,2.149933e+000
1.703708e+003,2.967896e+000
1.704672e+003,3.217987e+000
1.705636e+003,2.620880e+000
1.706601e+003,1.708679e+000
1.707565e+003,1.646606e+000
1.708529e+003,2.317108e+000
1.709493e+003,3.034485e+000
1.710458e+003,3.732300e+000
1.711422e+003,4.074921e+000
1.712386e+003,3.758240e+000
1.713350e+003,3.535980e+000
1.714314e+003,4.216431e+000
1.715279e+003,4.929291e+000
1.716243e+003,3.987640e+000
1.717207e+003,1.778046e+000
1.718171e+003,6.929626e-001
1.719135e+003,1.432007e+000
1.720100e+003,2.195496e+000
1.721064e+003,1.745331e+000
1.722028e+003,5.596008e-001
1.722992e+003,-7.652893e-001
1.723957e+003,-1.883148e+000
1.724921e+003,-1.835419e+000
1.725885e+003,-7.299805e-001
1.726849e+003,5.123901e-002
1.727814e+003,7.986450e-001
1.728778e+003,1.195831e+000
1.729742e+003,6.193848e-001
1.730706e+003,-6.341553e-002
1.731671e+003,-2.294922e-001
1.732635e+003,-1.027832e-001
1.733599e+003,4.358826e-001
1.734563e+003,1.327271e+000
1.735528e+003,1.340302e+000
1.736492e+003,-2.488098e-001
1.737456e+003,-1.891663e+000
1.738420e+003,-1.636047e+000
1.739385e+003,-3.677368e-001
1.740349e+003,-9.114380e-001
1.741313e+003,-3.746094e+000
1.742277e+003,-5.238190e+000
1.743241e+003,-4.605988e+000
1.744206e+003,-3.667145e+000
1.745170e+003,-2.642731e+000
1.746134e+003,-1.557037e+000
1.747098e+003,-2.091675e-001
1.748063e+003,1.009064e+000
1.749027e+003,1.797119e+000
1.749991e+003,2.075409e+000
1.750955e+003,1.451324e+000
1.751919e+003,8.850098e-003
1.752884e+003,-8.312683e-001
1.753848e+003,1.384888e-001
1.754812e+003,1.625153e+000
1.755776e+003,9.662781e-001
1.756741e+003,-1.567596e+000
1.757705e+003,-2.205231e+000
1.758669e+003,-1.318970e-001
1.759633e+003,9.905090e-001
1.760598e+003,-7.385254e-003
1.761562e+003,-1.125763e+000
1.762526e+003,-1.359985e+000
1.763490e+003,-1.568848e+000
1.764455e+003,-2.370026e+000
1.765419e+003,-3.512909e+000
1.766383e+003,-5.089478e+000
1.767347e+003,-6.796143e+000
1.768312e+003,-7.034363e+000
1.769276e+003,-5.060303e+000
1.770240e+003,-3.305847e+000
1.771204e+003,-4.538757e+000
1.772168e+003,-6.993286e+000
1.773133e+003,-6.686005e+000
1.774097e+003,-3.953125e+000
1.775061e+003,-2.169342e+000
1.776025e+003,-1.940063e+000
1.776990e+003,-1.944824e+000
1.777954e+003,-1.533661e+000
1.778918e+003,-1.123291e+000
1.779882e+003,-1.535583e+000
1.780846e+003,-2.036041e+000
1.781811e+003,-1.105682e+000
1.782775e+003,7.672424e-001
1.783739e+003,1.785645e+000
1.784703e+003,1.722168e+000
1.785668e+003,1.322266e+000
1.786632e+003,7.550049e-001
1.787596e+003,-3.337402e-001
1.788560e+003,-2.393982e+000
1.789525e+003,-4.507446e+000
1.790489e+003,-5.753876e+000
1.791453e+003,-6.208344e+000
1.792417e+003,-6.181793e+000
1.793382e+003,-5.689728e+000
1.794346e+003,-4.078186e+000
1.795310e+003,-8.944397e-001
1.796274e+003,1.997620e+000
1.797239e+003,2.540192e+000
1.798203e+003,1.538544e+000
1.799167e+003,8.248291e-001
1.800131e+003,1.048584e-001
1.801095e+003,-1.049133e+000
1.802060e+003,-3.564301e+000
1.803024e+003,-4.267853e+000
1.803988e+003,-1.205200e+000
1.804952e+003,1.426849e+000
1.805917e+003,1.383148e+000
1.806881e+003,1.678467e-001
1.807845e+003,-9.412231e-001
1.808809e+003,-1.640991e+000
1.809773e+003,-1.760010e+000
1.810738e+003,-1.426117e+000
1.811702e+003,-1.367767e+000
1.812666e+003,-2.035919e+000
1.813630e+003,-2.597412e+000
1.814595e+003,-1.862976e+000
1.815559e+003,-2.218628e-001
1.816523e+003,1.019409e+000
1.817487e+003,1.906891e+000
1.818452e+003,2.271759e+000
1.819416e+003,2.059998e+000
1.820380e+003,2.028046e+000
1.821344e+003,2.681641e+000
1.822309e+003,2.743805e+000
1.823273e+003,5.950317e-001
1.824237e+003,-1.536377e+000
1.825201e+003,-7.329407e-001
1.826166e+003,1.701477e+000
1.827130e+003,1.920837e+000
1.828094e+003,-7.310486e-001
1.829058e+003,-2.876007e+000
1.830022e+003,-2.796600e+000
1.830987e+003,-1.697632e+000
1.831951e+003,1.285400e-001
1.832915e+003,1.865021e+000
1.833879e+003,2.172394e+000
1.834844e+003,1.350616e+000
1.835808e+003,3.414917e-001
1.836772e+003,-6.154175e-001
1.837736e+003,-1.397736e+000
1.838700e+003,-2.038177e+000
1.839665e+003,-2.467743e+000
1.840629e+003,-2.463806e+000
1.841593e+003,-2.341827e+000
1.842557e+003,-3.069794e+000
1.843522e+003,-4.629547e+000
1.844486e+003,-4.779388e+000
1.845450e+003,-2.406067e+000
1.846414e+003,-2.683105e-001
1.847379e+003,1.941315e+000
1.848343e+003,2.858948e+000
1.849307e+003,1.551208e+000
1.850271e+003,-4.050903e-001
1.851236e+003,-2.576141e+000
1.852200e+003,-4.061584e+000
1.853164e+003,-3.483612e+000
1.854128e+003,-1.595612e+000
1.855093e+003,-6.097717e-001
1.856057e+003,-1.162689e+000
1.857021e+003,-2.014709e+000
1.857985e+003,-2.236511e+000
1.858949e+003,-2.280457e+000
1.859914e+003,-3.282928e+000
1.860878e+003,-4.758789e+000
1.861842e+003,-3.789063e+000
1.862806e+003,-3.469543e-001
1.863771e+003,1.821472e+000
1.864735e+003,1.876648e+000
1.865699e+003,1.244232e+000
1.866663e+003,2.672119e-001
1.867627e+003,-3.255615e-001
1.868592e+003,3.963928e-001
1.869556e+003,1.389435e+000
1.870520e+003,7.464905e-001
1.871484e+003,-1.245117e+000
1.872449e+003,-2.495758e+000
1.873413e+003,-2.169464e+000
1.874377e+003,-1.483307e+000
1.875341e+003,-1.254120e+000
1.876306e+003,-1.047668e+000
1.877270e+003,-7.067261e-001
1.878234e+003,-3.272400e-001
1.879198e+003,-3.378296e-002
1.880163e+003,3.710327e-001
1.881127e+003,1.678192e+000
1.882091e+003,3.517212e+000
1.883055e+003,4.008148e+000
1.884020e+003,2.484619e+000
1.884984e+003,5.388184e-001
1.885948e+003,-3.958435e-001
1.886912e+003,-4.445801e-001
1.887876e+003,3.795776e-001
1.888841e+003,1.933380e+000
1.889805e+003,1.846619e+000
1.890769e+003,-4.795532e-001
1.891733e+003,-1.040741e+000
1.892698e+003,1.359558e+000
1.893662e+003,3.156067e+000
1.894626e+003,2.898956e+000
1.895590e+003,2.150269e+000
1.896554e+003,1.898987e+000
1.897519e+003,2.003815e+000
1.898483e+003,2.343872e+000
1.899447e+003,2.599213e+000
1.900411e+003,2.034119e+000
1.901376e+003,5.008850e-001
1.902340e+003,-8.432007e-002
1.903304e+003,1.547333e+000
1.904268e+003,3.353668e+000
1.905233e+003,4.352356e+000
1.906197e+003,4.825348e+000
1.907161e+003,5.099792e+000
1.908125e+003,5.123383e+000
1.909090e+003,4.333923e+000
1.910054e+003,2.903412e+000
1.911018e+003,1.972046e+000
1.911982e+003,1.954773e+000
1.912947e+003,2.199951e+000
1.913911e+003,2.175934e+000
1.914875e+003,1.689453e+000
1.915839e+003,1.962280e-001
1.916803e+003,-1.918488e+000
1.917768e+003,-1.663330e+000
1.918732e+003,1.654053e+000
1.919696e+003,3.603363e+000
1.920660e+003,3.804962e+000
1.921625e+003,3.827728e+000
1.922589e+003,3.634308e+000
1.923553e+003,3.653656e+000
1.924517e+003,4.290894e+000
1.925481e+003,5.133881e+000
1.926446e+003,6.162750e+000
1.927410e+003,7.026733e+000
1.928374e+003,6.673096e+000
1.929338e+003,5.097839e+000
1.930303e+003,4.389496e+000
1.931267e+003,5.691864e+000
1.932231e+003,6.801392e+000
1.933195e+003,6.412354e+000
1.934160e+003,5.462402e+000
1.935124e+003,4.183594e+000
1.936088e+003,2.986908e+000
1.937052e+003,2.574158e+000
1.938017e+003,2.850891e+000
1.938981e+003,3.527710e+000
1.939945e+003,4.312744e+000
1.940909e+003,4.500458e+000
1.941874e+003,3.808929e+000
1.942838e+003,3.084015e+000
1.943802e+003,3.255249e+000
1.944766e+003,4.311584e+000
1.945730e+003,6.234039e+000
1.946695e+003,8.561951e+000
1.947659e+003,7.971954e+000
1.948623e+003,3.983765e+000
1.949587e+003,2.182983e+000
1.950552e+003,3.755737e+000
1.951516e+003,5.545685e+000
1.952480e+003,6.893890e+000
1.953444e+003,7.362701e+000
1.954408e+003,6.109375e+000
1.955373e+003,4.104919e+000
1.956337e+003,2.751648e+000
1.957301e+003,2.167206e+000
1.958265e+003,2.084320e+000
1.959230e+003,2.530151e+000
1.960194e+003,3.452667e+000
1.961158e+003,5.236298e+000
1.962122e+003,6.276703e+000
1.963087e+003,6.187195e+000
1.964051e+003,5.315674e+000
1.965015e+003,3.131256e+000
1.965979e+003,1.248688e+000
1.966944e+003,1.293091e+000
1.967908e+003,2.493591e+000
1.968872e+003,3.407898e+000
1.969836e+003,3.885162e+000
1.970801e+003,4.728363e+000
1.971765e+003,6.252899e+000
1.972729e+003,7.512085e+000
1.973693e+003,7.620697e+000
1.974657e+003,7.234650e+000
1.975622e+003,7.436737e+000
1.976586e+003,7.755890e+000
1.977550e+003,6.468201e+000
1.978514e+003,4.218262e+000
1.979479e+003,4.970764e+000
1.980443e+003,9.011780e+000
1.981407e+003,1.152676e+001
1.982371e+003,1.075955e+001
1.983335e+003,9.037750e+000
1.984300e+003,7.856567e+000
1.985264e+003,7.209900e+000
1.986228e+003,7.273010e+000
1.987192e+003,7.947418e+000
1.988157e+003,8.838196e+000
1.989121e+003,1.033536e+001
1.990085e+003,1.029361e+001
1.991049e+003,7.311432e+000
1.992014e+003,5.853088e+000
1.992978e+003,7.531586e+000
1.993942e+003,9.114807e+000
1.994906e+003,9.774872e+000
1.995871e+003,9.697723e+000
1.996835e+003,8.498718e+000
1.997799e+003,7.077942e+000
1.998763e+003,6.450012e+000
1.999728e+003,6.619965e+000
