5.003444e+002,5.075143e+001
5.013087e+002,4.979657e+001
5.022729e+002,4.818121e+001
5.032371e+002,4.610947e+001
5.042014e+002,4.354688e+001
5.051656e+002,4.066121e+001
5.061298e+002,3.823943e+001
5.070941e+002,3.700499e+001
5.080583e+002,3.713823e+001
5.090225e+002,3.703058e+001
5.099868e+002,3.617062e+001
5.109510e+002,3.564029e+001
5.119152e+002,3.627698e+001
5.128795e+002,3.821991e+001
5.138437e+002,3.967049e+001
5.148079e+002,4.053108e+001
5.157722e+002,4.042491e+001
5.167364e+002,3.836688e+001
5.177006e+002,3.467950e+001
5.186649e+002,3.107904e+001
5.196291e+002,3.006104e+001
5.205933e+002,3.043832e+001
5.215576e+002,3.073222e+001
5.225218e+002,3.063905e+001
5.234860e+002,3.041960e+001
5.244503e+002,3.075395e+001
5.254145e+002,3.216025e+001
5.263787e+002,3.238861e+001
5.273430e+002,3.058307e+001
5.283072e+002,2.818195e+001
5.292714e+002,2.723706e+001
5.302357e+002,2.857552e+001
5.311999e+002,2.911665e+001
5.321641e+002,2.798579e+001
5.331284e+002,2.677296e+001
5.340926e+002,2.699609e+001
5.350568e+002,2.926193e+001
5.360211e+002,3.096088e+001
5.369853e+002,2.908307e+001
5.379495e+002,2.623663e+001
5.389138e+002,2.437349e+001
5.398780e+002,2.426152e+001
5.408422e+002,2.532726e+001
5.418065e+002,2.639488e+001
5.427707e+002,2.740509e+001
5.437349e+002,2.768457e+001
5.446992e+002,2.681293e+001
5.456634e+002,2.518054e+001
5.466276e+002,2.422461e+001
5.475919e+002,2.477309e+001
5.485561e+002,2.518633e+001
5.495203e+002,2.592613e+001
5.504846e+002,2.620551e+001
5.514488e+002,2.458957e+001
5.524130e+002,1.937946e+001
5.533773e+002,1.526221e+001
5.543415e+002,1.505576e+001
5.553057e+002,1.665651e+001
5.562700e+002,1.789622e+001
5.572342e+002,1.743190e+001
5.581984e+002,1.622255e+001
5.591627e+002,1.721423e+001
5.601269e+002,1.951111e+001
5.610911e+002,2.090469e+001
5.620554e+002,2.014957e+001
5.630196e+002,1.749658e+001
5.639838e+002,1.573836e+001
5.649481e+002,1.525279e+001
5.659123e+002,1.510252e+001
5.668765e+002,1.560759e+001
5.678408e+002,1.657330e+001
5.688050e+002,1.724841e+001
5.697692e+002,1.748749e+001
5.707335e+002,1.673584e+001
5.716977e+002,1.368913e+001
5.726619e+002,1.011636e+001
5.736262e+002,8.603851e+000
5.745904e+002,1.127135e+001
5.755546e+002,1.523793e+001
5.765189e+002,1.553003e+001
5.774831e+002,1.350531e+001
5.784473e+002,1.170573e+001
5.794116e+002,1.191574e+001
5.803758e+002,1.395897e+001
5.813400e+002,1.423096e+001
5.823043e+002,1.196252e+001
5.832685e+002,9.950867e+000
5.842327e+002,9.265656e+000
5.851970e+002,9.860596e+000
5.861612e+002,1.083046e+001
5.871254e+002,1.267400e+001
5.880897e+002,1.400583e+001
5.890539e+002,1.439955e+001
5.900181e+002,1.405022e+001
5.909824e+002,1.333197e+001
5.919466e+002,1.244334e+001
5.929108e+002,1.144212e+001
5.938751e+002,1.005728e+001
5.948393e+002,8.675888e+000
5.958035e+002,8.150055e+000
5.967678e+002,9.087997e+000
5.977320e+002,1.115491e+001
5.986962e+002,1.075755e+001
5.996605e+002,7.646149e+000
6.006247e+002,5.213989e+000
6.015889e+002,5.661530e+000
6.025532e+002,8.714432e+000
6.035174e+002,1.000229e+001
6.044816e+002,7.111298e+000
6.054459e+002,4.996658e+000
6.064101e+002,4.585114e+000
6.073743e+002,5.376404e+000
6.083386e+002,6.469559e+000
6.093028e+002,7.754257e+000
6.102670e+002,8.590210e+000
6.112313e+002,7.908691e+000
6.121955e+002,6.744339e+000
6.131597e+002,6.745331e+000
6.141240e+002,8.982025e+000
6.150882e+002,1.247551e+001
6.160524e+002,1.272398e+001
6.170167e+002,1.039163e+001
6.179809e+002,8.023453e+000
6.189451e+002,6.522171e+000
6.199094e+002,5.800674e+000
6.208736e+002,5.715332e+000
6.218378e+002,7.580231e+000
6.228021e+002,8.880402e+000
6.237663e+002,9.162827e+000
6.247305e+002,8.858658e+000
6.256948e+002,8.589264e+000
6.266590e+002,8.419693e+000
6.276232e+002,8.348022e+000
6.285875e+002,9.241638e+000
6.295517e+002,1.001295e+001
6.305159e+002,8.914215e+000
6.314802e+002,5.123749e+000
6.324444e+002,3.145447e-001
6.334086e+002,-5.368042e-002
6.343729e+002,2.738419e+000
6.353371e+002,5.605118e+000
6.363013e+002,7.575729e+000
6.372656e+002,8.605209e+000
6.382298e+002,8.622818e+000
6.391940e+002,6.265808e+000
6.401583e+002,4.523514e+000
6.411225e+002,3.947205e+000
6.420867e+002,4.024704e+000
6.430510e+002,4.135300e+000
6.440152e+002,4.112808e+000
6.449794e+002,3.627518e+000
6.459437e+002,2.303406e+000
6.469079e+002,7.254486e-001
6.478721e+002,-9.275208e-001
6.488364e+002,-2.402130e+000
6.498006e+002,-3.132629e+000
6.507648e+002,-1.508392e+000
6.517291e+002,1.468536e+000
6.526933e+002,3.475189e+000
6.536575e+002,4.058838e+000
6.546218e+002,3.628113e+000
6.555860e+002,2.943283e+000
6.565502e+002,1.753067e+000
6.575145e+002,8.105011e-001
6.584787e+002,1.084595e-001
6.594429e+002,-3.622589e-001
6.604072e+002,-6.869354e-001
6.613714e+002,-9.093933e-001
6.623356e+002,-5.683441e-001
6.632999e+002,1.270676e+000
6.642641e+002,2.929901e+000
6.652283e+002,3.911163e+000
6.661926e+002,4.017334e+000
6.671568e+002,2.952927e+000
6.681210e+002,-4.046021e-001
6.690853e+002,-4.636063e+000
6.700495e+002,-5.918808e+000
6.710137e+002,-4.292877e+000
6.719780e+002,-1.462051e+000
6.729422e+002,8.913116e-001
6.739064e+002,2.802963e+000
6.748707e+002,3.394669e+000
6.758349e+002,2.057571e+000
6.767991e+002,4.812775e-001
6.777634e+002,-6.696320e-001
6.787276e+002,-1.299500e+000
6.796918e+002,-1.550232e+000
6.806561e+002,-1.248322e+000
6.816203e+002,-1.066177e+000
6.825845e+002,-1.292542e+000
6.835488e+002,-1.799286e+000
6.845130e+002,-2.465012e+000
6.854772e+002,-3.248260e+000
6.864415e+002,-3.634674e+000
6.874057e+002,-2.428741e+000
6.883699e+002,-3.014374e-001
6.893342e+002,1.444763e+000
6.902984e+002,2.122253e+000
6.912626e+002,1.878677e+000
6.922269e+002,1.462280e+000
6.931911e+002,7.206421e-001
6.941553e+002,4.174957e-001
6.951196e+002,2.760620e-001
6.960838e+002,4.753876e-001
6.970480e+002,1.767014e+000
6.980123e+002,5.361298e+000
6.989765e+002,7.402710e+000
6.999407e+002,5.790283e+000
7.009050e+002,2.769623e+000
7.018692e+002,-5.458527e-001
7.028334e+002,-3.461929e+000
7.037977e+002,-5.198914e+000
7.047619e+002,-3.385223e+000
7.057261e+002,3.767700e-001
7.066904e+002,2.540451e+000
7.076546e+002,2.524567e+000
7.086188e+002,1.339081e+000
7.095831e+002,4.943085e-001
7.105473e+002,-1.363525e-001
7.115115e+002,-8.447266e-002
7.124758e+002,1.428772e+000
7.134400e+002,2.638474e+000
7.144042e+002,2.245041e+000
7.153685e+002,3.113403e-001
7.163327e+002,-1.179169e+000
7.172969e+002,-8.725739e-001
7.182612e+002,-2.853851e-001
7.192254e+002,2.564850e-001
7.201896e+002,5.014343e-001
7.211539e+002,1.040955e-001
7.221181e+002,-1.302414e+000
7.230823e+002,-3.167786e+000
7.240466e+002,-4.176056e+000
7.250108e+002,-4.325073e+000
7.259750e+002,-3.645416e+000
7.269393e+002,-2.120926e+000
7.279035e+002,-7.531738e-002
7.288677e+002,9.436188e-001
7.298320e+002,4.417419e-001
7.307962e+002,7.919312e-003
7.317604e+002,-3.860931e-001
7.327247e+002,-5.763550e-001
7.336889e+002,-3.392639e-001
7.346531e+002,3.764648e-001
7.356174e+002,6.601410e-001
7.365816e+002,-1.163330e-001
7.375458e+002,-8.943024e-001
7.385101e+002,-7.941437e-001
7.394743e+002,3.348999e-001
7.404385e+002,1.888428e+000
7.414028e+002,2.983276e+000
7.423670e+002,3.364273e+000
7.433312e+002,3.345200e+000
7.442955e+002,3.124527e+000
7.452597e+002,2.912643e+000
7.462239e+002,2.738907e+000
7.471882e+002,2.369064e+000
7.481524e+002,2.872070e+000
7.491166e+002,4.808304e+000
7.500809e+002,6.420288e+000
7.510451e+002,7.442215e+000
7.520093e+002,7.654099e+000
7.529736e+002,6.359787e+000
7.539378e+002,2.012939e+000
7.549020e+002,-1.628571e+000
7.558663e+002,-1.939270e+000
7.568306e+002,-3.278046e-001
7.577948e+002,1.299164e+000
7.587590e+002,1.735748e+000
7.597233e+002,1.370911e+000
7.606875e+002,1.773575e+000
7.616517e+002,2.909027e+000
7.626160e+002,3.345032e+000
7.635802e+002,2.488785e+000
7.645444e+002,1.034058e+000
7.655087e+002,4.485474e-001
7.664729e+002,1.269531e+000
7.674371e+002,1.719437e+000
7.684014e+002,1.146851e+000
7.693656e+002,6.801605e-001
7.703298e+002,1.442780e+000
7.712941e+002,3.389160e+000
7.722583e+002,4.729401e+000
7.732225e+002,3.180450e+000
7.741868e+002,1.421844e+000
7.751510e+002,1.979736e+000
7.761152e+002,4.189453e+000
7.770795e+002,6.070984e+000
7.780437e+002,5.849670e+000
7.790079e+002,3.810730e+000
7.799722e+002,2.726624e+000
7.809364e+002,2.590515e+000
7.819006e+002,2.597687e+000
7.828649e+002,2.567337e+000
7.838291e+002,2.594589e+000
7.847933e+002,2.836914e+000
7.857576e+002,3.603516e+000
7.867218e+002,3.562485e+000
7.876860e+002,1.769196e+000
7.886503e+002,-4.139709e-002
7.896145e+002,-1.461182e-001
7.905787e+002,1.782806e+000
7.915430e+002,3.894714e+000
7.925072e+002,3.804626e+000
7.934714e+002,2.792007e+000
7.944357e+002,2.190399e+000
7.953999e+002,2.288727e+000
7.963641e+002,3.131943e+000
7.973284e+002,4.778030e+000
7.982926e+002,7.311768e+000
7.992568e+002,8.880463e+000
8.002211e+002,9.180801e+000
8.011853e+002,8.787720e+000
8.021495e+002,8.186844e+000
8.031138e+002,7.455505e+000
8.040780e+002,6.064896e+000
8.050422e+002,2.630798e+000
8.060065e+002,3.430023e-001
8.069707e+002,4.169617e-001
8.079349e+002,1.647369e+000
8.088992e+002,3.327682e+000
8.098634e+002,5.076981e+000
8.108276e+002,6.296173e+000
8.117919e+002,5.307953e+000
8.127561e+002,3.115128e+000
8.137203e+002,2.461685e+000
8.146846e+002,3.770950e+000
8.156488e+002,5.618958e+000
8.166130e+002,6.209381e+000
8.175773e+002,5.381561e+000
8.185415e+002,3.924179e+000
8.195057e+002,2.059326e-001
8.204700e+002,-2.330658e+000
8.214342e+002,-2.073456e+000
8.223984e+002,2.648010e-001
8.233627e+002,2.866943e+000
8.243269e+002,5.661057e+000
8.252911e+002,7.620316e+000
8.262554e+002,8.098877e+000
8.272196e+002,7.731552e+000
8.281838e+002,6.902557e+000
8.291481e+002,5.894791e+000
8.301123e+002,5.045578e+000
8.310765e+002,5.046188e+000
8.320408e+002,5.804459e+000
8.330050e+002,6.353790e+000
8.339692e+002,6.739868e+000
8.349335e+002,6.741623e+000
8.358977e+002,5.917725e+000
8.368619e+002,4.109070e+000
8.378262e+002,3.244278e+000
8.387904e+002,3.770950e+000
8.397546e+002,4.574585e+000
8.407189e+002,5.742294e+000
8.416831e+002,6.951324e+000
8.426473e+002,7.608124e+000
8.436116e+002,7.314026e+000
8.445758e+002,7.107101e+000
8.455400e+002,8.497864e+000
8.465043e+002,1.012068e+001
8.474685e+002,1.055287e+001
8.484327e+002,9.532532e+000
8.493970e+002,7.668015e+000
8.503612e+002,5.728424e+000
8.513254e+002,3.492813e+000
8.522897e+002,2.977798e+000
8.532539e+002,5.100021e+000
8.542181e+002,7.333435e+000
8.551824e+002,8.245560e+000
8.561466e+002,8.134537e+000
8.571108e+002,8.440750e+000
8.580751e+002,9.693268e+000
8.590393e+002,1.034532e+001
8.600035e+002,9.610565e+000
8.609678e+002,8.443069e+000
8.619320e+002,7.671173e+000
8.628962e+002,7.677231e+000
8.638605e+002,8.624115e+000
8.648247e+002,1.170659e+001
8.657889e+002,1.560060e+001
8.667532e+002,1.726711e+001
8.677174e+002,1.630801e+001
8.686816e+002,1.441171e+001
8.696459e+002,1.346893e+001
8.706101e+002,1.365346e+001
8.715743e+002,1.414003e+001
8.725386e+002,1.558176e+001
8.735028e+002,1.651370e+001
8.744670e+002,1.551961e+001
8.754313e+002,1.381291e+001
8.763955e+002,1.415022e+001
8.773597e+002,1.820164e+001
8.783240e+002,2.191528e+001
8.792882e+002,2.181099e+001
8.802524e+002,2.033444e+001
8.812167e+002,1.949814e+001
8.821809e+002,1.974298e+001
8.831451e+002,2.029895e+001
8.841094e+002,2.018932e+001
8.850736e+002,1.953954e+001
8.860378e+002,1.915750e+001
8.870021e+002,1.879028e+001
8.879663e+002,1.909325e+001
8.889305e+002,2.088470e+001
8.898948e+002,2.371523e+001
8.908590e+002,2.546492e+001
8.918232e+002,2.584297e+001
8.927875e+002,2.545628e+001
8.937517e+002,2.358440e+001
8.947159e+002,2.172955e+001
8.956802e+002,2.108804e+001
8.966444e+002,2.180797e+001
8.976086e+002,2.307521e+001
8.985729e+002,2.440158e+001
8.995371e+002,2.579176e+001
9.005013e+002,2.727975e+001
9.014656e+002,2.881140e+001
9.024298e+002,2.990211e+001
9.033940e+002,3.006035e+001
9.043583e+002,2.929665e+001
9.053225e+002,2.857587e+001
9.062867e+002,2.769617e+001
9.072510e+002,2.695876e+001
9.082152e+002,2.650568e+001
9.091794e+002,2.642122e+001
9.101437e+002,2.685730e+001
9.111079e+002,2.783043e+001
9.120721e+002,2.877617e+001
9.130364e+002,2.948058e+001
9.140006e+002,2.967264e+001
9.149648e+002,2.886093e+001
9.159291e+002,2.762115e+001
9.168933e+002,2.706004e+001
9.178575e+002,2.786761e+001
9.188218e+002,2.935104e+001
9.197860e+002,2.914223e+001
9.207502e+002,2.712425e+001
9.217145e+002,2.580952e+001
9.226787e+002,2.623051e+001
9.236429e+002,2.733649e+001
9.246072e+002,2.765880e+001
9.255714e+002,2.702484e+001
9.265356e+002,2.595064e+001
9.274999e+002,2.329247e+001
9.284641e+002,2.142809e+001
9.294283e+002,2.231035e+001
9.303926e+002,2.443031e+001
9.313568e+002,2.481267e+001
9.323210e+002,2.181232e+001
9.332853e+002,1.775174e+001
9.342495e+002,1.600453e+001
9.352137e+002,1.580403e+001
9.361780e+002,1.681769e+001
9.371422e+002,1.901291e+001
9.381064e+002,2.148569e+001
9.390707e+002,2.284772e+001
9.400349e+002,2.275533e+001
9.409991e+002,2.293300e+001
9.419634e+002,2.403424e+001
9.429276e+002,2.447775e+001
9.438918e+002,2.343237e+001
9.448561e+002,2.165739e+001
9.458203e+002,2.044543e+001
9.467845e+002,2.024741e+001
9.477488e+002,2.033812e+001
9.487130e+002,2.004498e+001
9.496772e+002,1.983221e+001
9.506415e+002,2.034990e+001
9.516057e+002,2.140797e+001
9.525699e+002,2.204480e+001
9.535342e+002,2.127441e+001
9.544984e+002,1.932938e+001
9.554626e+002,1.890033e+001
9.564269e+002,2.055608e+001
9.573911e+002,2.167836e+001
9.583553e+002,2.132501e+001
9.593196e+002,2.006512e+001
9.602838e+002,1.860310e+001
9.612480e+002,1.665851e+001
9.622123e+002,1.565845e+001
9.631765e+002,1.675163e+001
9.641407e+002,1.819939e+001
9.651050e+002,1.924164e+001
9.660692e+002,1.989906e+001
9.670334e+002,2.085707e+001
9.679977e+002,2.266116e+001
9.689619e+002,2.426665e+001
9.699261e+002,2.191731e+001
9.708904e+002,1.705876e+001
9.718546e+002,1.424248e+001
9.728188e+002,1.450876e+001
9.737831e+002,1.660628e+001
9.747473e+002,1.928337e+001
9.757115e+002,2.286819e+001
9.766758e+002,2.545976e+001
9.776400e+002,2.683839e+001
9.786042e+002,2.771147e+001
9.795685e+002,2.799030e+001
9.805327e+002,2.775102e+001
9.814969e+002,2.720293e+001
9.824612e+002,2.650328e+001
9.834254e+002,2.551427e+001
9.843896e+002,2.380174e+001
9.853539e+002,2.160583e+001
9.863181e+002,1.869839e+001
9.872823e+002,1.536566e+001
9.882466e+002,1.296790e+001
9.892108e+002,1.283345e+001
9.901750e+002,1.477440e+001
9.911393e+002,1.610316e+001
9.921035e+002,1.585896e+001
9.930677e+002,1.578445e+001
9.940320e+002,1.647530e+001
9.949962e+002,1.721217e+001
9.959604e+002,1.706848e+001
9.969247e+002,1.607610e+001
9.978889e+002,1.572661e+001
9.988531e+002,1.692017e+001
9.998174e+002,1.833824e+001
1.000782e+003,1.933952e+001
1.001746e+003,2.016895e+001
1.002710e+003,2.135831e+001
1.003674e+003,2.301744e+001
1.004639e+003,2.444884e+001
1.005603e+003,2.434590e+001
1.006567e+003,2.247614e+001
1.007531e+003,2.132626e+001
1.008495e+003,2.125977e+001
1.009460e+003,2.118814e+001
1.010424e+003,2.026015e+001
1.011388e+003,1.881673e+001
1.012352e+003,1.831024e+001
1.013317e+003,1.978819e+001
1.014281e+003,2.017755e+001
1.015245e+003,1.736661e+001
1.016209e+003,1.424257e+001
1.017174e+003,1.316603e+001
1.018138e+003,1.405170e+001
1.019102e+003,1.508997e+001
1.020066e+003,1.485478e+001
1.021031e+003,1.379486e+001
1.021995e+003,1.295969e+001
1.022959e+003,1.215558e+001
1.023923e+003,1.086551e+001
1.024887e+003,8.666092e+000
1.025852e+003,6.288574e+000
1.026816e+003,5.000092e+000
1.027780e+003,5.120392e+000
1.028744e+003,5.315323e+000
1.029709e+003,5.606430e+000
1.030673e+003,5.765228e+000
1.031637e+003,5.887161e+000
1.032601e+003,5.685150e+000
1.033566e+003,4.672089e+000
1.034530e+003,2.742157e+000
1.035494e+003,6.992035e-001
1.036458e+003,-9.302521e-001
1.037422e+003,-1.927094e+000
1.038387e+003,-1.648666e+000
1.039351e+003,-2.635803e-001
1.040315e+003,1.085892e+000
1.041279e+003,1.567230e+000
1.042244e+003,1.450546e+000
1.043208e+003,1.904343e+000
1.044172e+003,4.160492e+000
1.045136e+003,4.432632e+000
1.046101e+003,3.757935e-001
1.047065e+003,-3.195999e+000
1.048029e+003,-2.533707e+000
1.048993e+003,1.433350e+000
1.049958e+003,4.586792e+000
1.050922e+003,4.989700e+000
1.051886e+003,4.329483e+000
1.052850e+003,3.955429e+000
1.053814e+003,3.821243e+000
1.054779e+003,3.954727e+000
1.055743e+003,4.304504e+000
1.056707e+003,4.711868e+000
1.057671e+003,5.018066e+000
1.058636e+003,5.197266e+000
1.059600e+003,4.822449e+000
1.060564e+003,3.004013e+000
1.061528e+003,2.257690e+000
1.062493e+003,3.536789e+000
1.063457e+003,5.402786e+000
1.064421e+003,6.500778e+000
1.065385e+003,6.710907e+000
1.066349e+003,6.301285e+000
1.067314e+003,4.794403e+000
1.068278e+003,3.444061e+000
1.069242e+003,3.298813e+000
1.070206e+003,3.895844e+000
1.071171e+003,4.412872e+000
1.072135e+003,4.456711e+000
1.073099e+003,4.311035e+000
1.074063e+003,4.578308e+000
1.075028e+003,5.381912e+000
1.075992e+003,5.558044e+000
1.076956e+003,4.761551e+000
1.077920e+003,3.843430e+000
1.078885e+003,2.931961e+000
1.079849e+003,2.330307e+000
1.080813e+003,2.780701e+000
1.081777e+003,4.690277e+000
1.082741e+003,6.049866e+000
1.083706e+003,5.358536e+000
1.084670e+003,3.954803e+000
1.085634e+003,1.750122e+000
1.086598e+003,-4.602966e-001
1.087563e+003,-1.037811e+000
1.088527e+003,8.286438e-001
1.089491e+003,3.574951e+000
1.090455e+003,3.752701e+000
1.091420e+003,8.986511e-001
1.092384e+003,2.666626e-001
1.093348e+003,3.110962e+000
1.094312e+003,5.656418e+000
1.095276e+003,5.397659e+000
1.096241e+003,3.321426e+000
1.097205e+003,2.324417e+000
1.098169e+003,3.123856e+000
1.099133e+003,3.568207e+000
1.100098e+003,2.523819e+000
1.101062e+003,1.315338e+000
1.102026e+003,4.286499e-001
1.102990e+003,1.337433e-001
1.103955e+003,9.077911e-001
1.104919e+003,2.982071e+000
1.105883e+003,5.398026e+000
1.106847e+003,6.061005e+000
1.107812e+003,4.901871e+000
1.108776e+003,4.304245e+000
1.109740e+003,4.708557e+000
1.110704e+003,4.971085e+000
1.111668e+003,4.088196e+000
1.112633e+003,2.483063e+000
1.113597e+003,1.727356e+000
1.114561e+003,2.182617e+000
1.115525e+003,2.755508e+000
1.116490e+003,3.359131e+000
1.117454e+003,3.690903e+000
1.118418e+003,3.521301e+000
1.119382e+003,3.045456e+000
1.120347e+003,2.507248e+000
1.121311e+003,1.961380e+000
1.122275e+003,1.484772e+000
1.123239e+003,1.619308e+000
1.124203e+003,2.486267e+000
1.125168e+003,3.415939e+000
1.126132e+003,4.352509e+000
1.127096e+003,5.482513e+000
1.128060e+003,7.357666e+000
1.129025e+003,9.548569e+000
1.129989e+003,9.895630e+000
1.130953e+003,6.873901e+000
1.131917e+003,5.078979e+000
1.132882e+003,6.427139e+000
1.133846e+003,8.596130e+000
1.134810e+003,1.071013e+001
1.135774e+003,1.239685e+001
1.136739e+003,1.326401e+001
1.137703e+003,1.310052e+001
1.138667e+003,1.243768e+001
1.139631e+003,1.204294e+001
1.140595e+003,1.201718e+001
1.141560e+003,1.287157e+001
1.142524e+003,1.469298e+001
1.143488e+003,1.754245e+001
1.144452e+003,2.196767e+001
1.145417e+003,2.743216e+001
1.146381e+003,3.175262e+001
1.147345e+003,3.399748e+001
1.148309e+003,3.738750e+001
1.149274e+003,4.376772e+001
1.150238e+003,5.043816e+001
1.151202e+003,5.620285e+001
1.152166e+003,6.129221e+001
1.153130e+003,6.649420e+001
1.154095e+003,7.201358e+001
1.155059e+003,7.694144e+001
1.156023e+003,8.038873e+001
1.156987e+003,8.212050e+001
1.157952e+003,8.136668e+001
1.158916e+003,7.815236e+001
1.159880e+003,7.383438e+001
1.160844e+003,6.833664e+001
1.161809e+003,6.201840e+001
1.162773e+003,5.600238e+001
1.163737e+003,5.026074e+001
1.164701e+003,4.503534e+001
1.165666e+003,4.083522e+001
1.166630e+003,3.688408e+001
1.167594e+003,3.256503e+001
1.168558e+003,2.843793e+001
1.169522e+003,2.552446e+001
1.170487e+003,2.397490e+001
1.171451e+003,2.267436e+001
1.172415e+003,2.025371e+001
1.173379e+003,1.707788e+001
1.174344e+003,1.531522e+001
1.175308e+003,1.499564e+001
1.176272e+003,1.502205e+001
1.177236e+003,1.549783e+001
1.178201e+003,1.588110e+001
1.179165e+003,1.522583e+001
1.180129e+003,1.343127e+001
1.181093e+003,1.183960e+001
1.182057e+003,1.055322e+001
1.183022e+003,9.940170e+000
1.183986e+003,1.066449e+001
1.184950e+003,1.167654e+001
1.185914e+003,1.193625e+001
1.186879e+003,1.144170e+001
1.187843e+003,1.090671e+001
1.188807e+003,1.087331e+001
1.189771e+003,1.119717e+001
1.190736e+003,1.170653e+001
1.191700e+003,1.246191e+001
1.192664e+003,1.249586e+001
1.193628e+003,1.139670e+001
1.194593e+003,1.013846e+001
1.195557e+003,9.385239e+000
1.196521e+003,8.990585e+000
1.197485e+003,8.556976e+000
1.198449e+003,8.145462e+000
1.199414e+003,7.384033e+000
1.200378e+003,5.692749e+000
1.201342e+003,3.992096e+000
1.202306e+003,2.662933e+000
1.203271e+003,1.762543e+000
1.204235e+003,1.353867e+000
1.205199e+003,1.454346e+000
1.206163e+003,1.917786e+000
1.207128e+003,2.540527e+000
1.208092e+003,3.367584e+000
1.209056e+003,3.044052e+000
1.210020e+003,6.834412e-001
1.210984e+003,-8.693542e-001
1.211949e+003,3.137970e-001
1.212913e+003,1.992691e+000
1.213877e+003,8.817139e-001
1.214841e+003,-3.095856e+000
1.215806e+003,-6.299362e+000
1.216770e+003,-7.158829e+000
1.217734e+003,-7.179169e+000
1.218698e+003,-6.807037e+000
1.219663e+003,-6.790283e+000
1.220627e+003,-8.636139e+000
1.221591e+003,-1.209647e+001
1.222555e+003,-1.484492e+001
1.223520e+003,-1.465535e+001
1.224484e+003,-1.224307e+001
1.225448e+003,-1.126689e+001
1.226412e+003,-1.256021e+001
1.227376e+003,-1.361380e+001
1.228341e+003,-1.480980e+001
1.229305e+003,-1.543295e+001
1.230269e+003,-1.460847e+001
1.231233e+003,-1.308029e+001
1.232198e+003,-1.245294e+001
1.233162e+003,-1.314240e+001
1.234126e+003,-1.361154e+001
1.235090e+003,-1.238031e+001
1.236055e+003,-1.091927e+001
1.237019e+003,-1.124338e+001
1.237983e+003,-1.263979e+001
1.238947e+003,-1.270380e+001
1.239911e+003,-1.041217e+001
1.240876e+003,-7.942581e+000
1.241840e+003,-8.887497e+000
1.242804e+003,-1.354517e+001
1.243768e+003,-1.597157e+001
1.244733e+003,-1.405428e+001
1.245697e+003,-1.254512e+001
1.246661e+003,-1.196407e+001
1.247625e+003,-1.194147e+001
1.248590e+003,-1.257030e+001
1.249554e+003,-1.334619e+001
1.250518e+003,-1.294609e+001
1.251482e+003,-1.070584e+001
1.252447e+003,-8.565338e+000
1.253411e+003,-9.254303e+000
1.254375e+003,-1.135796e+001
1.255339e+003,-1.179462e+001
1.256303e+003,-1.045082e+001
1.257268e+003,-9.159286e+000
1.258232e+003,-9.107315e+000
1.259196e+003,-9.769012e+000
1.260160e+003,-9.981201e+000
1.261125e+003,-9.642014e+000
1.262089e+003,-8.844101e+000
1.263053e+003,-6.506332e+000
1.264017e+003,-5.347626e+000
1.264982e+003,-7.188507e+000
1.265946e+003,-9.523941e+000
1.266910e+003,-9.867920e+000
1.267874e+003,-8.283951e+000
1.268839e+003,-6.502747e+000
1.269803e+003,-5.662155e+000
1.270767e+003,-5.258255e+000
1.271731e+003,-4.084076e+000
1.272695e+003,-2.227325e+000
1.273660e+003,-2.337265e+000
1.274624e+003,-5.712189e+000
1.275588e+003,-8.203598e+000
1.276552e+003,-5.815018e+000
1.277517e+003,-1.636566e+000
1.278481e+003,-2.483749e+000
1.279445e+003,-9.234985e+000
1.280409e+003,-1.394443e+001
1.281374e+003,-1.277562e+001
1.282338e+003,-1.062503e+001
1.283302e+003,-9.835587e+000
1.284266e+003,-9.708954e+000
1.285230e+003,-9.265335e+000
1.286195e+003,-8.491409e+000
1.287159e+003,-8.294876e+000
1.288123e+003,-9.387695e+000
1.289087e+003,-1.101566e+001
1.290052e+003,-1.099995e+001
1.291016e+003,-8.611679e+000
1.291980e+003,-7.523621e+000
1.292944e+003,-8.757919e+000
1.293909e+003,-1.002637e+001
1.294873e+003,-1.011623e+001
1.295837e+003,-9.759354e+000
1.296801e+003,-1.022375e+001
1.297766e+003,-1.158368e+001
1.298730e+003,-1.246442e+001
1.299694e+003,-1.199220e+001
1.300658e+003,-1.121844e+001
1.301622e+003,-1.160393e+001
1.302587e+003,-1.229485e+001
1.303551e+003,-1.166994e+001
1.304515e+003,-9.550919e+000
1.305479e+003,-7.534454e+000
1.306444e+003,-6.924515e+000
1.307408e+003,-7.508774e+000
1.308372e+003,-8.639114e+000
1.309336e+003,-1.091530e+001
1.310301e+003,-1.186691e+001
1.311265e+003,-9.453598e+000
1.312229e+003,-7.995361e+000
1.313193e+003,-1.005714e+001
1.314157e+003,-1.287082e+001
1.315122e+003,-1.313422e+001
1.316086e+003,-1.089369e+001
1.317050e+003,-8.796127e+000
1.318014e+003,-8.520035e+000
1.318979e+003,-9.307449e+000
1.319943e+003,-1.011629e+001
1.320907e+003,-1.082361e+001
1.321871e+003,-1.083589e+001
1.322836e+003,-1.006447e+001
1.323800e+003,-9.329010e+000
1.324764e+003,-9.062469e+000
1.325728e+003,-9.059753e+000
1.326693e+003,-9.078110e+000
1.327657e+003,-9.168930e+000
1.328621e+003,-9.115707e+000
1.329585e+003,-8.444870e+000
1.330549e+003,-7.738785e+000
1.331514e+003,-7.959885e+000
1.332478e+003,-8.238129e+000
1.333442e+003,-7.060623e+000
1.334406e+003,-4.945236e+000
1.335371e+003,-4.260345e+000
1.336335e+003,-6.361237e+000
1.337299e+003,-9.372513e+000
1.338263e+003,-9.682526e+000
1.339228e+003,-6.896317e+000
1.340192e+003,-5.068832e+000
1.341156e+003,-4.162811e+000
1.342120e+003,-4.179260e+000
1.343084e+003,-5.922470e+000
1.344049e+003,-8.064774e+000
1.345013e+003,-9.725891e+000
1.345977e+003,-1.067253e+001
1.346941e+003,-1.060780e+001
1.347906e+003,-9.385986e+000
1.348870e+003,-7.916702e+000
1.349834e+003,-6.747467e+000
1.350798e+003,-6.234573e+000
1.351763e+003,-7.409439e+000
1.352727e+003,-9.783157e+000
1.353691e+003,-1.040485e+001
1.354655e+003,-7.733566e+000
1.355620e+003,-4.601501e+000
1.356584e+003,-4.659592e+000
1.357548e+003,-7.451965e+000
1.358512e+003,-9.161301e+000
1.359476e+003,-9.535767e+000
1.360441e+003,-9.528793e+000
1.361405e+003,-8.898468e+000
1.362369e+003,-8.362244e+000
1.363333e+003,-8.383118e+000
1.364298e+003,-8.656357e+000
1.365262e+003,-8.587692e+000
1.366226e+003,-8.151382e+000
1.367190e+003,-8.168015e+000
1.368155e+003,-9.411743e+000
1.369119e+003,-1.108459e+001
1.370083e+003,-1.052176e+001
1.371047e+003,-6.794037e+000
1.372011e+003,-4.527008e+000
1.372976e+003,-4.392197e+000
1.373940e+003,-4.966980e+000
1.374904e+003,-6.338074e+000
1.375868e+003,-7.654526e+000
1.376833e+003,-7.679886e+000
1.377797e+003,-6.519485e+000
1.378761e+003,-5.505127e+000
1.379725e+003,-5.129883e+000
1.380690e+003,-5.172394e+000
1.381654e+003,-5.655594e+000
1.382618e+003,-6.254196e+000
1.383582e+003,-6.658173e+000
1.384547e+003,-6.797195e+000
1.385511e+003,-6.344543e+000
1.386475e+003,-5.000076e+000
1.387439e+003,-3.629944e+000
1.388403e+003,-3.824951e+000
1.389368e+003,-5.588104e+000
1.390332e+003,-6.253418e+000
1.391296e+003,-4.982849e+000
1.392260e+003,-4.014893e+000
1.393225e+003,-3.668350e+000
1.394189e+003,-3.950623e+000
1.395153e+003,-5.850998e+000
1.396117e+003,-7.954315e+000
1.397082e+003,-7.660706e+000
1.398046e+003,-4.730103e+000
1.399010e+003,-1.924744e+000
1.399974e+003,-1.857574e+000
1.400938e+003,-3.826660e+000
1.401903e+003,-5.359116e+000
1.402867e+003,-6.212677e+000
1.403831e+003,-6.149429e+000
1.404795e+003,-4.573624e+000
1.405760e+003,-3.191696e+000
1.406724e+003,-2.822327e+000
1.407688e+003,-3.137756e+000
1.408652e+003,-3.474533e+000
1.409617e+003,-3.766815e+000
1.410581e+003,-4.922195e+000
1.411545e+003,-7.661942e+000
1.412509e+003,-9.390854e+000
1.413474e+003,-6.601517e+000
1.414438e+003,-1.961838e+000
1.415402e+003,3.464661e-001
1.416366e+003,5.503845e-001
1.417330e+003,2.104950e-001
1.418295e+003,-1.129608e-001
1.419259e+003,-6.179962e-001
1.420223e+003,-1.752808e+000
1.421187e+003,-3.433380e+000
1.422152e+003,-4.767776e+000
1.423116e+003,-5.721283e+000
1.424080e+003,-5.986908e+000
1.425044e+003,-5.351440e+000
1.426009e+003,-4.307343e+000
1.426973e+003,-2.686722e+000
1.427937e+003,-9.921112e-001
1.428901e+003,6.037598e-001
1.429865e+003,1.795013e+000
1.430830e+003,1.481186e+000
1.431794e+003,-1.044388e+000
1.432758e+003,-4.102493e+000
1.433722e+003,-4.046280e+000
1.434687e+003,-3.016510e-001
1.435651e+003,1.054581e+000
1.436615e+003,-3.047516e+000
1.437579e+003,-5.654633e+000
1.438544e+003,-5.367981e+000
1.439508e+003,-4.137085e+000
1.440472e+003,-2.561218e+000
1.441436e+003,-1.124268e+000
1.442401e+003,-9.891815e-001
1.443365e+003,-2.230850e+000
1.444329e+003,-2.523895e+000
1.445293e+003,2.647552e-001
1.446257e+003,3.934464e+000
1.447222e+003,3.738876e+000
1.448186e+003,4.669495e-001
1.449150e+003,-1.497726e+000
1.450114e+003,-1.607376e+000
1.451079e+003,-1.314667e+000
1.452043e+003,-1.257767e+000
1.453007e+003,-1.131805e+000
1.453971e+003,-3.310852e-001
1.454936e+003,9.283295e-001
1.455900e+003,1.171600e+000
1.456864e+003,-2.278900e-001
1.457828e+003,-1.318542e+000
1.458792e+003,-6.039734e-001
1.459757e+003,4.135437e-001
1.460721e+003,4.384003e-001
1.461685e+003,-1.569061e-001
1.462649e+003,-4.083862e-001
1.463614e+003,-6.149292e-002
1.464578e+003,1.679840e-001
1.465542e+003,-5.037537e-001
1.466506e+003,-1.605927e+000
1.467471e+003,-1.459915e+000
1.468435e+003,4.403992e-001
1.469399e+003,1.649597e+000
1.470363e+003,1.178772e+000
1.471328e+003,9.703827e-001
1.472292e+003,2.053345e+000
1.473256e+003,2.762558e+000
1.474220e+003,1.331848e+000
1.475184e+003,-9.911652e-001
1.476149e+003,-1.563309e+000
1.477113e+003,1.666260e-001
1.478077e+003,2.031250e+000
1.479041e+003,2.018433e+000
1.480006e+003,6.442566e-001
1.480970e+003,-6.790619e-001
1.481934e+003,-2.279907e+000
1.482898e+003,-2.796082e+000
1.483863e+003,-1.442657e+000
1.484827e+003,-2.855377e-001
1.485791e+003,-2.317657e-001
1.486755e+003,-1.053162e-001
1.487719e+003,1.334320e+000
1.488684e+003,3.641937e+000
1.489648e+003,5.698120e+000
1.490612e+003,7.166245e+000
1.491576e+003,7.786743e+000
1.492541e+003,6.952591e+000
1.493505e+003,5.679886e+000
1.494469e+003,6.500778e+000
1.495433e+003,8.936752e+000
1.496398e+003,1.086145e+001
1.497362e+003,1.208176e+001
1.498326e+003,1.320695e+001
1.499290e+003,1.451321e+001
1.500255e+003,1.588539e+001
1.501219e+003,1.697110e+001
1.502183e+003,1.786864e+001
1.503147e+003,1.932323e+001
1.504111e+003,2.151556e+001
1.505076e+003,2.418681e+001
1.506040e+003,2.740692e+001
1.507004e+003,3.087476e+001
1.507968e+003,3.444638e+001
1.508933e+003,3.797853e+001
1.509897e+003,4.095868e+001
1.510861e+003,4.352182e+001
1.511825e+003,4.696399e+001
1.512790e+003,5.212263e+001
1.513754e+003,5.843315e+001
1.514718e+003,6.515320e+001
1.515682e+003,7.218121e+001
1.516646e+003,7.909860e+001
1.517611e+003,8.652844e+001
1.518575e+003,9.257779e+001
1.519539e+003,9.557578e+001
1.520503e+003,9.838142e+001
1.521468e+003,1.032915e+002
1.522432e+003,1.084124e+002
1.523396e+003,1.112263e+002
1.524360e+003,1.112935e+002
1.525325e+003,1.094136e+002
1.526289e+003,1.061485e+002
1.527253e+003,1.022594e+002
1.528217e+003,9.921362e+001
1.529182e+003,9.712996e+001
1.530146e+003,9.297755e+001
1.531110e+003,8.577235e+001
1.532074e+003,7.805838e+001
1.533039e+003,6.946643e+001
1.534003e+003,6.067871e+001
1.534967e+003,5.168085e+001
1.535931e+003,4.328679e+001
1.536896e+003,3.633324e+001
1.537860e+003,3.082021e+001
1.538824e+003,2.616850e+001
1.539788e+003,2.202266e+001
1.540752e+003,1.858482e+001
1.541717e+003,1.624597e+001
1.542681e+003,1.487276e+001
1.543645e+003,1.318906e+001
1.544609e+003,1.087595e+001
1.545573e+003,9.436234e+000
1.546538e+003,9.083542e+000
1.547502e+003,8.974243e+000
1.548466e+003,9.013596e+000
1.549430e+003,9.259460e+000
1.550395e+003,9.882401e+000
1.551359e+003,1.061787e+001
1.552323e+003,1.085603e+001
1.553287e+003,1.041768e+001
1.554252e+003,9.673935e+000
1.555216e+003,8.849091e+000
1.556180e+003,8.159088e+000
1.557144e+003,8.296600e+000
1.558109e+003,9.333817e+000
1.559073e+003,9.651642e+000
1.560037e+003,8.760910e+000
1.561001e+003,7.754883e+000
1.561966e+003,6.824707e+000
1.562930e+003,6.381592e+000
1.563894e+003,7.121643e+000
1.564858e+003,8.433105e+000
1.565823e+003,8.870422e+000
1.566787e+003,8.168884e+000
1.567751e+003,7.132309e+000
1.568715e+003,6.088150e+000
1.569679e+003,5.421280e+000
1.570644e+003,5.980545e+000
1.571608e+003,7.066483e+000
1.572572e+003,6.512558e+000
1.573536e+003,4.272125e+000
1.574500e+003,3.267700e+000
1.575465e+003,4.931412e+000
1.576429e+003,7.257233e+000
1.577393e+003,9.210449e+000
1.578357e+003,1.037523e+001
1.579322e+003,9.145767e+000
1.580286e+003,5.828552e+000
1.581250e+003,5.238419e+000
1.582214e+003,9.725571e+000
1.583179e+003,1.378500e+001
1.584143e+003,1.244365e+001
1.585107e+003,9.186874e+000
1.586071e+003,9.257004e+000
1.587036e+003,1.163530e+001
1.588000e+003,1.261925e+001
1.588964e+003,1.127359e+001
1.589928e+003,9.586975e+000
1.590893e+003,8.537476e+000
1.591857e+003,8.245346e+000
1.592821e+003,9.569092e+000
1.593785e+003,1.202455e+001
1.594750e+003,1.218024e+001
1.595714e+003,9.013672e+000
1.596678e+003,7.290833e+000
1.597642e+003,9.991974e+000
1.598606e+003,1.315038e+001
1.599571e+003,1.311554e+001
1.600535e+003,1.197751e+001
1.601499e+003,1.271994e+001
1.602463e+003,1.508247e+001
1.603427e+003,1.652437e+001
1.604392e+003,1.596638e+001
1.605356e+003,1.474168e+001
1.606320e+003,1.395621e+001
1.607284e+003,1.363782e+001
1.608249e+003,1.411392e+001
1.609213e+003,1.543535e+001
1.610177e+003,1.572295e+001
1.611141e+003,1.403346e+001
1.612106e+003,1.289323e+001
1.613070e+003,1.441739e+001
1.614034e+003,1.609196e+001
1.614998e+003,1.584982e+001
1.615963e+003,1.460799e+001
1.616927e+003,1.395952e+001
1.617891e+003,1.412752e+001
1.618855e+003,1.450546e+001
1.619820e+003,1.475902e+001
1.620784e+003,1.460948e+001
1.621748e+003,1.330247e+001
1.622712e+003,1.140559e+001
1.623677e+003,1.217406e+001
1.624641e+003,1.644437e+001
1.625605e+003,1.846667e+001
1.626569e+003,1.499991e+001
1.627533e+003,1.195580e+001
1.628498e+003,1.343289e+001
1.629462e+003,1.569371e+001
1.630426e+003,1.521506e+001
1.631390e+003,1.300395e+001
1.632354e+003,1.158508e+001
1.633319e+003,1.164264e+001
1.634283e+003,1.278845e+001
1.635247e+003,1.498750e+001
1.636211e+003,1.725583e+001
1.637176e+003,1.758101e+001
1.638140e+003,1.618248e+001
1.639104e+003,1.593002e+001
1.640068e+003,1.736566e+001
1.641033e+003,1.790086e+001
1.641997e+003,1.597757e+001
1.642961e+003,1.446519e+001
1.643925e+003,1.542526e+001
1.644890e+003,1.690314e+001
1.645854e+003,1.668625e+001
1.646818e+003,1.531436e+001
1.647782e+003,1.461494e+001
1.648747e+003,1.515036e+001
1.649711e+003,1.629723e+001
1.650675e+003,1.778302e+001
1.651639e+003,1.923253e+001
1.652604e+003,1.958301e+001
1.653568e+003,1.882393e+001
1.654532e+003,1.832198e+001
1.655496e+003,1.829691e+001
1.656460e+003,1.800691e+001
1.657425e+003,1.738640e+001
1.658389e+003,1.633257e+001
1.659353e+003,1.430698e+001
1.660317e+003,1.219807e+001
1.661281e+003,1.071577e+001
1.662246e+003,9.992752e+000
1.663210e+003,1.032219e+001
1.664174e+003,1.179044e+001
1.665138e+003,1.349860e+001
1.666103e+003,1.475558e+001
1.667067e+003,1.552814e+001
1.668031e+003,1.570627e+001
1.668995e+003,1.536040e+001
1.669960e+003,1.531438e+001
1.670924e+003,1.593086e+001
1.671888e+003,1.558658e+001
1.672852e+003,1.272920e+001
1.673817e+003,1.019884e+001
1.674781e+003,1.004929e+001
1.675745e+003,1.092409e+001
1.676709e+003,1.161067e+001
1.677674e+003,1.196175e+001
1.678638e+003,1.205423e+001
1.679602e+003,1.190950e+001
1.680566e+003,1.122849e+001
1.681531e+003,9.414230e+000
1.682495e+003,7.553436e+000
1.683459e+003,7.918152e+000
1.684423e+003,9.931091e+000
1.685387e+003,9.973053e+000
1.686352e+003,7.458267e+000
1.687316e+003,5.493973e+000
1.688280e+003,5.130539e+000
1.689244e+003,5.407425e+000
1.690208e+003,6.180038e+000
1.691173e+003,6.784119e+000
1.692137e+003,6.110611e+000
1.693101e+003,4.736618e+000
1.694065e+003,4.414551e+000
1.695030e+003,5.506836e+000
1.695994e+003,6.845154e+000
1.696958e+003,8.120132e+000
1.697922e+003,8.878265e+000
1.698887e+003,8.453049e+000
1.699851e+003,7.097183e+000
1.700815e+003,5.011627e+000
1.701779e+003,2.246735e+000
1.702744e+003,1.262161e+000
1.703708e+003,3.291245e+000
1.704672e+003,5.892426e+000
1.705636e+003,7.673782e+000
1.706601e+003,8.365967e+000
1.707565e+003,6.856781e+000
1.708529e+003,4.202316e+000
1.709493e+003,4.060059e+000
1.710458e+003,7.216507e+000
1.711422e+003,9.179245e+000
1.712386e+003,7.179810e+000
1.713350e+003,4.627213e+000
1.714314e+003,4.369110e+000
1.715279e+003,5.076584e+000
1.716243e+003,4.522568e+000
1.717207e+003,2.824478e+000
1.718171e+003,1.193726e+000
1.719135e+003,-1.245117e-002
1.720100e+003,3.910828e-002
1.721064e+003,2.302505e+000
1.722028e+003,4.793915e+000
1.722992e+003,4.475296e+000
1.723957e+003,2.044159e+000
1.724921e+003,1.037598e+000
1.725885e+003,1.520737e+000
1.726849e+003,1.748306e+000
1.727814e+003,1.429398e+000
1.728778e+003,1.202545e+000
1.729742e+003,1.358826e+000
1.730706e+003,1.642105e+000
1.731671e+003,1.900284e+000
1.732635e+003,1.867004e+000
1.733599e+003,8.987732e-001
1.734563e+003,-6.990204e-001
1.735528e+003,-1.046387e+000
1.736492e+003,7.910004e-001
1.737456e+003,2.666275e+000
1.738420e+003,1.903931e+000
1.739385e+003,-6.002808e-001
1.740349e+003,-1.176666e+000
1.741313e+003,8.208466e-001
1.742277e+003,1.831406e+000
1.743241e+003,1.443146e+000
1.744206e+003,9.550323e-001
1.745170e+003,-1.020813e-001
1.746134e+003,-6.017456e-001
1.747098e+003,8.447418e-001
1.748063e+003,2.592178e+000
1.749027e+003,2.431198e+000
1.749991e+003,8.960419e-001
1.750955e+003,9.591675e-002
1.751919e+003,6.493073e-001
1.752884e+003,1.227020e+000
1.753848e+003,7.167206e-001
1.754812e+003,-1.600037e-001
1.755776e+003,2.516937e-001
1.756741e+003,1.961700e+000
1.757705e+003,2.320023e+000
1.758669e+003,5.023499e-001
1.759633e+003,-4.660645e-001
1.760598e+003,3.703461e-001
1.761562e+003,9.967651e-001
1.762526e+003,1.298584e+000
1.763490e+003,9.005737e-001
1.764455e+003,-1.458588e+000
1.765419e+003,-4.157394e+000
1.766383e+003,-4.662292e+000
1.767347e+003,-2.949524e+000
1.768312e+003,-5.097351e-001
1.769276e+003,1.972900e+000
1.770240e+003,3.260895e+000
1.771204e+003,1.609604e+000
1.772168e+003,-1.402069e+000
1.773133e+003,-2.270493e+000
1.774097e+003,-1.201431e+000
1.775061e+003,-2.081909e-001
1.776025e+003,3.967285e-001
1.776990e+003,1.212875e+000
1.777954e+003,2.919159e+000
1.778918e+003,4.142792e+000
1.779882e+003,3.577408e+000
1.780846e+003,2.023209e+000
1.781811e+003,9.844971e-002
1.782775e+003,-1.726349e+000
1.783739e+003,-1.634842e+000
1.784703e+003,8.692169e-001
1.785668e+003,2.804840e+000
1.786632e+003,2.815720e+000
1.787596e+003,1.829193e+000
1.788560e+003,-4.551697e-002
1.789525e+003,-1.853683e+000
1.790489e+003,-2.422531e+000
1.791453e+003,-1.885712e+000
1.792417e+003,-3.303070e-001
1.793382e+003,1.974197e+000
1.794346e+003,2.820663e+000
1.795310e+003,8.828430e-001
1.796274e+003,-1.000595e+000
1.797239e+003,7.800598e-001
1.798203e+003,4.743546e+000
1.799167e+003,5.611649e+000
1.800131e+003,2.496201e+000
1.801095e+003,9.000702e-001
1.802060e+003,2.954361e+000
1.803024e+003,3.361893e+000
1.803988e+003,-1.096802e-001
1.804952e+003,-3.334320e+000
1.805917e+003,-4.608780e+000
1.806881e+003,-4.497482e+000
1.807845e+003,-2.863174e+000
1.808809e+003,-6.667175e-001
1.809773e+003,2.238617e-001
1.810738e+003,-3.310852e-001
1.811702e+003,-4.785614e-001
1.812666e+003,9.163361e-001
1.813630e+003,2.811630e+000
1.814595e+003,3.909317e+000
1.815559e+003,4.177200e+000
1.816523e+003,3.380493e+000
1.817487e+003,1.410309e+000
1.818452e+003,-5.606079e-002
1.819416e+003,-7.272034e-001
1.820380e+003,-1.288345e+000
1.821344e+003,-2.384567e+000
1.822309e+003,-2.945496e+000
1.823273e+003,-1.928864e+000
1.824237e+003,-2.933197e-001
1.825201e+003,1.461349e+000
1.826166e+003,2.848022e+000
1.827130e+003,2.484985e+000
1.828094e+003,1.799164e-001
1.829058e+003,-1.584381e+000
1.830022e+003,-1.355362e+000
1.830987e+003,-6.746063e-001
1.831951e+003,-7.802124e-001
1.832915e+003,-1.231537e+000
1.833879e+003,-1.700470e+000
1.834844e+003,-1.917770e+000
1.835808e+003,-7.012939e-001
1.836772e+003,1.842026e+000
1.837736e+003,3.001160e+000
1.838700e+003,1.502838e+000
1.839665e+003,-5.264282e-001
1.840629e+003,-1.199478e+000
1.841593e+003,-7.870331e-001
1.842557e+003,2.046509e-001
1.843522e+003,1.754562e+000
1.844486e+003,2.658722e+000
1.845450e+003,2.883270e+000
1.846414e+003,2.721298e+000
1.847379e+003,1.931107e+000
1.848343e+003,7.752686e-001
1.849307e+003,-1.638138e+000
1.850271e+003,-3.279114e+000
1.851236e+003,-1.776917e+000
1.852200e+003,8.960114e-001
1.853164e+003,1.684189e+000
1.854128e+003,6.791229e-001
1.855093e+003,4.792786e-002
1.856057e+003,6.724854e-001
1.857021e+003,1.577179e+000
1.857985e+003,1.943604e+000
1.858949e+003,1.838837e+000
1.859914e+003,1.193405e+000
1.860878e+003,2.048645e-001
1.861842e+003,-2.545319e-001
1.862806e+003,-2.169495e-001
1.863771e+003,9.462585e-001
1.864735e+003,3.782272e+000
1.865699e+003,5.486374e+000
1.866663e+003,4.529724e+000
1.867627e+003,2.832504e+000
1.868592e+003,1.660889e+000
1.869556e+003,9.572754e-001
1.870520e+003,1.110245e+000
1.871484e+003,1.876312e+000
1.872449e+003,1.507736e+000
1.873413e+003,-3.647919e-001
1.874377e+003,-1.534714e+000
1.875341e+003,-1.871796e+000
1.876306e+003,-1.183136e+000
1.877270e+003,1.672958e+000
1.878234e+003,4.609833e+000
1.879198e+003,5.441315e+000
1.880163e+003,4.875000e+000
1.881127e+003,4.489548e+000
1.882091e+003,4.425461e+000
1.883055e+003,3.649277e+000
1.884020e+003,1.832031e+000
1.884984e+003,1.522675e-001
1.885948e+003,-3.313904e-001
1.886912e+003,2.287903e-001
1.887876e+003,1.684433e+000
1.888841e+003,3.943573e+000
1.889805e+003,5.758026e+000
1.890769e+003,7.212250e+000
1.891733e+003,7.675003e+000
1.892698e+003,6.547058e+000
1.893662e+003,5.551788e+000
1.894626e+003,5.325378e+000
1.895590e+003,5.400177e+000
1.896554e+003,5.653656e+000
1.897519e+003,5.980789e+000
1.898483e+003,6.135254e+000
1.899447e+003,6.104034e+000
1.900411e+003,6.142975e+000
1.901376e+003,6.329910e+000
1.902340e+003,6.583344e+000
1.903304e+003,7.681335e+000
1.904268e+003,7.527222e+000
1.905233e+003,3.006241e+000
1.906197e+003,-1.577530e+000
1.907161e+003,-9.778290e-001
1.908125e+003,2.460068e+000
1.909090e+003,4.165924e+000
1.910054e+003,3.855453e+000
1.911018e+003,3.532257e+000
1.911982e+003,3.981201e+000
1.912947e+003,4.838959e+000
1.913911e+003,5.814926e+000
1.914875e+003,6.691406e+000
1.915839e+003,7.091583e+000
1.916803e+003,7.001541e+000
1.917768e+003,6.619919e+000
1.918732e+003,5.877823e+000
1.919696e+003,5.809494e+000
1.920660e+003,6.885574e+000
1.921625e+003,7.440811e+000
1.922589e+003,6.438766e+000
1.923553e+003,5.829254e+000
1.924517e+003,7.667770e+000
1.925481e+003,9.443939e+000
1.926446e+003,8.509766e+000
1.927410e+003,6.093246e+000
1.928374e+003,4.571457e+000
1.929338e+003,4.041992e+000
1.930303e+003,3.586441e+000
1.931267e+003,3.168900e+000
1.932231e+003,2.661057e+000
1.933195e+003,1.381729e+000
1.934160e+003,5.149689e-001
1.935124e+003,1.350540e+000
1.936088e+003,2.688171e+000
1.937052e+003,2.835892e+000
1.938017e+003,2.493668e+000
1.938981e+003,4.025726e+000
1.939945e+003,7.035782e+000
1.940909e+003,7.754059e+000
1.941874e+003,4.692474e+000
1.942838e+003,1.262756e+000
1.943802e+003,6.946411e-001
1.944766e+003,2.038528e+000
1.945730e+003,3.474075e+000
1.946695e+003,4.807388e+000
1.947659e+003,4.608795e+000
1.948623e+003,2.607452e+000
1.949587e+003,2.026367e+000
1.950552e+003,3.598770e+000
1.951516e+003,5.251572e+000
1.952480e+003,6.662247e+000
1.953444e+003,7.149338e+000
1.954408e+003,5.240997e+000
1.955373e+003,3.017944e+000
1.956337e+003,4.187576e+000
1.957301e+003,7.658844e+000
1.958265e+003,9.103836e+000
1.959230e+003,8.182602e+000
1.960194e+003,7.447769e+000
1.961158e+003,7.386246e+000
1.962122e+003,7.010574e+000
1.963087e+003,5.337540e+000
1.964051e+003,4.230209e+000
1.965015e+003,5.391083e+000
1.965979e+003,7.241959e+000
1.966944e+003,8.168594e+000
1.967908e+003,8.335266e+000
1.968872e+003,8.405502e+000
1.969836e+003,8.576538e+000
1.970801e+003,8.830933e+000
1.971765e+003,9.156799e+000
1.972729e+003,9.408524e+000
1.973693e+003,9.453400e+000
1.974657e+003,9.356430e+000
1.975622e+003,9.035034e+000
1.976586e+003,8.647720e+000
1.977550e+003,8.811523e+000
1.978514e+003,9.465469e+000
1.979479e+003,1.011012e+001
1.980443e+003,1.062172e+001
1.981407e+003,1.058714e+001
1.982371e+003,9.848572e+000
1.983335e+003,9.377930e+000
1.984300e+003,9.905594e+000
1.985264e+003,1.078149e+001
1.986228e+003,1.112097e+001
1.987192e+003,1.092747e+001
1.988157e+003,1.015617e+001
1.989121e+003,8.571609e+000
1.990085e+003,7.825989e+000
1.991049e+003,8.026596e+000
1.992014e+003,8.969910e+000
1.992978e+003,1.183040e+001
1.993942e+003,1.368027e+001
1.994906e+003,1.282744e+001
1.995871e+003,1.135303e+001
1.996835e+003,1.054794e+001
1.997799e+003,1.028508e+001
1.998763e+003,1.028461e+001
1.999728e+003,1.045876e+001
