5.003444e+002,4.360242e+001
5.013087e+002,4.373630e+001
5.022729e+002,4.351912e+001
5.032371e+002,4.337741e+001
5.042014e+002,4.465285e+001
5.051656e+002,4.705823e+001
5.061298e+002,4.871234e+001
5.070941e+002,4.771016e+001
5.080583e+002,4.318889e+001
5.090225e+002,4.059982e+001
5.099868e+002,4.053938e+001
5.109510e+002,4.106068e+001
5.119152e+002,4.137199e+001
5.128795e+002,4.144022e+001
5.138437e+002,4.124258e+001
5.148079e+002,4.052966e+001
5.157722e+002,3.983060e+001
5.167364e+002,3.939856e+001
5.177006e+002,3.918343e+001
5.186649e+002,3.885397e+001
5.196291e+002,3.796231e+001
5.205933e+002,3.698265e+001
5.215576e+002,3.629712e+001
5.225218e+002,3.585982e+001
5.234860e+002,3.548679e+001
5.244503e+002,3.495087e+001
5.254145e+002,3.432123e+001
5.263787e+002,3.387178e+001
5.273430e+002,3.353094e+001
5.283072e+002,3.341147e+001
5.292714e+002,3.386189e+001
5.302357e+002,3.569012e+001
5.311999e+002,3.575327e+001
5.321641e+002,3.216878e+001
5.331284e+002,2.836769e+001
5.340926e+002,2.731136e+001
5.350568e+002,3.019478e+001
5.360211e+002,3.341945e+001
5.369853e+002,3.426997e+001
5.379495e+002,3.375891e+001
5.389138e+002,3.197939e+001
5.398780e+002,2.923175e+001
5.408422e+002,2.631357e+001
5.418065e+002,2.584200e+001
5.427707e+002,2.743082e+001
5.437349e+002,2.849387e+001
5.446992e+002,2.832344e+001
5.456634e+002,2.717697e+001
5.466276e+002,2.598535e+001
5.475919e+002,2.441711e+001
5.485561e+002,2.336639e+001
5.495203e+002,2.305135e+001
5.504846e+002,2.312256e+001
5.514488e+002,2.308685e+001
5.524130e+002,2.268729e+001
5.533773e+002,2.258473e+001
5.543415e+002,2.326460e+001
5.553057e+002,2.425249e+001
5.562700e+002,2.512212e+001
5.572342e+002,2.559436e+001
5.581984e+002,2.565196e+001
5.591627e+002,2.523056e+001
5.601269e+002,2.454190e+001
5.610911e+002,2.369922e+001
5.620554e+002,2.266373e+001
5.630196e+002,2.155620e+001
5.639838e+002,2.192227e+001
5.649481e+002,2.570444e+001
5.659123e+002,2.815587e+001
5.668765e+002,2.812997e+001
5.678408e+002,2.634042e+001
5.688050e+002,2.464474e+001
5.697692e+002,2.354283e+001
5.707335e+002,2.208658e+001
5.716977e+002,1.946060e+001
5.726619e+002,1.658990e+001
5.736262e+002,1.475211e+001
5.745904e+002,1.492963e+001
5.755546e+002,1.611836e+001
5.765189e+002,1.691751e+001
5.774831e+002,1.721690e+001
5.784473e+002,1.676526e+001
5.794116e+002,1.543942e+001
5.803758e+002,1.341035e+001
5.813400e+002,1.211313e+001
5.823043e+002,1.142032e+001
5.832685e+002,1.106546e+001
5.842327e+002,1.094130e+001
5.851970e+002,1.117180e+001
5.861612e+002,1.219337e+001
5.871254e+002,1.522083e+001
5.880897e+002,1.767465e+001
5.890539e+002,1.899130e+001
5.900181e+002,1.936308e+001
5.909824e+002,1.923196e+001
5.919466e+002,1.888457e+001
5.929108e+002,1.807927e+001
5.938751e+002,1.637184e+001
5.948393e+002,1.423689e+001
5.958035e+002,1.237401e+001
5.967678e+002,1.130240e+001
5.977320e+002,1.100250e+001
5.986962e+002,1.128423e+001
5.996605e+002,1.210692e+001
6.006247e+002,1.250899e+001
6.015889e+002,1.144328e+001
6.025532e+002,9.136246e+000
6.035174e+002,8.730377e+000
6.044816e+002,1.309818e+001
6.054459e+002,1.640416e+001
6.064101e+002,1.752583e+001
6.073743e+002,1.705504e+001
6.083386e+002,1.619250e+001
6.093028e+002,1.548419e+001
6.102670e+002,1.461995e+001
6.112313e+002,1.290791e+001
6.121955e+002,1.104878e+001
6.131597e+002,1.011159e+001
6.141240e+002,1.079677e+001
6.150882e+002,1.252231e+001
6.160524e+002,1.278612e+001
6.170167e+002,1.189940e+001
6.179809e+002,1.073303e+001
6.189451e+002,9.255951e+000
6.199094e+002,7.664413e+000
6.208736e+002,7.817657e+000
6.218378e+002,1.341682e+001
6.228021e+002,1.664177e+001
6.237663e+002,1.548424e+001
6.247305e+002,1.191006e+001
6.256948e+002,9.013794e+000
6.266590e+002,7.914474e+000
6.276232e+002,7.583084e+000
6.285875e+002,7.236145e+000
6.295517e+002,7.222763e+000
6.305159e+002,8.182083e+000
6.314802e+002,1.034677e+001
6.324444e+002,1.285474e+001
6.334086e+002,1.327501e+001
6.343729e+002,1.224226e+001
6.353371e+002,1.063493e+001
6.363013e+002,8.516953e+000
6.372656e+002,6.284805e+000
6.382298e+002,5.471191e+000
6.391940e+002,8.013412e+000
6.401583e+002,9.419434e+000
6.411225e+002,9.141083e+000
6.420867e+002,8.154266e+000
6.430510e+002,7.535126e+000
6.440152e+002,7.562714e+000
6.449794e+002,7.589142e+000
6.459437e+002,7.292603e+000
6.469079e+002,6.857956e+000
6.478721e+002,6.480453e+000
6.488364e+002,6.227509e+000
6.498006e+002,5.946762e+000
6.507648e+002,4.993759e+000
6.517291e+002,3.804764e+000
6.526933e+002,3.830063e+000
6.536575e+002,5.418137e+000
6.546218e+002,7.487045e+000
6.555860e+002,7.878448e+000
6.565502e+002,5.088058e+000
6.575145e+002,3.855942e+000
6.584787e+002,5.432617e+000
6.594429e+002,7.367355e+000
6.604072e+002,7.508301e+000
6.613714e+002,5.362793e+000
6.623356e+002,3.604706e+000
6.632999e+002,4.014542e+000
6.642641e+002,4.582230e+000
6.652283e+002,4.069839e+000
6.661926e+002,2.643082e+000
6.671568e+002,1.587585e+000
6.681210e+002,2.713699e+000
6.690853e+002,4.959381e+000
6.700495e+002,5.524963e+000
6.710137e+002,4.430786e+000
6.719780e+002,2.788574e+000
6.729422e+002,1.700928e+000
6.739064e+002,1.156021e+000
6.748707e+002,1.231674e+000
6.758349e+002,2.460815e+000
6.767991e+002,3.474854e+000
6.777634e+002,3.592468e+000
6.787276e+002,2.999298e+000
6.796918e+002,2.749557e+000
6.806561e+002,3.395813e+000
6.816203e+002,4.135056e+000
6.825845e+002,5.031937e+000
6.835488e+002,5.738220e+000
6.845130e+002,5.584259e+000
6.854772e+002,3.960739e+000
6.864415e+002,1.943970e+000
6.874057e+002,1.952896e+000
6.883699e+002,3.306030e+000
6.893342e+002,4.687469e+000
6.902984e+002,5.432327e+000
6.912626e+002,5.570328e+000
6.922269e+002,5.137878e+000
6.931911e+002,2.778610e+000
6.941553e+002,2.009598e+000
6.951196e+002,4.315231e+000
6.960838e+002,7.818481e+000
6.970480e+002,9.554794e+000
6.980123e+002,8.453781e+000
6.989765e+002,6.755310e+000
6.999407e+002,4.501205e+000
7.009050e+002,2.770645e+000
7.018692e+002,2.747650e+000
7.028334e+002,4.646439e+000
7.037977e+002,7.270981e+000
7.047619e+002,9.203308e+000
7.057261e+002,1.034717e+001
7.066904e+002,1.000882e+001
7.076546e+002,8.064758e+000
7.086188e+002,5.603409e+000
7.095831e+002,4.401489e+000
7.105473e+002,5.078461e+000
7.115115e+002,4.927628e+000
7.124758e+002,3.125885e+000
7.134400e+002,1.426758e+000
7.144042e+002,7.179108e-001
7.153685e+002,1.099365e+000
7.163327e+002,2.487473e+000
7.172969e+002,6.706924e+000
7.182612e+002,1.023940e+001
7.192254e+002,1.147993e+001
7.201896e+002,1.079623e+001
7.211539e+002,9.038040e+000
7.221181e+002,6.727585e+000
7.230823e+002,4.518524e+000
7.240466e+002,4.355728e+000
7.250108e+002,5.820282e+000
7.259750e+002,7.080917e+000
7.269393e+002,6.960434e+000
7.279035e+002,5.561600e+000
7.288677e+002,4.497162e+000
7.298320e+002,4.236847e+000
7.307962e+002,4.099976e+000
7.317604e+002,3.984192e+000
7.327247e+002,4.014420e+000
7.336889e+002,4.445160e+000
7.346531e+002,5.461624e+000
7.356174e+002,5.886658e+000
7.365816e+002,5.349792e+000
7.375458e+002,4.213242e+000
7.385101e+002,2.155319e+000
7.394743e+002,-5.444183e-001
7.404385e+002,-2.698624e+000
7.414028e+002,-2.225601e+000
7.423670e+002,1.948090e-001
7.433312e+002,1.708420e+000
7.442955e+002,2.206146e+000
7.452597e+002,2.489960e+000
7.462239e+002,3.577866e+000
7.471882e+002,5.912292e+000
7.481524e+002,6.830826e+000
7.491166e+002,5.055115e+000
7.500809e+002,3.352570e+000
7.510451e+002,2.816101e+000
7.520093e+002,3.252396e+000
7.529736e+002,3.696274e+000
7.539378e+002,3.787384e+000
7.549020e+002,3.882828e+000
7.558663e+002,4.248169e+000
7.568306e+002,4.726486e+000
7.577948e+002,5.024521e+000
7.587590e+002,4.955795e+000
7.597233e+002,4.671021e+000
7.606875e+002,4.926895e+000
7.616517e+002,5.694931e+000
7.626160e+002,6.067596e+000
7.635802e+002,5.698929e+000
7.645444e+002,4.968872e+000
7.655087e+002,4.719589e+000
7.664729e+002,5.440796e+000
7.674371e+002,5.461472e+000
7.684014e+002,3.905396e+000
7.693656e+002,2.426331e+000
7.703298e+002,2.162567e+000
7.712941e+002,3.208130e+000
7.722583e+002,4.605911e+000
7.732225e+002,5.897034e+000
7.741868e+002,7.041580e+000
7.751510e+002,7.905777e+000
7.761152e+002,8.597153e+000
7.770795e+002,9.478134e+000
7.780437e+002,1.086913e+001
7.790079e+002,1.253931e+001
7.799722e+002,1.233965e+001
7.809364e+002,1.017975e+001
7.819006e+002,8.146271e+000
7.828649e+002,6.982086e+000
7.838291e+002,6.620697e+000
7.847933e+002,6.826859e+000
7.857576e+002,8.390961e+000
7.867218e+002,8.798935e+000
7.876860e+002,6.545654e+000
7.886503e+002,4.054352e+000
7.896145e+002,3.544495e+000
7.905787e+002,5.502258e+000
7.915430e+002,8.028366e+000
7.925072e+002,9.513290e+000
7.934714e+002,9.958160e+000
7.944357e+002,8.796738e+000
7.953999e+002,6.464249e+000
7.963641e+002,4.570465e+000
7.973284e+002,4.937195e+000
7.982926e+002,7.741455e+000
7.992568e+002,9.597687e+000
8.002211e+002,1.050891e+001
8.011853e+002,1.049770e+001
8.021495e+002,9.156586e+000
8.031138e+002,7.063614e+000
8.040780e+002,5.953964e+000
8.050422e+002,6.602234e+000
8.060065e+002,7.287949e+000
8.069707e+002,7.494232e+000
8.079349e+002,7.335251e+000
8.088992e+002,6.754684e+000
8.098634e+002,5.867661e+000
8.108276e+002,5.305145e+000
8.117919e+002,6.315903e+000
8.127561e+002,7.977203e+000
8.137203e+002,8.791107e+000
8.146846e+002,8.660080e+000
8.156488e+002,7.724411e+000
8.166130e+002,5.901917e+000
8.175773e+002,2.720963e+000
8.185415e+002,1.412125e+000
8.195057e+002,2.714706e+000
8.204700e+002,4.399170e+000
8.214342e+002,6.321609e+000
8.223984e+002,8.062576e+000
8.233627e+002,8.487076e+000
8.243269e+002,6.461227e+000
8.252911e+002,4.629532e+000
8.262554e+002,4.795959e+000
8.272196e+002,5.715759e+000
8.281838e+002,5.950531e+000
8.291481e+002,5.074326e+000
8.301123e+002,4.062103e+000
8.310765e+002,4.869415e+000
8.320408e+002,7.210815e+000
8.330050e+002,7.855988e+000
8.339692e+002,6.310410e+000
8.349335e+002,4.152710e+000
8.358977e+002,2.883713e+000
8.368619e+002,2.591110e+000
8.378262e+002,2.878143e+000
8.387904e+002,3.979950e+000
8.397546e+002,5.237396e+000
8.407189e+002,6.986511e+000
8.416831e+002,8.684753e+000
8.426473e+002,9.326675e+000
8.436116e+002,8.274506e+000
8.445758e+002,6.951294e+000
8.455400e+002,6.811127e+000
8.465043e+002,7.133392e+000
8.474685e+002,7.156021e+000
8.484327e+002,6.783432e+000
8.493970e+002,6.606201e+000
8.503612e+002,7.563751e+000
8.513254e+002,9.926178e+000
8.522897e+002,1.103027e+001
8.532539e+002,1.007942e+001
8.542181e+002,8.969864e+000
8.551824e+002,8.923172e+000
8.561466e+002,9.905365e+000
8.571108e+002,1.097202e+001
8.580751e+002,1.207396e+001
8.590393e+002,1.257117e+001
8.600035e+002,1.198788e+001
8.609678e+002,1.102255e+001
8.619320e+002,1.022684e+001
8.628962e+002,9.876801e+000
8.638605e+002,1.023442e+001
8.648247e+002,1.243008e+001
8.657889e+002,1.539705e+001
8.667532e+002,1.662352e+001
8.677174e+002,1.578397e+001
8.686816e+002,1.444125e+001
8.696459e+002,1.440244e+001
8.706101e+002,1.589072e+001
8.715743e+002,1.739839e+001
8.725386e+002,1.954527e+001
8.735028e+002,2.097218e+001
8.744670e+002,2.083327e+001
8.754313e+002,1.973167e+001
8.763955e+002,1.875504e+001
8.773597e+002,1.814690e+001
8.783240e+002,1.827127e+001
8.792882e+002,1.999217e+001
8.802524e+002,2.199687e+001
8.812167e+002,2.311954e+001
8.821809e+002,2.316953e+001
8.831451e+002,2.274947e+001
8.841094e+002,2.265063e+001
8.850736e+002,2.290903e+001
8.860378e+002,2.281825e+001
8.870021e+002,2.212111e+001
8.879663e+002,2.177641e+001
8.889305e+002,2.247916e+001
8.898948e+002,2.398396e+001
8.908590e+002,2.521997e+001
8.918232e+002,2.656781e+001
8.927875e+002,2.690962e+001
8.937517e+002,2.513583e+001
8.947159e+002,2.304059e+001
8.956802e+002,2.198132e+001
8.966444e+002,2.223718e+001
8.976086e+002,2.322371e+001
8.985729e+002,2.476434e+001
8.995371e+002,2.651328e+001
9.005013e+002,2.801805e+001
9.014656e+002,2.920532e+001
9.024298e+002,2.962935e+001
9.033940e+002,2.880286e+001
9.043583e+002,2.687895e+001
9.053225e+002,2.563290e+001
9.062867e+002,2.543893e+001
9.072510e+002,2.541908e+001
9.082152e+002,2.568245e+001
9.091794e+002,2.622359e+001
9.101437e+002,2.730818e+001
9.111079e+002,2.898444e+001
9.120721e+002,2.992053e+001
9.130364e+002,2.843912e+001
9.140006e+002,2.653984e+001
9.149648e+002,2.509094e+001
9.159291e+002,2.431284e+001
9.168933e+002,2.432628e+001
9.178575e+002,2.516125e+001
9.188218e+002,2.654524e+001
9.197860e+002,2.765915e+001
9.207502e+002,2.844868e+001
9.217145e+002,2.953778e+001
9.226787e+002,3.180513e+001
9.236429e+002,3.391605e+001
9.246072e+002,3.365808e+001
9.255714e+002,3.040570e+001
9.265356e+002,2.772647e+001
9.274999e+002,2.650938e+001
9.284641e+002,2.554799e+001
9.294283e+002,2.457048e+001
9.303926e+002,2.358577e+001
9.313568e+002,2.270227e+001
9.323210e+002,2.197615e+001
9.332853e+002,2.125818e+001
9.342495e+002,1.984619e+001
9.352137e+002,1.836482e+001
9.361780e+002,1.834694e+001
9.371422e+002,2.013551e+001
9.381064e+002,2.213539e+001
9.390707e+002,2.191403e+001
9.400349e+002,1.873529e+001
9.409991e+002,1.782103e+001
9.419634e+002,2.142545e+001
9.429276e+002,2.404768e+001
9.438918e+002,2.391542e+001
9.448561e+002,2.204814e+001
9.458203e+002,2.006076e+001
9.467845e+002,1.828841e+001
9.477488e+002,1.705034e+001
9.487130e+002,1.691212e+001
9.496772e+002,1.712746e+001
9.506415e+002,1.721295e+001
9.516057e+002,1.707957e+001
9.525699e+002,1.685194e+001
9.535342e+002,1.664665e+001
9.544984e+002,1.639014e+001
9.554626e+002,1.559755e+001
9.564269e+002,1.419737e+001
9.573911e+002,1.322835e+001
9.583553e+002,1.292702e+001
9.593196e+002,1.318610e+001
9.602838e+002,1.404703e+001
9.612480e+002,1.576541e+001
9.622123e+002,1.686699e+001
9.631765e+002,1.660991e+001
9.641407e+002,1.604453e+001
9.651050e+002,1.535381e+001
9.660692e+002,1.472363e+001
9.670334e+002,1.443044e+001
9.679977e+002,1.469536e+001
9.689619e+002,1.534607e+001
9.699261e+002,1.572052e+001
9.708904e+002,1.597096e+001
9.718546e+002,1.699649e+001
9.728188e+002,1.911545e+001
9.737831e+002,2.142099e+001
9.747473e+002,2.266136e+001
9.757115e+002,2.259706e+001
9.766758e+002,2.291624e+001
9.776400e+002,2.440253e+001
9.786042e+002,2.545639e+001
9.795685e+002,2.565936e+001
9.805327e+002,2.510953e+001
9.814969e+002,2.388683e+001
9.824612e+002,2.206526e+001
9.834254e+002,2.025961e+001
9.843896e+002,1.937726e+001
9.853539e+002,1.845456e+001
9.863181e+002,1.614508e+001
9.872823e+002,1.260902e+001
9.882466e+002,9.028778e+000
9.892108e+002,6.452591e+000
9.901750e+002,5.010696e+000
9.911393e+002,5.043564e+000
9.921035e+002,8.047775e+000
9.930677e+002,9.670013e+000
9.940320e+002,9.138031e+000
9.949962e+002,7.789856e+000
9.959604e+002,6.445465e+000
9.969247e+002,5.269348e+000
9.978889e+002,5.140350e+000
9.988531e+002,7.439880e+000
9.998174e+002,9.500198e+000
1.000782e+003,9.759827e+000
1.001746e+003,8.849838e+000
1.002710e+003,7.558014e+000
1.003674e+003,6.315063e+000
1.004639e+003,5.234848e+000
1.005603e+003,4.521347e+000
1.006567e+003,4.192490e+000
1.007531e+003,4.295685e+000
1.008495e+003,5.349136e+000
1.009460e+003,5.846115e+000
1.010424e+003,4.146729e+000
1.011388e+003,1.065689e+000
1.012352e+003,1.024170e-001
1.013317e+003,2.989578e+000
1.014281e+003,5.239594e+000
1.015245e+003,4.973785e+000
1.016209e+003,4.055756e+000
1.017174e+003,3.941986e+000
1.018138e+003,4.632645e+000
1.019102e+003,5.070160e+000
1.020066e+003,4.367432e+000
1.021031e+003,3.013931e+000
1.021995e+003,2.215256e+000
1.022959e+003,1.809860e+000
1.023923e+003,1.589813e+000
1.024887e+003,1.478516e+000
1.025852e+003,1.504623e+000
1.026816e+003,1.929245e+000
1.027780e+003,3.088989e+000
1.028744e+003,3.301926e+000
1.029709e+003,1.473648e+000
1.030673e+003,-2.040329e-001
1.031637e+003,-1.269691e+000
1.032601e+003,-1.764465e+000
1.033566e+003,-1.681519e+000
1.034530e+003,-1.022545e+000
1.035494e+003,-1.752090e-001
1.036458e+003,6.002731e-001
1.037422e+003,1.099777e+000
1.038387e+003,7.356415e-001
1.039351e+003,-3.672180e-001
1.040315e+003,-1.012253e+000
1.041279e+003,-1.833115e-001
1.042244e+003,1.744888e+000
1.043208e+003,2.746468e+000
1.044172e+003,2.039276e+000
1.045136e+003,1.526337e+000
1.046101e+003,1.739655e+000
1.047065e+003,1.749161e+000
1.048029e+003,6.841812e-001
1.048993e+003,-1.189018e+000
1.049958e+003,-2.795456e+000
1.050922e+003,-3.753510e+000
1.051886e+003,-3.854881e+000
1.052850e+003,-2.382263e+000
1.053814e+003,-3.072281e-001
1.054779e+003,1.154312e+000
1.055743e+003,1.720352e+000
1.056707e+003,1.839493e+000
1.057671e+003,2.076378e+000
1.058636e+003,2.418411e+000
1.059600e+003,1.959206e+000
1.060564e+003,-3.024368e-001
1.061528e+003,-1.701477e+000
1.062493e+003,-1.443962e+000
1.063457e+003,-5.779343e-001
1.064421e+003,-4.943848e-002
1.065385e+003,4.016876e-002
1.066349e+003,-3.558578e-001
1.067314e+003,-1.993355e+000
1.068278e+003,-3.210701e+000
1.069242e+003,-2.406395e+000
1.070206e+003,-5.466766e-001
1.071171e+003,7.723999e-001
1.072135e+003,8.658905e-001
1.073099e+003,3.251190e-001
1.074063e+003,1.680679e-001
1.075028e+003,4.376068e-001
1.075992e+003,1.202209e+000
1.076956e+003,3.105957e+000
1.077920e+003,4.272034e+000
1.078885e+003,3.477325e+000
1.079849e+003,1.789505e+000
1.080813e+003,1.321564e+000
1.081777e+003,2.656998e+000
1.082741e+003,3.582764e+000
1.083706e+003,1.875885e+000
1.084670e+003,2.748260e-001
1.085634e+003,7.693405e-001
1.086598e+003,2.486740e+000
1.087563e+003,3.490135e+000
1.088527e+003,2.766830e+000
1.089491e+003,1.236160e+000
1.090455e+003,6.288376e-001
1.091420e+003,1.018883e+000
1.092384e+003,7.611084e-001
1.093348e+003,-5.810623e-001
1.094312e+003,-1.869141e+000
1.095276e+003,-2.307831e+000
1.096241e+003,-2.108414e+000
1.097205e+003,-2.051689e+000
1.098169e+003,-2.378403e+000
1.099133e+003,-2.559502e+000
1.100098e+003,-2.383530e+000
1.101062e+003,-1.970222e+000
1.102026e+003,-1.382614e+000
1.102990e+003,-6.067352e-001
1.103955e+003,5.996628e-001
1.104919e+003,2.347557e+000
1.105883e+003,3.931473e+000
1.106847e+003,3.725777e+000
1.107812e+003,1.668663e+000
1.108776e+003,6.096649e-002
1.109740e+003,-9.149017e-001
1.110704e+003,-1.625938e+000
1.111668e+003,-2.413162e+000
1.112633e+003,-3.098000e+000
1.113597e+003,-2.952858e+000
1.114561e+003,-1.492897e+000
1.115525e+003,-3.145447e-001
1.116490e+003,-4.062500e-001
1.117454e+003,-4.695129e-001
1.118418e+003,9.603577e-001
1.119382e+003,3.194839e+000
1.120347e+003,4.252602e+000
1.121311e+003,2.866913e+000
1.122275e+003,-3.874969e-002
1.123239e+003,-2.863861e+000
1.124203e+003,-5.327454e+000
1.125168e+003,-5.527092e+000
1.126132e+003,-2.348663e+000
1.127096e+003,6.389465e-001
1.128060e+003,9.458923e-002
1.129025e+003,-3.105026e+000
1.129989e+003,-4.459885e+000
1.130953e+003,-2.567879e+000
1.131917e+003,-1.453049e+000
1.132882e+003,-3.553551e+000
1.133846e+003,-5.301460e+000
1.134810e+003,-3.810379e+000
1.135774e+003,-1.830902e-001
1.136739e+003,2.520660e+000
1.137703e+003,2.582527e+000
1.138667e+003,1.423927e+000
1.139631e+003,1.591148e+000
1.140595e+003,2.867958e+000
1.141560e+003,3.181923e+000
1.142524e+003,2.154716e+000
1.143488e+003,1.391495e+000
1.144452e+003,2.381889e+000
1.145417e+003,4.490120e+000
1.146381e+003,5.260071e+000
1.147345e+003,3.921181e+000
1.148309e+003,3.043678e+000
1.149274e+003,2.818886e+000
1.150238e+003,3.653946e+000
1.151202e+003,6.440331e+000
1.152166e+003,1.034470e+001
1.153130e+003,1.413003e+001
1.154095e+003,1.708615e+001
1.155059e+003,1.893137e+001
1.156023e+003,1.931535e+001
1.156987e+003,1.823276e+001
1.157952e+003,1.603371e+001
1.158916e+003,1.249361e+001
1.159880e+003,9.677612e+000
1.160844e+003,9.001526e+000
1.161809e+003,9.501755e+000
1.162773e+003,9.222069e+000
1.163737e+003,8.084839e+000
1.164701e+003,6.514664e+000
1.165666e+003,3.589844e+000
1.166630e+003,1.415878e+000
1.167594e+003,1.464043e+000
1.168558e+003,2.432312e+000
1.169522e+003,2.419151e+000
1.170487e+003,9.448776e-001
1.171451e+003,-6.986618e-001
1.172415e+003,-1.045204e+000
1.173379e+003,-3.924561e-001
1.174344e+003,-2.507172e-001
1.175308e+003,-5.939560e-001
1.176272e+003,-1.055618e+000
1.177236e+003,-1.598099e+000
1.178201e+003,-2.101761e+000
1.179165e+003,-2.402763e+000
1.180129e+003,-2.541283e+000
1.181093e+003,-2.888763e+000
1.182057e+003,-3.870659e+000
1.183022e+003,-4.457016e+000
1.183986e+003,-4.129982e+000
1.184950e+003,-3.373093e+000
1.185914e+003,-2.234161e+000
1.186879e+003,-1.063950e+000
1.187843e+003,-8.720779e-001
1.188807e+003,-2.541267e+000
1.189771e+003,-5.179802e+000
1.190736e+003,-5.795235e+000
1.191700e+003,-4.071548e+000
1.192664e+003,-3.773193e+000
1.193628e+003,-6.209587e+000
1.194593e+003,-8.760406e+000
1.195557e+003,-9.492371e+000
1.196521e+003,-8.848732e+000
1.197485e+003,-8.360046e+000
1.198449e+003,-8.315582e+000
1.199414e+003,-8.183807e+000
1.200378e+003,-7.804810e+000
1.201342e+003,-7.184334e+000
1.202306e+003,-5.795876e+000
1.203271e+003,-4.292244e+000
1.204235e+003,-3.952568e+000
1.205199e+003,-5.341255e+000
1.206163e+003,-7.757950e+000
1.207128e+003,-1.014658e+001
1.208092e+003,-1.252112e+001
1.209056e+003,-1.383708e+001
1.210020e+003,-1.407574e+001
1.210984e+003,-1.357168e+001
1.211949e+003,-1.182716e+001
1.212913e+003,-9.775429e+000
1.213877e+003,-8.511482e+000
1.214841e+003,-8.100540e+000
1.215806e+003,-8.289268e+000
1.216770e+003,-9.147469e+000
1.217734e+003,-1.039899e+001
1.218698e+003,-1.243024e+001
1.219663e+003,-1.439359e+001
1.220627e+003,-1.498689e+001
1.221591e+003,-1.419670e+001
1.222555e+003,-1.326171e+001
1.223520e+003,-1.332530e+001
1.224484e+003,-1.410680e+001
1.225448e+003,-1.435944e+001
1.226412e+003,-1.369778e+001
1.227376e+003,-1.339024e+001
1.228341e+003,-1.382883e+001
1.229305e+003,-1.420844e+001
1.230269e+003,-1.389774e+001
1.231233e+003,-1.327836e+001
1.232198e+003,-1.324985e+001
1.233162e+003,-1.405766e+001
1.234126e+003,-1.465382e+001
1.235090e+003,-1.398170e+001
1.236055e+003,-1.310465e+001
1.237019e+003,-1.347199e+001
1.237983e+003,-1.457770e+001
1.238947e+003,-1.473329e+001
1.239911e+003,-1.323057e+001
1.240876e+003,-1.161666e+001
1.241840e+003,-1.249081e+001
1.242804e+003,-1.610393e+001
1.243768e+003,-1.753055e+001
1.244733e+003,-1.425019e+001
1.245697e+003,-1.203316e+001
1.246661e+003,-1.190213e+001
1.247625e+003,-1.252684e+001
1.248590e+003,-1.321581e+001
1.249554e+003,-1.367091e+001
1.250518e+003,-1.348904e+001
1.251482e+003,-1.246883e+001
1.252447e+003,-1.132708e+001
1.253411e+003,-1.090833e+001
1.254375e+003,-1.091051e+001
1.255339e+003,-1.066951e+001
1.256303e+003,-1.015308e+001
1.257268e+003,-9.851044e+000
1.258232e+003,-1.013715e+001
1.259196e+003,-1.080080e+001
1.260160e+003,-1.144016e+001
1.261125e+003,-1.208625e+001
1.262089e+003,-1.216014e+001
1.263053e+003,-1.084737e+001
1.264017e+003,-1.001216e+001
1.264982e+003,-1.069466e+001
1.265946e+003,-1.155856e+001
1.266910e+003,-1.091233e+001
1.267874e+003,-9.110977e+000
1.268839e+003,-8.248756e+000
1.269803e+003,-9.733711e+000
1.270767e+003,-1.210522e+001
1.271731e+003,-1.232622e+001
1.272695e+003,-1.047572e+001
1.273660e+003,-1.016239e+001
1.274624e+003,-1.233702e+001
1.275588e+003,-1.396114e+001
1.276552e+003,-1.270752e+001
1.277517e+003,-1.003899e+001
1.278481e+003,-8.838844e+000
1.279445e+003,-9.375145e+000
1.280409e+003,-9.900650e+000
1.281374e+003,-9.476875e+000
1.282338e+003,-9.477913e+000
1.283302e+003,-1.117313e+001
1.284266e+003,-1.330628e+001
1.285230e+003,-1.445020e+001
1.286195e+003,-1.442817e+001
1.287159e+003,-1.392776e+001
1.288123e+003,-1.348701e+001
1.289087e+003,-1.307049e+001
1.290052e+003,-1.266257e+001
1.291016e+003,-1.224346e+001
1.291980e+003,-1.208991e+001
1.292944e+003,-1.257928e+001
1.293909e+003,-1.291874e+001
1.294873e+003,-1.255276e+001
1.295837e+003,-1.192031e+001
1.296801e+003,-1.167004e+001
1.297766e+003,-1.187386e+001
1.298730e+003,-1.215971e+001
1.299694e+003,-1.242182e+001
1.300658e+003,-1.261195e+001
1.301622e+003,-1.245382e+001
1.302587e+003,-1.223059e+001
1.303551e+003,-1.272539e+001
1.304515e+003,-1.392279e+001
1.305479e+003,-1.440671e+001
1.306444e+003,-1.285397e+001
1.307408e+003,-1.008686e+001
1.308372e+003,-8.905174e+000
1.309336e+003,-9.868324e+000
1.310301e+003,-1.073244e+001
1.311265e+003,-1.176025e+001
1.312229e+003,-1.215144e+001
1.313193e+003,-1.107317e+001
1.314157e+003,-9.650894e+000
1.315122e+003,-9.140999e+000
1.316086e+003,-9.598045e+000
1.317050e+003,-1.016650e+001
1.318014e+003,-1.027504e+001
1.318979e+003,-1.005884e+001
1.319943e+003,-9.589569e+000
1.320907e+003,-8.984383e+000
1.321871e+003,-9.471138e+000
1.322836e+003,-1.160540e+001
1.323800e+003,-1.327159e+001
1.324764e+003,-1.295798e+001
1.325728e+003,-1.166130e+001
1.326693e+003,-1.112764e+001
1.327657e+003,-1.144730e+001
1.328621e+003,-1.168097e+001
1.329585e+003,-1.149529e+001
1.330549e+003,-1.103536e+001
1.331514e+003,-1.006384e+001
1.332478e+003,-9.340195e+000
1.333442e+003,-9.902611e+000
1.334406e+003,-1.138192e+001
1.335371e+003,-1.239985e+001
1.336335e+003,-1.213294e+001
1.337299e+003,-1.114760e+001
1.338263e+003,-1.050222e+001
1.339228e+003,-1.018631e+001
1.340192e+003,-1.030853e+001
1.341156e+003,-1.176057e+001
1.342120e+003,-1.232587e+001
1.343084e+003,-1.104295e+001
1.344049e+003,-9.434021e+000
1.345013e+003,-8.556229e+000
1.345977e+003,-8.388680e+000
1.346941e+003,-8.733948e+000
1.347906e+003,-9.575684e+000
1.348870e+003,-1.010540e+001
1.349834e+003,-9.282608e+000
1.350798e+003,-7.928680e+000
1.351763e+003,-7.568672e+000
1.352727e+003,-8.073517e+000
1.353691e+003,-8.812424e+000
1.354655e+003,-9.701584e+000
1.355620e+003,-1.022755e+001
1.356584e+003,-9.555679e+000
1.357548e+003,-7.833214e+000
1.358512e+003,-6.463707e+000
1.359476e+003,-5.320992e+000
1.360441e+003,-5.182686e+000
1.361405e+003,-7.393059e+000
1.362369e+003,-9.328323e+000
1.363333e+003,-9.665627e+000
1.364298e+003,-8.931877e+000
1.365262e+003,-7.659409e+000
1.366226e+003,-6.255150e+000
1.367190e+003,-5.419388e+000
1.368155e+003,-5.793716e+000
1.369119e+003,-6.954269e+000
1.370083e+003,-7.561974e+000
1.371047e+003,-7.471550e+000
1.372011e+003,-7.229637e+000
1.372976e+003,-6.553749e+000
1.373940e+003,-6.217186e+000
1.374904e+003,-6.812195e+000
1.375868e+003,-7.655319e+000
1.376833e+003,-7.794724e+000
1.377797e+003,-7.269272e+000
1.378761e+003,-6.982201e+000
1.379725e+003,-7.354584e+000
1.380690e+003,-7.893021e+000
1.381654e+003,-8.467583e+000
1.382618e+003,-8.662643e+000
1.383582e+003,-7.292847e+000
1.384547e+003,-4.674622e+000
1.385511e+003,-3.352875e+000
1.386475e+003,-4.912277e+000
1.387439e+003,-7.391930e+000
1.388403e+003,-7.458244e+000
1.389368e+003,-5.128044e+000
1.390332e+003,-4.315834e+000
1.391296e+003,-5.884933e+000
1.392260e+003,-7.395432e+000
1.393225e+003,-8.841949e+000
1.394189e+003,-9.554344e+000
1.395153e+003,-8.676643e+000
1.396117e+003,-7.004463e+000
1.397082e+003,-5.556633e+000
1.398046e+003,-4.726189e+000
1.399010e+003,-4.581779e+000
1.399974e+003,-5.258789e+000
1.400938e+003,-6.391800e+000
1.401903e+003,-6.598152e+000
1.402867e+003,-5.371422e+000
1.403831e+003,-4.795151e+000
1.404795e+003,-5.640144e+000
1.405760e+003,-6.202049e+000
1.406724e+003,-5.431778e+000
1.407688e+003,-4.576256e+000
1.408652e+003,-5.505142e+000
1.409617e+003,-7.786255e+000
1.410581e+003,-8.557526e+000
1.411545e+003,-6.386101e+000
1.412509e+003,-4.136482e+000
1.413474e+003,-5.082123e+000
1.414438e+003,-7.491341e+000
1.415402e+003,-8.425537e+000
1.416366e+003,-7.927338e+000
1.417330e+003,-6.997208e+000
1.418295e+003,-5.936348e+000
1.419259e+003,-4.886177e+000
1.420223e+003,-4.032234e+000
1.421187e+003,-3.394257e+000
1.422152e+003,-2.897331e+000
1.423116e+003,-2.505630e+000
1.424080e+003,-2.156548e+000
1.425044e+003,-1.880081e+000
1.426009e+003,-1.711502e+000
1.426973e+003,-1.574898e+000
1.427937e+003,-1.618042e+000
1.428901e+003,-2.030937e+000
1.429865e+003,-2.770508e+000
1.430830e+003,-3.742065e+000
1.431794e+003,-4.889465e+000
1.432758e+003,-5.847931e+000
1.433722e+003,-5.765388e+000
1.434687e+003,-4.443588e+000
1.435651e+003,-3.661118e+000
1.436615e+003,-4.224518e+000
1.437579e+003,-4.476921e+000
1.438544e+003,-3.942444e+000
1.439508e+003,-3.351013e+000
1.440472e+003,-3.057831e+000
1.441436e+003,-3.046272e+000
1.442401e+003,-3.413750e+000
1.443365e+003,-4.116325e+000
1.444329e+003,-4.501572e+000
1.445293e+003,-3.999718e+000
1.446257e+003,-3.083626e+000
1.447222e+003,-2.644485e+000
1.448186e+003,-2.623688e+000
1.449150e+003,-2.658447e+000
1.450114e+003,-2.647881e+000
1.451079e+003,-3.051071e+000
1.452043e+003,-4.890091e+000
1.453007e+003,-6.653992e+000
1.453971e+003,-5.661339e+000
1.454936e+003,-2.408051e+000
1.455900e+003,-7.583084e-001
1.456864e+003,-1.849495e+000
1.457828e+003,-3.300812e+000
1.458792e+003,-4.052750e+000
1.459757e+003,-4.393890e+000
1.460721e+003,-4.480965e+000
1.461685e+003,-4.355812e+000
1.462649e+003,-3.995628e+000
1.463614e+003,-3.406021e+000
1.464578e+003,-2.802032e+000
1.465542e+003,-2.375099e+000
1.466506e+003,-2.146400e+000
1.467471e+003,-2.081787e+000
1.468435e+003,-2.065491e+000
1.469399e+003,-2.498665e+000
1.470363e+003,-4.214577e+000
1.471328e+003,-5.339279e+000
1.472292e+003,-5.034073e+000
1.473256e+003,-4.524826e+000
1.474220e+003,-4.720558e+000
1.475184e+003,-5.291618e+000
1.476149e+003,-5.450500e+000
1.477113e+003,-5.013649e+000
1.478077e+003,-4.566360e+000
1.479041e+003,-4.653732e+000
1.480006e+003,-4.934151e+000
1.480970e+003,-4.358955e+000
1.481934e+003,-2.732529e+000
1.482898e+003,-1.277336e+000
1.483863e+003,7.341003e-001
1.484827e+003,1.553818e+000
1.485791e+003,-2.523956e-001
1.486755e+003,-2.513741e+000
1.487719e+003,-3.316345e+000
1.488684e+003,-2.910599e+000
1.489648e+003,-2.484161e+000
1.490612e+003,-2.381706e+000
1.491576e+003,-1.767059e+000
1.492541e+003,2.934723e-001
1.493505e+003,2.817535e+000
1.494469e+003,3.424271e+000
1.495433e+003,2.399475e+000
1.496398e+003,1.793930e+000
1.497362e+003,2.095772e+000
1.498326e+003,2.304626e+000
1.499290e+003,1.441650e+000
1.500255e+003,5.039597e-001
1.501219e+003,9.053268e-001
1.502183e+003,2.488441e+000
1.503147e+003,4.324364e+000
1.504111e+003,6.312622e+000
1.505076e+003,8.036316e+000
1.506040e+003,9.432953e+000
1.507004e+003,1.024354e+001
1.507968e+003,9.680016e+000
1.508933e+003,8.570534e+000
1.509897e+003,8.747192e+000
1.510861e+003,1.056491e+001
1.511825e+003,1.281486e+001
1.512790e+003,1.465075e+001
1.513754e+003,1.622552e+001
1.514718e+003,1.786827e+001
1.515682e+003,1.954198e+001
1.516646e+003,2.133675e+001
1.517611e+003,2.351736e+001
1.518575e+003,2.536112e+001
1.519539e+003,2.660429e+001
1.520503e+003,2.758118e+001
1.521468e+003,2.850288e+001
1.522432e+003,2.918653e+001
1.523396e+003,2.936887e+001
1.524360e+003,2.902362e+001
1.525325e+003,2.833654e+001
1.526289e+003,2.744507e+001
1.527253e+003,2.624426e+001
1.528217e+003,2.445149e+001
1.529182e+003,2.209042e+001
1.530146e+003,2.013593e+001
1.531110e+003,1.858961e+001
1.532074e+003,1.740894e+001
1.533039e+003,1.700111e+001
1.534003e+003,1.619873e+001
1.534967e+003,1.448391e+001
1.535931e+003,1.229590e+001
1.536896e+003,9.869453e+000
1.537860e+003,7.483742e+000
1.538824e+003,5.623474e+000
1.539788e+003,4.491135e+000
1.540752e+003,3.654526e+000
1.541717e+003,2.552444e+000
1.542681e+003,1.358971e+000
1.543645e+003,1.031120e+000
1.544609e+003,2.066429e+000
1.545573e+003,2.873390e+000
1.546538e+003,3.132538e+000
1.547502e+003,3.437233e+000
1.548466e+003,3.966194e+000
1.549430e+003,4.807137e+000
1.550395e+003,6.570885e+000
1.551359e+003,8.588760e+000
1.552323e+003,8.923721e+000
1.553287e+003,7.005959e+000
1.554252e+003,4.622841e+000
1.555216e+003,3.277855e+000
1.556180e+003,2.672646e+000
1.557144e+003,2.250381e+000
1.558109e+003,2.037872e+000
1.559073e+003,1.392960e+000
1.560037e+003,-1.510696e-001
1.561001e+003,-1.329353e+000
1.561966e+003,-1.569649e+000
1.562930e+003,-1.284698e+000
1.563894e+003,-6.702805e-001
1.564858e+003,5.081177e-002
1.565823e+003,2.815704e-001
1.566787e+003,-4.100037e-002
1.567751e+003,1.505203e-001
1.568715e+003,1.641350e+000
1.569679e+003,3.386429e+000
1.570644e+003,3.933769e+000
1.571608e+003,3.673126e+000
1.572572e+003,4.015709e+000
1.573536e+003,5.055092e+000
1.574500e+003,5.544235e+000
1.575465e+003,4.558769e+000
1.576429e+003,3.678909e+000
1.577393e+003,4.535477e+000
1.578357e+003,6.198654e+000
1.579322e+003,6.862564e+000
1.580286e+003,6.469070e+000
1.581250e+003,5.932236e+000
1.582214e+003,5.506325e+000
1.583179e+003,4.992668e+000
1.584143e+003,3.456947e+000
1.585107e+003,2.461586e+000
1.586071e+003,5.210167e+000
1.587036e+003,1.020571e+001
1.588000e+003,1.225441e+001
1.588964e+003,1.006796e+001
1.589928e+003,7.313766e+000
1.590893e+003,6.211182e+000
1.591857e+003,6.110374e+000
1.592821e+003,6.013786e+000
1.593785e+003,6.040802e+000
1.594750e+003,7.203598e+000
1.595714e+003,9.987953e+000
1.596678e+003,1.122522e+001
1.597642e+003,8.386703e+000
1.598606e+003,5.505829e+000
1.599571e+003,6.326927e+000
1.600535e+003,8.729317e+000
1.601499e+003,9.917099e+000
1.602463e+003,9.912766e+000
1.603427e+003,1.045605e+001
1.604392e+003,1.237860e+001
1.605356e+003,1.407495e+001
1.606320e+003,1.347513e+001
1.607284e+003,1.154519e+001
1.608249e+003,1.113582e+001
1.609213e+003,1.230114e+001
1.610177e+003,1.341364e+001
1.611141e+003,1.414381e+001
1.612106e+003,1.497504e+001
1.613070e+003,1.700571e+001
1.614034e+003,1.837501e+001
1.614998e+003,1.706634e+001
1.615963e+003,1.442194e+001
1.616927e+003,1.264909e+001
1.617891e+003,1.210432e+001
1.618855e+003,1.205495e+001
1.619820e+003,1.207267e+001
1.620784e+003,1.219907e+001
1.621748e+003,1.255968e+001
1.622712e+003,1.323281e+001
1.623677e+003,1.442294e+001
1.624641e+003,1.636423e+001
1.625605e+003,1.744498e+001
1.626569e+003,1.672578e+001
1.627533e+003,1.578905e+001
1.628498e+003,1.526421e+001
1.629462e+003,1.510758e+001
1.630426e+003,1.560385e+001
1.631390e+003,1.632690e+001
1.632354e+003,1.624516e+001
1.633319e+003,1.521448e+001
1.634283e+003,1.440514e+001
1.635247e+003,1.470054e+001
1.636211e+003,1.561531e+001
1.637176e+003,1.650945e+001
1.638140e+003,1.736418e+001
1.639104e+003,1.750074e+001
1.640068e+003,1.680102e+001
1.641033e+003,1.557014e+001
1.641997e+003,1.267532e+001
1.642961e+003,1.107307e+001
1.643925e+003,1.352842e+001
1.644890e+003,1.678172e+001
1.645854e+003,1.745712e+001
1.646818e+003,1.613726e+001
1.647782e+003,1.501555e+001
1.648747e+003,1.480643e+001
1.649711e+003,1.503447e+001
1.650675e+003,1.542105e+001
1.651639e+003,1.584010e+001
1.652604e+003,1.591103e+001
1.653568e+003,1.561979e+001
1.654532e+003,1.539233e+001
1.655496e+003,1.519949e+001
1.656460e+003,1.527461e+001
1.657425e+003,1.605852e+001
1.658389e+003,1.666184e+001
1.659353e+003,1.682738e+001
1.660317e+003,1.642478e+001
1.661281e+003,1.464376e+001
1.662246e+003,1.221396e+001
1.663210e+003,1.146738e+001
1.664174e+003,1.310489e+001
1.665138e+003,1.477144e+001
1.666103e+003,1.444623e+001
1.667067e+003,1.285190e+001
1.668031e+003,1.112632e+001
1.668995e+003,9.368713e+000
1.669960e+003,8.992714e+000
1.670924e+003,1.058411e+001
1.671888e+003,1.153984e+001
1.672852e+003,1.058028e+001
1.673817e+003,9.430862e+000
1.674781e+003,9.290382e+000
1.675745e+003,9.461197e+000
1.676709e+003,9.023170e+000
1.677674e+003,8.209435e+000
1.678638e+003,8.001915e+000
1.679602e+003,8.701294e+000
1.680566e+003,9.520172e+000
1.681531e+003,1.009377e+001
1.682495e+003,1.016991e+001
1.683459e+003,8.657021e+000
1.684423e+003,5.996086e+000
1.685387e+003,5.590469e+000
1.686352e+003,8.119713e+000
1.687316e+003,9.865158e+000
1.688280e+003,9.309082e+000
1.689244e+003,8.335632e+000
1.690208e+003,8.236794e+000
1.691173e+003,8.492096e+000
1.692137e+003,8.583611e+000
1.693101e+003,8.596924e+000
1.694065e+003,8.806953e+000
1.695030e+003,9.243134e+000
1.695994e+003,9.603844e+000
1.696958e+003,9.832642e+000
1.697922e+003,9.787285e+000
1.698887e+003,9.144920e+000
1.699851e+003,8.118752e+000
1.700815e+003,7.332405e+000
1.701779e+003,6.813652e+000
1.702744e+003,6.171333e+000
1.703708e+003,5.238022e+000
1.704672e+003,4.584038e+000
1.705636e+003,4.703987e+000
1.706601e+003,5.120667e+000
1.707565e+003,5.265594e+000
1.708529e+003,5.209229e+000
1.709493e+003,4.964516e+000
1.710458e+003,4.474159e+000
1.711422e+003,4.281769e+000
1.712386e+003,5.052216e+000
1.713350e+003,5.744781e+000
1.714314e+003,5.306023e+000
1.715279e+003,4.284508e+000
1.716243e+003,3.415527e+000
1.717207e+003,2.882172e+000
1.718171e+003,3.396118e+000
1.719135e+003,5.160767e+000
1.720100e+003,5.940857e+000
1.721064e+003,3.805962e+000
1.722028e+003,1.211281e+000
1.722992e+003,2.211029e+000
1.723957e+003,5.935387e+000
1.724921e+003,6.841698e+000
1.725885e+003,4.331703e+000
1.726849e+003,2.583397e+000
1.727814e+003,2.891464e+000
1.728778e+003,3.360786e+000
1.729742e+003,2.984482e+000
1.730706e+003,2.547661e+000
1.731671e+003,3.217461e+000
1.732635e+003,4.204185e+000
1.733599e+003,3.488060e+000
1.734563e+003,1.155365e+000
1.735528e+003,-2.885132e-001
1.736492e+003,4.491882e-001
1.737456e+003,1.929703e+000
1.738420e+003,2.478317e+000
1.739385e+003,2.326157e+000
1.740349e+003,2.487167e+000
1.741313e+003,3.165558e+000
1.742277e+003,3.287582e+000
1.743241e+003,2.274803e+000
1.744206e+003,1.724411e+000
1.745170e+003,2.247871e+000
1.746134e+003,2.752296e+000
1.747098e+003,2.355934e+000
1.748063e+003,1.813354e+000
1.749027e+003,2.356041e+000
1.749991e+003,3.540878e+000
1.750955e+003,3.739426e+000
1.751919e+003,2.550407e+000
1.752884e+003,1.451332e+000
1.753848e+003,1.682297e+000
1.754812e+003,2.354027e+000
1.755776e+003,1.576340e+000
1.756741e+003,-5.328979e-001
1.757705e+003,-1.279198e+000
1.758669e+003,-1.405945e-001
1.759633e+003,7.289810e-001
1.760598e+003,1.075577e+000
1.761562e+003,1.112320e+000
1.762526e+003,6.273041e-001
1.763490e+003,2.286606e-001
1.764455e+003,5.065765e-001
1.765419e+003,1.084442e+000
1.766383e+003,1.356705e+000
1.767347e+003,1.219048e+000
1.768312e+003,7.987213e-001
1.769276e+003,1.317368e-001
1.770240e+003,-3.693314e-001
1.771204e+003,-9.081268e-002
1.772168e+003,6.086655e-001
1.773133e+003,7.222748e-001
1.774097e+003,3.305664e-001
1.775061e+003,4.240189e-001
1.776025e+003,1.208015e+000
1.776990e+003,1.136368e+000
1.777954e+003,-8.900299e-001
1.778918e+003,-2.425209e+000
1.779882e+003,-1.434448e+000
1.780846e+003,7.594223e-001
1.781811e+003,2.818001e+000
1.782775e+003,4.555847e+000
1.783739e+003,5.322670e+000
1.784703e+003,5.022781e+000
1.785668e+003,3.989563e+000
1.786632e+003,1.405334e+000
1.787596e+003,-7.054443e-001
1.788560e+003,-3.428879e-001
1.789525e+003,1.133354e+000
1.790489e+003,1.864212e+000
1.791453e+003,1.905594e+000
1.792417e+003,2.062416e+000
1.793382e+003,2.460724e+000
1.794346e+003,2.381920e+000
1.795310e+003,1.399574e+000
1.796274e+003,2.242737e-001
1.797239e+003,-3.491516e-001
1.798203e+003,-3.441086e-001
1.799167e+003,2.973938e-002
1.800131e+003,7.358780e-001
1.801095e+003,1.445000e+000
1.802060e+003,2.745667e+000
1.803024e+003,3.284599e+000
1.803988e+003,1.772079e+000
1.804952e+003,8.378448e-001
1.805917e+003,2.715294e+000
1.806881e+003,4.925819e+000
1.807845e+003,4.662483e+000
1.808809e+003,2.815826e+000
1.809773e+003,1.714722e+000
1.810738e+003,1.846924e+000
1.811702e+003,2.059906e+000
1.812666e+003,1.626068e+000
1.813630e+003,9.394073e-001
1.814595e+003,5.002594e-001
1.815559e+003,2.793274e-001
1.816523e+003,2.617493e-001
1.817487e+003,4.865189e-001
1.818452e+003,5.805130e-001
1.819416e+003,4.874649e-001
1.820380e+003,4.998703e-001
1.821344e+003,6.825104e-001
1.822309e+003,9.214478e-001
1.823273e+003,1.151627e+000
1.824237e+003,1.464355e+000
1.825201e+003,2.265053e+000
1.826166e+003,3.128769e+000
1.827130e+003,2.669029e+000
1.828094e+003,6.995468e-001
1.829058e+003,-5.082474e-001
1.830022e+003,3.866119e-001
1.830987e+003,1.855301e+000
1.831951e+003,2.717888e+000
1.832915e+003,3.325081e+000
1.833879e+003,4.608749e+000
1.834844e+003,6.017769e+000
1.835808e+003,5.367599e+000
1.836772e+003,2.649460e+000
1.837736e+003,9.663239e-001
1.838700e+003,1.675667e+000
1.839665e+003,3.003021e+000
1.840629e+003,3.395439e+000
1.841593e+003,3.266876e+000
1.842557e+003,3.524857e+000
1.843522e+003,4.151718e+000
1.844486e+003,3.946114e+000
1.845450e+003,1.841537e+000
1.846414e+003,1.107628e+000
1.847379e+003,3.020943e+000
1.848343e+003,4.392204e+000
1.849307e+003,4.023460e+000
1.850271e+003,3.135750e+000
1.851236e+003,2.300339e+000
1.852200e+003,1.770508e+000
1.853164e+003,1.868835e+000
1.854128e+003,2.377411e+000
1.855093e+003,2.591850e+000
1.856057e+003,2.349266e+000
1.857021e+003,2.449875e+000
1.857985e+003,3.609299e+000
1.858949e+003,5.108955e+000
1.859914e+003,5.683517e+000
1.860878e+003,5.507912e+000
1.861842e+003,5.565125e+000
1.862806e+003,5.857735e+000
1.863771e+003,5.681541e+000
1.864735e+003,4.736519e+000
1.865699e+003,4.078613e+000
1.866663e+003,4.274803e+000
1.867627e+003,4.779198e+000
1.868592e+003,5.334305e+000
1.869556e+003,5.649086e+000
1.870520e+003,4.857567e+000
1.871484e+003,3.260277e+000
1.872449e+003,3.169052e+000
1.873413e+003,5.580078e+000
1.874377e+003,7.004845e+000
1.875341e+003,5.386589e+000
1.876306e+003,3.706451e+000
1.877270e+003,3.472168e+000
1.878234e+003,3.971436e+000
1.879198e+003,4.827362e+000
1.880163e+003,5.708656e+000
1.881127e+003,6.353683e+000
1.882091e+003,6.576248e+000
1.883055e+003,5.687965e+000
1.884020e+003,3.602257e+000
1.884984e+003,2.062294e+000
1.885948e+003,2.678253e+000
1.886912e+003,4.504509e+000
1.887876e+003,5.685333e+000
1.888841e+003,6.283630e+000
1.889805e+003,7.040154e+000
1.890769e+003,8.107201e+000
1.891733e+003,8.420280e+000
1.892698e+003,7.374535e+000
1.893662e+003,6.738075e+000
1.894626e+003,7.534714e+000
1.895590e+003,8.384338e+000
1.896554e+003,8.343018e+000
1.897519e+003,7.878662e+000
1.898483e+003,7.359062e+000
1.899447e+003,6.834755e+000
1.900411e+003,6.576500e+000
1.901376e+003,6.673180e+000
1.902340e+003,6.529648e+000
1.903304e+003,5.707901e+000
1.904268e+003,4.911552e+000
1.905233e+003,4.349625e+000
1.906197e+003,4.255714e+000
1.907161e+003,5.340591e+000
1.908125e+003,6.848755e+000
1.909090e+003,7.464417e+000
1.910054e+003,7.072037e+000
1.911018e+003,5.876648e+000
1.911982e+003,4.186798e+000
1.912947e+003,3.278496e+000
1.913911e+003,4.072830e+000
1.914875e+003,5.715622e+000
1.915839e+003,6.964096e+000
1.916803e+003,7.686852e+000
1.917768e+003,7.099121e+000
1.918732e+003,4.795036e+000
1.919696e+003,4.132881e+000
1.920660e+003,5.775429e+000
1.921625e+003,7.409836e+000
1.922589e+003,8.754120e+000
1.923553e+003,9.604347e+000
1.924517e+003,9.788589e+000
1.925481e+003,9.478889e+000
1.926446e+003,8.486885e+000
1.927410e+003,7.242104e+000
1.928374e+003,6.622314e+000
1.929338e+003,6.615616e+000
1.930303e+003,6.416603e+000
1.931267e+003,5.752975e+000
1.932231e+003,5.333763e+000
1.933195e+003,5.561646e+000
1.934160e+003,5.945938e+000
1.935124e+003,6.016914e+000
1.936088e+003,6.107437e+000
1.937052e+003,6.915695e+000
1.938017e+003,8.053749e+000
1.938981e+003,8.493233e+000
1.939945e+003,8.182602e+000
1.940909e+003,7.951942e+000
1.941874e+003,8.140694e+000
1.942838e+003,8.063324e+000
1.943802e+003,7.054901e+000
1.944766e+003,5.997276e+000
1.945730e+003,6.771904e+000
1.946695e+003,9.041130e+000
1.947659e+003,1.020272e+001
1.948623e+003,1.015793e+001
1.949587e+003,1.000658e+001
1.950552e+003,9.853195e+000
1.951516e+003,9.744507e+000
1.952480e+003,9.768440e+000
1.953444e+003,9.669258e+000
1.954408e+003,9.120712e+000
1.955373e+003,8.442566e+000
1.956337e+003,8.055084e+000
1.957301e+003,8.003853e+000
1.958265e+003,8.408813e+000
1.959230e+003,9.375214e+000
1.960194e+003,9.954330e+000
1.961158e+003,9.675903e+000
1.962122e+003,9.375443e+000
1.963087e+003,9.183731e+000
1.964051e+003,9.146164e+000
1.965015e+003,9.300728e+000
1.965979e+003,9.690735e+000
1.966944e+003,1.064857e+001
1.967908e+003,1.165372e+001
1.968872e+003,1.173742e+001
1.969836e+003,1.095331e+001
1.970801e+003,1.016918e+001
1.971765e+003,9.774040e+000
1.972729e+003,9.598213e+000
1.973693e+003,9.493050e+000
1.974657e+003,9.519836e+000
1.975622e+003,9.669868e+000
1.976586e+003,1.002996e+001
1.977550e+003,1.128532e+001
1.978514e+003,1.311364e+001
1.979479e+003,1.340777e+001
1.980443e+003,1.194647e+001
1.981407e+003,1.057315e+001
1.982371e+003,9.951912e+000
1.983335e+003,1.031450e+001
1.984300e+003,1.198475e+001
1.985264e+003,1.387819e+001
1.986228e+003,1.436817e+001
1.987192e+003,1.360478e+001
1.988157e+003,1.224406e+001
1.989121e+003,9.868340e+000
1.990085e+003,9.291916e+000
1.991049e+003,1.229156e+001
1.992014e+003,1.353686e+001
1.992978e+003,1.080798e+001
1.993942e+003,8.364540e+000
1.994906e+003,7.655624e+000
1.995871e+003,7.738220e+000
1.996835e+003,8.026566e+000
1.997799e+003,8.636993e+000
1.998763e+003,1.012173e+001
1.999728e+003,1.211819e+001
