5.003444e+002,3.830331e+001
5.013087e+002,3.875964e+001
5.022729e+002,3.759888e+001
5.032371e+002,3.537021e+001
5.042014e+002,3.320871e+001
5.051656e+002,3.121487e+001
5.061298e+002,2.998990e+001
5.070941e+002,3.019238e+001
5.080583e+002,3.225674e+001
5.090225e+002,3.254428e+001
5.099868e+002,3.014670e+001
5.109510e+002,2.753610e+001
5.119152e+002,2.585358e+001
5.128795e+002,2.519290e+001
5.138437e+002,2.510376e+001
5.148079e+002,2.652344e+001
5.157722e+002,2.757700e+001
5.167364e+002,2.668350e+001
5.177006e+002,2.410281e+001
5.186649e+002,2.204208e+001
5.196291e+002,2.450836e+001
5.205933e+002,2.852734e+001
5.215576e+002,3.020825e+001
5.225218e+002,2.916895e+001
5.234860e+002,2.700888e+001
5.244503e+002,2.686908e+001
5.254145e+002,2.995279e+001
5.263787e+002,3.061771e+001
5.273430e+002,2.674268e+001
5.283072e+002,2.187769e+001
5.292714e+002,2.135349e+001
5.302357e+002,2.831537e+001
5.311999e+002,3.220676e+001
5.321641e+002,3.051779e+001
5.331284e+002,2.727954e+001
5.340926e+002,2.562021e+001
5.350568e+002,2.668610e+001
5.360211e+002,2.764163e+001
5.369853e+002,2.554330e+001
5.379495e+002,2.266470e+001
5.389138e+002,2.082397e+001
5.398780e+002,2.065857e+001
5.408422e+002,2.141629e+001
5.418065e+002,2.120746e+001
5.427707e+002,2.013074e+001
5.437349e+002,1.839127e+001
5.446992e+002,1.548380e+001
5.456634e+002,1.223251e+001
5.466276e+002,1.165689e+001
5.475919e+002,1.756808e+001
5.485561e+002,2.176022e+001
5.495203e+002,2.356247e+001
5.504846e+002,2.346570e+001
5.514488e+002,2.203650e+001
5.524130e+002,1.883813e+001
5.533773e+002,1.592706e+001
5.543415e+002,1.437106e+001
5.553057e+002,1.356168e+001
5.562700e+002,1.271774e+001
5.572342e+002,1.134778e+001
5.581984e+002,1.010489e+001
5.591627e+002,1.139865e+001
5.601269e+002,1.422565e+001
5.610911e+002,1.625815e+001
5.620554e+002,1.623117e+001
5.630196e+002,1.426895e+001
5.639838e+002,1.203793e+001
5.649481e+002,8.298553e+000
5.659123e+002,6.075134e+000
5.668765e+002,7.100677e+000
5.678408e+002,1.030624e+001
5.688050e+002,1.231522e+001
5.697692e+002,1.106390e+001
5.707335e+002,9.649078e+000
5.716977e+002,9.063049e+000
5.726619e+002,9.019928e+000
5.736262e+002,9.098297e+000
5.745904e+002,9.078857e+000
5.755546e+002,8.970093e+000
5.765189e+002,8.540985e+000
5.774831e+002,7.833252e+000
5.784473e+002,7.088684e+000
5.794116e+002,6.549469e+000
5.803758e+002,6.344421e+000
5.813400e+002,6.778564e+000
5.823043e+002,8.119965e+000
5.832685e+002,8.600922e+000
5.842327e+002,7.280640e+000
5.851970e+002,4.607971e+000
5.861612e+002,2.786621e+000
5.871254e+002,2.364380e+000
5.880897e+002,2.379486e+000
5.890539e+002,3.027130e+000
5.900181e+002,3.827026e+000
5.909824e+002,3.947845e+000
5.919466e+002,2.490021e+000
5.929108e+002,1.312256e+000
5.938751e+002,2.857086e+000
5.948393e+002,5.746155e+000
5.958035e+002,7.756226e+000
5.967678e+002,7.315125e+000
5.977320e+002,4.980438e+000
5.986962e+002,4.629028e+000
5.996605e+002,5.917786e+000
6.006247e+002,7.664032e+000
6.015889e+002,1.022421e+001
6.025532e+002,1.338998e+001
6.035174e+002,1.393256e+001
6.044816e+002,8.009338e+000
6.054459e+002,3.524811e+000
6.064101e+002,2.355408e+000
6.073743e+002,3.251129e+000
6.083386e+002,3.777100e+000
6.093028e+002,2.542297e+000
6.102670e+002,1.115082e+000
6.112313e+002,3.959351e-001
6.121955e+002,3.240662e-001
6.131597e+002,1.002686e+000
6.141240e+002,2.465973e+000
6.150882e+002,4.320251e+000
6.160524e+002,4.800812e+000
6.170167e+002,4.239380e+000
6.179809e+002,3.791260e+000
6.189451e+002,3.902130e+000
6.199094e+002,4.416229e+000
6.208736e+002,4.759613e+000
6.218378e+002,5.043427e+000
6.228021e+002,5.373016e+000
6.237663e+002,5.878479e+000
6.247305e+002,6.461945e+000
6.256948e+002,7.001221e+000
6.266590e+002,7.576904e+000
6.276232e+002,7.265625e+000
6.285875e+002,5.254486e+000
6.295517e+002,2.733398e+000
6.305159e+002,6.810608e-001
6.314802e+002,-3.616943e-001
6.324444e+002,-4.834290e-001
6.334086e+002,9.951782e-001
6.343729e+002,3.638885e+000
6.353371e+002,6.179565e+000
6.363013e+002,8.327362e+000
6.372656e+002,9.699402e+000
6.382298e+002,9.003296e+000
6.391940e+002,3.273560e+000
6.401583e+002,-8.229980e-001
6.411225e+002,-2.601990e+000
6.420867e+002,-2.713531e+000
6.430510e+002,-1.595856e+000
6.440152e+002,1.216888e+000
6.449794e+002,2.690125e+000
6.459437e+002,-5.313110e-002
6.469079e+002,-3.559082e+000
6.478721e+002,-4.916016e+000
6.488364e+002,-3.200714e+000
6.498006e+002,-1.656494e-001
6.507648e+002,1.224060e+000
6.517291e+002,1.333679e+000
6.526933e+002,1.061066e+000
6.536575e+002,5.479126e-001
6.546218e+002,-2.561340e-001
6.555860e+002,-1.521545e+000
6.565502e+002,-4.044800e+000
6.575145e+002,-5.164429e+000
6.584787e+002,-3.977783e+000
6.594429e+002,-2.287628e+000
6.604072e+002,-1.593597e+000
6.613714e+002,-2.202850e+000
6.623356e+002,-2.568390e+000
6.632999e+002,-1.647736e+000
6.642641e+002,-7.748108e-001
6.652283e+002,-6.827087e-001
6.661926e+002,-1.230621e+000
6.671568e+002,-1.627289e+000
6.681210e+002,-8.819885e-001
6.690853e+002,4.302979e-001
6.700495e+002,1.023590e+000
6.710137e+002,8.892517e-001
6.719780e+002,2.705383e-001
6.729422e+002,-6.997070e-001
6.739064e+002,-2.313080e+000
6.748707e+002,-2.728027e+000
6.758349e+002,-1.197784e+000
6.767991e+002,2.228088e-001
6.777634e+002,7.405701e-001
6.787276e+002,5.545959e-001
6.796918e+002,5.915527e-001
6.806561e+002,1.677826e+000
6.816203e+002,2.096863e+000
6.825845e+002,5.051880e-001
6.835488e+002,-2.052368e+000
6.845130e+002,-3.724030e+000
6.854772e+002,-3.003540e+000
6.864415e+002,-1.082642e+000
6.874057e+002,-1.483368e+000
6.883699e+002,-3.432617e+000
6.893342e+002,-4.207336e+000
6.902984e+002,-2.092957e+000
6.912626e+002,2.302521e+000
6.922269e+002,4.417603e+000
6.931911e+002,2.425079e+000
6.941553e+002,1.070496e+000
6.951196e+002,8.705750e-001
6.960838e+002,1.146881e+000
6.970480e+002,9.632874e-001
6.980123e+002,1.096191e-001
6.989765e+002,-9.588928e-001
6.999407e+002,-2.568939e+000
7.009050e+002,-3.975281e+000
7.018692e+002,-4.371521e+000
7.028334e+002,-3.623077e+000
7.037977e+002,-2.609833e+000
7.047619e+002,-2.818542e+000
7.057261e+002,-3.539276e+000
7.066904e+002,-3.398651e+000
7.076546e+002,-2.193878e+000
7.086188e+002,-7.846375e-001
7.095831e+002,-6.436157e-001
7.105473e+002,-2.740570e+000
7.115115e+002,-3.184662e+000
7.124758e+002,-5.250244e-001
7.134400e+002,1.903137e+000
7.144042e+002,1.850098e+000
7.153685e+002,-6.408386e-001
7.163327e+002,-2.760071e+000
7.172969e+002,-3.212067e+000
7.182612e+002,-2.940216e+000
7.192254e+002,-1.940033e+000
7.201896e+002,-6.023560e-001
7.211539e+002,5.953674e-001
7.221181e+002,1.314819e+000
7.230823e+002,1.485199e+000
7.240466e+002,7.950439e-001
7.250108e+002,-3.968201e-001
7.259750e+002,-1.117798e+000
7.269393e+002,-8.650208e-001
7.279035e+002,2.389526e-002
7.288677e+002,1.319885e-001
7.298320e+002,-9.046631e-001
7.307962e+002,-1.638672e+000
7.317604e+002,-2.119080e+000
7.327247e+002,-2.151367e+000
7.336889e+002,-1.436951e+000
7.346531e+002,1.420593e-001
7.356174e+002,1.275421e+000
7.365816e+002,1.379089e+000
7.375458e+002,1.298553e+000
7.385101e+002,1.877075e+000
7.394743e+002,3.161682e+000
7.404385e+002,4.226227e+000
7.414028e+002,3.324799e+000
7.423670e+002,6.455383e-001
7.433312e+002,-1.174774e+000
7.442955e+002,-1.716064e+000
7.452597e+002,-1.247192e+000
7.462239e+002,1.414795e-001
7.471882e+002,3.033722e+000
7.481524e+002,3.758514e+000
7.491166e+002,-4.690857e-001
7.500809e+002,-3.784302e+000
7.510451e+002,-3.145630e+000
7.520093e+002,4.349976e-001
7.529736e+002,2.930847e+000
7.539378e+002,2.101471e+000
7.549020e+002,6.882629e-001
7.558663e+002,-4.895020e-002
7.568306e+002,-4.513550e-002
7.577948e+002,1.000793e+000
7.587590e+002,3.107208e+000
7.597233e+002,5.407379e+000
7.606875e+002,5.091003e+000
7.616517e+002,2.659210e+000
7.626160e+002,1.490997e+000
7.635802e+002,2.936157e+000
7.645444e+002,5.659088e+000
7.655087e+002,6.739990e+000
7.664729e+002,5.103821e+000
7.674371e+002,3.974762e+000
7.684014e+002,4.147614e+000
7.693656e+002,4.250641e+000
7.703298e+002,2.970093e+000
7.712941e+002,4.060059e-001
7.722583e+002,-1.323547e+000
7.732225e+002,-1.861572e-002
7.741868e+002,2.195099e+000
7.751510e+002,4.136749e+000
7.761152e+002,5.529388e+000
7.770795e+002,6.035400e+000
7.780437e+002,5.315643e+000
7.790079e+002,3.542542e+000
7.799722e+002,2.510529e+000
7.809364e+002,2.069519e+000
7.819006e+002,2.314606e+000
7.828649e+002,3.947510e+000
7.838291e+002,6.494965e+000
7.847933e+002,8.126617e+000
7.857576e+002,8.507202e+000
7.867218e+002,7.690491e+000
7.876860e+002,4.884521e+000
7.886503e+002,1.978271e+000
7.896145e+002,6.962891e-001
7.905787e+002,1.406158e+000
7.915430e+002,2.533600e+000
7.925072e+002,2.151825e+000
7.934714e+002,1.130341e+000
7.944357e+002,3.618774e-001
7.953999e+002,1.567993e-001
7.963641e+002,9.019165e-001
7.973284e+002,3.075989e+000
7.982926e+002,6.861633e+000
7.992568e+002,8.167786e+000
8.002211e+002,5.589447e+000
8.011853e+002,2.943909e+000
8.021495e+002,2.186981e+000
8.031138e+002,2.968506e+000
8.040780e+002,3.174805e+000
8.050422e+002,1.569305e+000
8.060065e+002,2.908630e-001
8.069707e+002,-2.811584e-001
8.079349e+002,-2.713318e-001
8.088992e+002,6.329346e-001
8.098634e+002,2.433899e+000
8.108276e+002,4.128967e+000
8.117919e+002,3.605530e+000
8.127561e+002,1.755981e+000
8.137203e+002,1.143066e+000
8.146846e+002,2.206543e+000
8.156488e+002,3.692902e+000
8.166130e+002,3.833313e+000
8.175773e+002,2.107361e+000
8.185415e+002,1.957916e+000
8.195057e+002,4.927307e+000
8.204700e+002,6.979980e+000
8.214342e+002,5.930786e+000
8.223984e+002,2.948029e+000
8.233627e+002,1.339813e+000
8.243269e+002,2.949463e+000
8.252911e+002,4.783295e+000
8.262554e+002,4.803864e+000
8.272196e+002,4.202179e+000
8.281838e+002,4.293213e+000
8.291481e+002,5.474182e+000
8.301123e+002,6.939209e+000
8.310765e+002,7.173981e+000
8.320408e+002,6.263397e+000
8.330050e+002,6.217804e+000
8.339692e+002,7.519531e+000
8.349335e+002,8.650604e+000
8.358977e+002,7.656403e+000
8.368619e+002,4.095520e+000
8.378262e+002,2.423615e+000
8.387904e+002,4.300568e+000
8.397546e+002,6.038177e+000
8.407189e+002,6.940979e+000
8.416831e+002,7.078583e+000
8.426473e+002,6.561310e+000
8.436116e+002,5.248535e+000
8.445758e+002,4.226349e+000
8.455400e+002,4.498993e+000
8.465043e+002,5.385162e+000
8.474685e+002,6.603241e+000
8.484327e+002,8.084076e+000
8.493970e+002,9.604370e+000
8.503612e+002,1.055176e+001
8.513254e+002,1.070081e+001
8.522897e+002,1.141370e+001
8.532539e+002,1.330823e+001
8.542181e+002,1.469870e+001
8.551824e+002,1.418515e+001
8.561466e+002,1.227869e+001
8.571108e+002,1.204169e+001
8.580751e+002,1.584235e+001
8.590393e+002,1.814981e+001
8.600035e+002,1.617322e+001
8.609678e+002,1.268481e+001
8.619320e+002,1.085477e+001
8.628962e+002,1.190524e+001
8.638605e+002,1.411926e+001
8.648247e+002,1.513617e+001
8.657889e+002,1.530902e+001
8.667532e+002,1.543506e+001
8.677174e+002,1.561386e+001
8.686816e+002,1.567004e+001
8.696459e+002,1.531143e+001
8.706101e+002,1.441986e+001
8.715743e+002,1.476834e+001
8.725386e+002,1.801047e+001
8.735028e+002,2.032581e+001
8.744670e+002,1.967899e+001
8.754313e+002,1.746997e+001
8.763955e+002,1.678641e+001
8.773597e+002,1.924408e+001
8.783240e+002,2.145670e+001
8.792882e+002,2.002725e+001
8.802524e+002,1.772836e+001
8.812167e+002,1.732492e+001
8.821809e+002,1.909332e+001
8.831451e+002,2.103192e+001
8.841094e+002,2.044977e+001
8.850736e+002,1.768231e+001
8.860378e+002,1.786218e+001
8.870021e+002,2.177420e+001
8.879663e+002,2.512131e+001
8.889305e+002,2.468436e+001
8.898948e+002,2.136368e+001
8.908590e+002,2.024646e+001
8.918232e+002,2.380814e+001
8.927875e+002,2.631781e+001
8.937517e+002,2.550131e+001
8.947159e+002,2.405212e+001
8.956802e+002,2.431491e+001
8.966444e+002,2.657602e+001
8.976086e+002,2.906277e+001
8.985729e+002,3.040616e+001
8.995371e+002,3.075458e+001
9.005013e+002,2.978763e+001
9.014656e+002,2.796985e+001
9.024298e+002,2.713397e+001
9.033940e+002,2.871307e+001
9.043583e+002,3.213824e+001
9.053225e+002,3.388303e+001
9.062867e+002,3.099423e+001
9.072510e+002,3.005441e+001
9.082152e+002,3.377713e+001
9.091794e+002,3.817349e+001
9.101437e+002,3.858115e+001
9.111079e+002,3.419855e+001
9.120721e+002,3.052979e+001
9.130364e+002,3.173044e+001
9.140006e+002,3.354883e+001
9.149648e+002,3.368002e+001
9.159291e+002,3.265945e+001
9.168933e+002,3.189105e+001
9.178575e+002,3.228256e+001
9.188218e+002,3.342252e+001
9.197860e+002,3.436600e+001
9.207502e+002,3.509470e+001
9.217145e+002,3.468042e+001
9.226787e+002,3.241080e+001
9.236429e+002,2.981219e+001
9.246072e+002,2.900598e+001
9.255714e+002,3.031573e+001
9.265356e+002,3.100818e+001
9.274999e+002,3.025708e+001
9.284641e+002,2.909595e+001
9.294283e+002,2.731210e+001
9.303926e+002,2.562418e+001
9.313568e+002,2.538687e+001
9.323210e+002,2.739587e+001
9.332853e+002,2.977292e+001
9.342495e+002,2.938580e+001
9.352137e+002,2.728088e+001
9.361780e+002,2.441220e+001
9.371422e+002,2.117889e+001
9.381064e+002,1.884586e+001
9.390707e+002,1.910583e+001
9.400349e+002,2.224774e+001
9.409991e+002,2.488071e+001
9.419634e+002,2.751608e+001
9.429276e+002,2.901529e+001
9.438918e+002,2.845575e+001
9.448561e+002,2.683734e+001
9.458203e+002,2.597061e+001
9.467845e+002,2.660345e+001
9.477488e+002,2.698175e+001
9.487130e+002,2.532510e+001
9.496772e+002,2.312463e+001
9.506415e+002,2.118738e+001
9.516057e+002,1.981186e+001
9.525699e+002,1.924817e+001
9.535342e+002,1.972696e+001
9.544984e+002,2.106024e+001
9.554626e+002,2.232053e+001
9.564269e+002,2.396768e+001
9.573911e+002,2.484366e+001
9.583553e+002,2.370657e+001
9.593196e+002,2.191183e+001
9.602838e+002,2.212195e+001
9.612480e+002,2.520755e+001
9.622123e+002,2.672800e+001
9.631765e+002,2.426321e+001
9.641407e+002,2.125949e+001
9.651050e+002,1.842661e+001
9.660692e+002,1.633859e+001
9.670334e+002,1.601047e+001
9.679977e+002,1.821866e+001
9.689619e+002,2.152527e+001
9.699261e+002,2.209564e+001
9.708904e+002,2.078162e+001
9.718546e+002,2.031915e+001
9.728188e+002,2.128091e+001
9.737831e+002,2.304001e+001
9.747473e+002,2.516211e+001
9.757115e+002,2.803442e+001
9.766758e+002,2.939786e+001
9.776400e+002,2.776077e+001
9.786042e+002,2.670407e+001
9.795685e+002,2.756461e+001
9.805327e+002,2.904553e+001
9.814969e+002,2.937912e+001
9.824612e+002,2.807742e+001
9.834254e+002,2.651144e+001
9.843896e+002,2.548227e+001
9.853539e+002,2.498859e+001
9.863181e+002,2.585812e+001
9.872823e+002,2.748965e+001
9.882466e+002,2.754300e+001
9.892108e+002,2.407773e+001
9.901750e+002,1.814011e+001
9.911393e+002,1.592529e+001
9.921035e+002,2.051553e+001
9.930677e+002,2.303864e+001
9.940320e+002,2.162177e+001
9.949962e+002,1.953986e+001
9.959604e+002,1.982553e+001
9.969247e+002,2.267932e+001
9.978889e+002,2.603296e+001
9.988531e+002,2.955869e+001
9.998174e+002,3.200070e+001
1.000782e+003,3.178464e+001
1.001746e+003,3.066455e+001
1.002710e+003,3.153568e+001
1.003674e+003,3.537204e+001
1.004639e+003,3.992514e+001
1.005603e+003,4.115677e+001
1.006567e+003,3.860876e+001
1.007531e+003,3.673840e+001
1.008495e+003,3.573090e+001
1.009460e+003,3.501965e+001
1.010424e+003,3.456750e+001
1.011388e+003,3.425174e+001
1.012352e+003,3.342145e+001
1.013317e+003,3.188431e+001
1.014281e+003,2.976819e+001
1.015245e+003,2.606375e+001
1.016209e+003,2.266132e+001
1.017174e+003,2.157172e+001
1.018138e+003,2.238120e+001
1.019102e+003,2.265689e+001
1.020066e+003,2.032922e+001
1.021031e+003,1.664398e+001
1.021995e+003,1.474817e+001
1.022959e+003,1.419421e+001
1.023923e+003,1.453247e+001
1.024887e+003,1.610532e+001
1.025852e+003,1.758704e+001
1.026816e+003,1.655231e+001
1.027780e+003,1.229163e+001
1.028744e+003,9.503662e+000
1.029709e+003,9.624725e+000
1.030673e+003,9.886444e+000
1.031637e+003,9.390961e+000
1.032601e+003,8.489929e+000
1.033566e+003,7.811554e+000
1.034530e+003,7.625610e+000
1.035494e+003,7.787384e+000
1.036458e+003,8.312469e+000
1.037422e+003,8.833130e+000
1.038387e+003,8.919769e+000
1.039351e+003,8.477631e+000
1.040315e+003,7.133667e+000
1.041279e+003,4.341248e+000
1.042244e+003,9.334412e-001
1.043208e+003,9.975586e-001
1.044172e+003,8.184570e+000
1.045136e+003,1.222675e+001
1.046101e+003,1.138535e+001
1.047065e+003,9.263947e+000
1.048029e+003,7.625275e+000
1.048993e+003,6.649963e+000
1.049958e+003,6.146637e+000
1.050922e+003,6.163330e+000
1.051886e+003,6.570313e+000
1.052850e+003,7.409973e+000
1.053814e+003,8.367950e+000
1.054779e+003,9.123108e+000
1.055743e+003,9.532837e+000
1.056707e+003,9.437866e+000
1.057671e+003,8.614777e+000
1.058636e+003,7.024689e+000
1.059600e+003,5.893433e+000
1.060564e+003,5.236603e+000
1.061528e+003,5.365326e+000
1.062493e+003,6.682281e+000
1.063457e+003,8.284882e+000
1.064421e+003,9.529358e+000
1.065385e+003,1.037137e+001
1.066349e+003,1.025592e+001
1.067314e+003,8.124390e+000
1.068278e+003,5.849457e+000
1.069242e+003,4.340424e+000
1.070206e+003,3.795410e+000
1.071171e+003,4.653107e+000
1.072135e+003,6.876678e+000
1.073099e+003,9.571930e+000
1.074063e+003,1.139462e+001
1.075028e+003,1.237692e+001
1.075992e+003,1.226324e+001
1.076956e+003,1.040933e+001
1.077920e+003,8.501740e+000
1.078885e+003,7.215393e+000
1.079849e+003,6.464172e+000
1.080813e+003,6.054871e+000
1.081777e+003,6.056854e+000
1.082741e+003,6.034149e+000
1.083706e+003,5.322510e+000
1.084670e+003,4.599792e+000
1.085634e+003,4.255493e+000
1.086598e+003,4.205566e+000
1.087563e+003,4.416443e+000
1.088527e+003,4.877075e+000
1.089491e+003,5.202362e+000
1.090455e+003,4.173828e+000
1.091420e+003,1.468689e+000
1.092384e+003,1.362183e+000
1.093348e+003,5.513306e+000
1.094312e+003,8.972473e+000
1.095276e+003,8.029999e+000
1.096241e+003,4.403381e+000
1.097205e+003,3.395538e+000
1.098169e+003,6.682922e+000
1.099133e+003,9.094635e+000
1.100098e+003,8.207245e+000
1.101062e+003,6.514221e+000
1.102026e+003,5.068420e+000
1.102990e+003,4.201233e+000
1.103955e+003,4.035706e+000
1.104919e+003,4.606140e+000
1.105883e+003,5.696259e+000
1.106847e+003,7.042908e+000
1.107812e+003,8.608643e+000
1.108776e+003,9.818787e+000
1.109740e+003,1.085452e+001
1.110704e+003,1.112195e+001
1.111668e+003,9.959900e+000
1.112633e+003,7.807281e+000
1.113597e+003,6.050079e+000
1.114561e+003,4.413696e+000
1.115525e+003,3.886322e+000
1.116490e+003,5.010498e+000
1.117454e+003,6.853912e+000
1.118418e+003,9.813538e+000
1.119382e+003,1.307471e+001
1.120347e+003,1.469974e+001
1.121311e+003,1.339206e+001
1.122275e+003,1.051938e+001
1.123239e+003,9.128143e+000
1.124203e+003,9.387970e+000
1.125168e+003,1.030362e+001
1.126132e+003,1.209601e+001
1.127096e+003,1.393735e+001
1.128060e+003,1.496048e+001
1.129025e+003,1.534427e+001
1.129989e+003,1.630237e+001
1.130953e+003,1.837320e+001
1.131917e+003,1.976907e+001
1.132882e+003,1.933813e+001
1.133846e+003,1.897311e+001
1.134810e+003,2.016568e+001
1.135774e+003,2.239139e+001
1.136739e+003,2.412631e+001
1.137703e+003,2.450424e+001
1.138667e+003,2.419415e+001
1.139631e+003,2.418411e+001
1.140595e+003,2.457291e+001
1.141560e+003,2.588000e+001
1.142524e+003,2.818607e+001
1.143488e+003,3.168027e+001
1.144452e+003,3.695316e+001
1.145417e+003,4.348102e+001
1.146381e+003,4.904419e+001
1.147345e+003,5.246063e+001
1.148309e+003,5.791788e+001
1.149274e+003,6.823715e+001
1.150238e+003,7.899506e+001
1.151202e+003,8.814084e+001
1.152166e+003,9.613675e+001
1.153130e+003,1.045581e+002
1.154095e+003,1.138634e+002
1.155059e+003,1.220979e+002
1.156023e+003,1.268103e+002
1.156987e+003,1.279496e+002
1.157952e+003,1.267733e+002
1.158916e+003,1.234161e+002
1.159880e+003,1.189484e+002
1.160844e+003,1.134384e+002
1.161809e+003,1.067749e+002
1.162773e+003,9.912567e+001
1.163737e+003,9.035764e+001
1.164701e+003,8.127823e+001
1.165666e+003,7.019522e+001
1.166630e+003,6.112527e+001
1.167594e+003,5.720688e+001
1.168558e+003,5.546057e+001
1.169522e+003,5.113092e+001
1.170487e+003,4.328992e+001
1.171451e+003,3.648163e+001
1.172415e+003,3.613040e+001
1.173379e+003,4.064978e+001
1.174344e+003,4.141394e+001
1.175308e+003,3.833670e+001
1.176272e+003,3.580402e+001
1.177236e+003,3.575092e+001
1.178201e+003,3.662247e+001
1.179165e+003,3.625534e+001
1.180129e+003,3.452307e+001
1.181093e+003,3.297772e+001
1.182057e+003,3.224631e+001
1.183022e+003,3.142996e+001
1.183986e+003,3.021231e+001
1.184950e+003,2.877472e+001
1.185914e+003,2.682053e+001
1.186879e+003,2.479736e+001
1.187843e+003,2.418033e+001
1.188807e+003,2.617569e+001
1.189771e+003,2.958432e+001
1.190736e+003,3.088651e+001
1.191700e+003,2.981430e+001
1.192664e+003,2.910757e+001
1.193628e+003,2.963516e+001
1.194593e+003,2.992792e+001
1.195557e+003,2.811755e+001
1.196521e+003,2.512286e+001
1.197485e+003,2.486032e+001
1.198449e+003,2.932492e+001
1.199414e+003,3.209335e+001
1.200378e+003,2.849158e+001
1.201342e+003,2.389072e+001
1.202306e+003,2.109250e+001
1.203271e+003,2.000085e+001
1.204235e+003,1.981122e+001
1.205199e+003,2.004346e+001
1.206163e+003,2.044061e+001
1.207128e+003,2.058679e+001
1.208092e+003,2.050858e+001
1.209056e+003,1.923114e+001
1.210020e+003,1.581601e+001
1.210984e+003,1.328098e+001
1.211949e+003,1.356497e+001
1.212913e+003,1.444739e+001
1.213877e+003,1.277975e+001
1.214841e+003,8.480591e+000
1.215806e+003,4.744507e+000
1.216770e+003,2.975281e+000
1.217734e+003,1.731262e+000
1.218698e+003,3.955078e-002
1.219663e+003,-1.946991e+000
1.220627e+003,-4.378296e+000
1.221591e+003,-6.981720e+000
1.222555e+003,-8.672455e+000
1.223520e+003,-8.370239e+000
1.224484e+003,-6.556946e+000
1.225448e+003,-5.826447e+000
1.226412e+003,-6.840698e+000
1.227376e+003,-7.624390e+000
1.228341e+003,-8.251862e+000
1.229305e+003,-8.675781e+000
1.230269e+003,-8.925995e+000
1.231233e+003,-8.954620e+000
1.232198e+003,-8.437653e+000
1.233162e+003,-7.181152e+000
1.234126e+003,-6.155701e+000
1.235090e+003,-6.285187e+000
1.236055e+003,-7.000061e+000
1.237019e+003,-7.687042e+000
1.237983e+003,-8.416931e+000
1.238947e+003,-9.395294e+000
1.239911e+003,-1.063470e+001
1.240876e+003,-1.178973e+001
1.241840e+003,-1.248392e+001
1.242804e+003,-1.273450e+001
1.243768e+003,-1.212100e+001
1.244733e+003,-9.539734e+000
1.245697e+003,-7.525818e+000
1.246661e+003,-6.701050e+000
1.247625e+003,-6.363373e+000
1.248590e+003,-6.028809e+000
1.249554e+003,-5.525635e+000
1.250518e+003,-4.869659e+000
1.251482e+003,-4.149689e+000
1.252447e+003,-3.218811e+000
1.253411e+003,-1.080811e+000
1.254375e+003,1.169586e+000
1.255339e+003,6.288147e-001
1.256303e+003,-2.613892e+000
1.257268e+003,-5.426758e+000
1.258232e+003,-6.260254e+000
1.259196e+003,-5.646057e+000
1.260160e+003,-4.023224e+000
1.261125e+003,-8.919983e-001
1.262089e+003,8.366699e-001
1.263053e+003,-6.503601e-001
1.264017e+003,-2.006134e+000
1.264982e+003,-2.754272e+000
1.265946e+003,-2.702545e+000
1.266910e+003,-1.333466e+000
1.267874e+003,9.881897e-001
1.268839e+003,3.362915e+000
1.269803e+003,5.220551e+000
1.270767e+003,6.094849e+000
1.271731e+003,4.665833e+000
1.272695e+003,1.104034e+000
1.273660e+003,-9.578552e-001
1.274624e+003,-1.197815e+000
1.275588e+003,-1.151123e+000
1.276552e+003,-1.446747e+000
1.277517e+003,-1.832489e+000
1.278481e+003,-1.870178e+000
1.279445e+003,-1.522949e+000
1.280409e+003,-1.694885e+000
1.281374e+003,-3.158295e+000
1.282338e+003,-4.510406e+000
1.283302e+003,-5.054718e+000
1.284266e+003,-5.122833e+000
1.285230e+003,-4.984985e+000
1.286195e+003,-4.798248e+000
1.287159e+003,-4.658936e+000
1.288123e+003,-4.590393e+000
1.289087e+003,-4.583771e+000
1.290052e+003,-4.885803e+000
1.291016e+003,-5.743835e+000
1.291980e+003,-6.415100e+000
1.292944e+003,-6.548859e+000
1.293909e+003,-7.190918e+000
1.294873e+003,-9.389771e+000
1.295837e+003,-1.175877e+001
1.296801e+003,-1.230235e+001
1.297766e+003,-1.083556e+001
1.298730e+003,-8.793732e+000
1.299694e+003,-6.565765e+000
1.300658e+003,-4.922668e+000
1.301622e+003,-5.248993e+000
1.302587e+003,-6.338837e+000
1.303551e+003,-5.796692e+000
1.304515e+003,-3.415070e+000
1.305479e+003,-2.225281e+000
1.306444e+003,-5.235077e+000
1.307408e+003,-1.063689e+001
1.308372e+003,-1.157710e+001
1.309336e+003,-5.717804e+000
1.310301e+003,-2.672546e+000
1.311265e+003,-4.763123e+000
1.312229e+003,-7.215576e+000
1.313193e+003,-9.404083e+000
1.314157e+003,-1.085229e+001
1.315122e+003,-1.109354e+001
1.316086e+003,-1.021732e+001
1.317050e+003,-8.512665e+000
1.318014e+003,-6.008453e+000
1.318979e+003,-3.597595e+000
1.319943e+003,-3.227661e+000
1.320907e+003,-4.578827e+000
1.321871e+003,-4.998108e+000
1.322836e+003,-4.277283e+000
1.323800e+003,-3.648010e+000
1.324764e+003,-3.575928e+000
1.325728e+003,-4.040771e+000
1.326693e+003,-5.541168e+000
1.327657e+003,-8.193054e+000
1.328621e+003,-9.279358e+000
1.329585e+003,-6.725586e+000
1.330549e+003,-4.035309e+000
1.331514e+003,-2.736389e+000
1.332478e+003,-2.884216e+000
1.333442e+003,-5.550873e+000
1.334406e+003,-9.599655e+000
1.335371e+003,-1.185046e+001
1.336335e+003,-1.043677e+001
1.337299e+003,-7.051392e+000
1.338263e+003,-4.904663e+000
1.339228e+003,-4.089844e+000
1.340192e+003,-3.593781e+000
1.341156e+003,-3.525452e+000
1.342120e+003,-3.598267e+000
1.343084e+003,-3.966431e+000
1.344049e+003,-4.524414e+000
1.345013e+003,-5.017059e+000
1.345977e+003,-5.445801e+000
1.346941e+003,-6.309631e+000
1.347906e+003,-7.881134e+000
1.348870e+003,-8.598572e+000
1.349834e+003,-6.119843e+000
1.350798e+003,-2.671112e+000
1.351763e+003,-2.820770e+000
1.352727e+003,-5.880707e+000
1.353691e+003,-7.732605e+000
1.354655e+003,-6.569946e+000
1.355620e+003,-4.800079e+000
1.356584e+003,-5.757324e+000
1.357548e+003,-8.921524e+000
1.358512e+003,-9.749985e+000
1.359476e+003,-7.259399e+000
1.360441e+003,-5.075439e+000
1.361405e+003,-3.571716e+000
1.362369e+003,-3.009979e+000
1.363333e+003,-4.278503e+000
1.364298e+003,-6.207886e+000
1.365262e+003,-7.216492e+000
1.366226e+003,-6.952637e+000
1.367190e+003,-6.243958e+000
1.368155e+003,-5.835480e+000
1.369119e+003,-5.438629e+000
1.370083e+003,-3.984161e+000
1.371047e+003,-6.710815e-001
1.372011e+003,2.660217e-001
1.372976e+003,-3.525055e+000
1.373940e+003,-6.757538e+000
1.374904e+003,-7.444580e+000
1.375868e+003,-6.443298e+000
1.376833e+003,-4.088074e+000
1.377797e+003,-9.368286e-001
1.378761e+003,4.251709e-001
1.379725e+003,-1.489838e+000
1.380690e+003,-4.092468e+000
1.381654e+003,-4.891174e+000
1.382618e+003,-4.557159e+000
1.383582e+003,-3.685120e+000
1.384547e+003,-2.464172e+000
1.385511e+003,-1.612457e+000
1.386475e+003,-1.568268e+000
1.387439e+003,-2.020630e+000
1.388403e+003,-2.573578e+000
1.389368e+003,-3.239166e+000
1.390332e+003,-3.683014e+000
1.391296e+003,-4.053345e+000
1.392260e+003,-3.655426e+000
1.393225e+003,-1.082428e+000
1.394189e+003,8.288269e-001
1.395153e+003,-1.431580e-001
1.396117e+003,-2.580902e+000
1.397082e+003,-4.291565e+000
1.398046e+003,-4.578796e+000
1.399010e+003,-3.999573e+000
1.399974e+003,-3.086182e+000
1.400938e+003,-2.401245e+000
1.401903e+003,-3.452087e+000
1.402867e+003,-6.687469e+000
1.403831e+003,-7.911377e+000
1.404795e+003,-6.075531e+000
1.405760e+003,-4.087708e+000
1.406724e+003,-3.181305e+000
1.407688e+003,-2.908234e+000
1.408652e+003,-2.534576e+000
1.409617e+003,-1.875122e+000
1.410581e+003,-1.008636e+000
1.411545e+003,1.317444e-001
1.412509e+003,9.095764e-001
1.413474e+003,3.657837e-001
1.414438e+003,-9.782104e-001
1.415402e+003,-2.277527e+000
1.416366e+003,-3.264252e+000
1.417330e+003,-3.134491e+000
1.418295e+003,-1.372284e+000
1.419259e+003,8.531189e-001
1.420223e+003,2.245361e+000
1.421187e+003,2.781616e+000
1.422152e+003,2.696106e+000
1.423116e+003,1.788574e+000
1.424080e+003,1.465546e+000
1.425044e+003,2.477692e+000
1.426009e+003,3.496033e+000
1.426973e+003,4.591064e+000
1.427937e+003,5.002319e+000
1.428901e+003,3.279358e+000
1.429865e+003,-2.682495e-002
1.430830e+003,-2.600861e+000
1.431794e+003,-2.972198e+000
1.432758e+003,-1.798248e+000
1.433722e+003,-1.080933e-001
1.434687e+003,2.405548e+000
1.435651e+003,4.105896e+000
1.436615e+003,4.174591e+000
1.437579e+003,3.741211e+000
1.438544e+003,2.167419e+000
1.439508e+003,9.833679e-001
1.440472e+003,1.501709e+000
1.441436e+003,3.218811e+000
1.442401e+003,5.206451e+000
1.443365e+003,7.075134e+000
1.444329e+003,8.277893e+000
1.445293e+003,8.363617e+000
1.446257e+003,7.851807e+000
1.447222e+003,7.602448e+000
1.448186e+003,7.527832e+000
1.449150e+003,7.303284e+000
1.450114e+003,6.907135e+000
1.451079e+003,6.155365e+000
1.452043e+003,4.611176e+000
1.453007e+003,3.081116e+000
1.453971e+003,2.814636e+000
1.454936e+003,3.567627e+000
1.455900e+003,3.749268e+000
1.456864e+003,2.897705e+000
1.457828e+003,2.181854e+000
1.458792e+003,2.224670e+000
1.459757e+003,2.563660e+000
1.460721e+003,3.080231e+000
1.461685e+003,3.539063e+000
1.462649e+003,3.574280e+000
1.463614e+003,3.141083e+000
1.464578e+003,2.290833e+000
1.465542e+003,8.285217e-001
1.466506e+003,-7.367859e-001
1.467471e+003,-4.728699e-001
1.468435e+003,2.341431e+000
1.469399e+003,4.124481e+000
1.470363e+003,3.666138e+000
1.471328e+003,3.263885e+000
1.472292e+003,3.219635e+000
1.473256e+003,3.326385e+000
1.474220e+003,3.893280e+000
1.475184e+003,4.633392e+000
1.476149e+003,4.545380e+000
1.477113e+003,3.492126e+000
1.478077e+003,3.008484e+000
1.479041e+003,4.714569e+000
1.480006e+003,8.105774e+000
1.480970e+003,1.133032e+001
1.481934e+003,1.476917e+001
1.482898e+003,1.548868e+001
1.483863e+003,1.124948e+001
1.484827e+003,7.703217e+000
1.485791e+003,6.287842e+000
1.486755e+003,6.439392e+000
1.487719e+003,7.998779e+000
1.488684e+003,1.044272e+001
1.489648e+003,1.309763e+001
1.490612e+003,1.576471e+001
1.491576e+003,1.759592e+001
1.492541e+003,1.754352e+001
1.493505e+003,1.666559e+001
1.494469e+003,1.766467e+001
1.495433e+003,1.998679e+001
1.496398e+003,2.088037e+001
1.497362e+003,1.967679e+001
1.498326e+003,1.891974e+001
1.499290e+003,2.002603e+001
1.500255e+003,2.219717e+001
1.501219e+003,2.445856e+001
1.502183e+003,2.674771e+001
1.503147e+003,2.892355e+001
1.504111e+003,3.069727e+001
1.505076e+003,3.373364e+001
1.506040e+003,3.976459e+001
1.507004e+003,4.679184e+001
1.507968e+003,5.283521e+001
1.508933e+003,5.829358e+001
1.509897e+003,6.399991e+001
1.510861e+003,7.032748e+001
1.511825e+003,7.707571e+001
1.512790e+003,8.369815e+001
1.513754e+003,9.090533e+001
1.514718e+003,1.007251e+002
1.515682e+003,1.130009e+002
1.516646e+003,1.240799e+002
1.517611e+003,1.331300e+002
1.518575e+003,1.427168e+002
1.519539e+003,1.564206e+002
1.520503e+003,1.682472e+002
1.521468e+003,1.748040e+002
1.522432e+003,1.774960e+002
1.523396e+003,1.782994e+002
1.524360e+003,1.776784e+002
1.525325e+003,1.751321e+002
1.526289e+003,1.703768e+002
1.527253e+003,1.642223e+002
1.528217e+003,1.580174e+002
1.529182e+003,1.518875e+002
1.530146e+003,1.451448e+002
1.531110e+003,1.386666e+002
1.532074e+003,1.295279e+002
1.533039e+003,1.158670e+002
1.534003e+003,1.011684e+002
1.534967e+003,8.600925e+001
1.535931e+003,7.186212e+001
1.536896e+003,5.984912e+001
1.537860e+003,5.028412e+001
1.538824e+003,4.357254e+001
1.539788e+003,3.965469e+001
1.540752e+003,3.632886e+001
1.541717e+003,3.060925e+001
1.542681e+003,2.340225e+001
1.543645e+003,2.002478e+001
1.544609e+003,2.303799e+001
1.545573e+003,2.376749e+001
1.546538e+003,2.039444e+001
1.547502e+003,1.680948e+001
1.548466e+003,1.422256e+001
1.549430e+003,1.259372e+001
1.550395e+003,1.171362e+001
1.551359e+003,1.150693e+001
1.552323e+003,1.248260e+001
1.553287e+003,1.467361e+001
1.554252e+003,1.601514e+001
1.555216e+003,1.451837e+001
1.556180e+003,1.135291e+001
1.557144e+003,9.041656e+000
1.558109e+003,7.693878e+000
1.559073e+003,7.405060e+000
1.560037e+003,8.519806e+000
1.561001e+003,9.515961e+000
1.561966e+003,1.011819e+001
1.562930e+003,1.057242e+001
1.563894e+003,1.133530e+001
1.564858e+003,1.190720e+001
1.565823e+003,1.067661e+001
1.566787e+003,7.496765e+000
1.567751e+003,5.313751e+000
1.568715e+003,6.042450e+000
1.569679e+003,7.845825e+000
1.570644e+003,8.597046e+000
1.571608e+003,8.391205e+000
1.572572e+003,7.604218e+000
1.573536e+003,6.303497e+000
1.574500e+003,5.823761e+000
1.575465e+003,6.799133e+000
1.576429e+003,8.296906e+000
1.577393e+003,9.998810e+000
1.578357e+003,1.142139e+001
1.579322e+003,1.143710e+001
1.580286e+003,1.014743e+001
1.581250e+003,9.117889e+000
1.582214e+003,8.644775e+000
1.583179e+003,9.252136e+000
1.584143e+003,1.252206e+001
1.585107e+003,1.584744e+001
1.586071e+003,1.550909e+001
1.587036e+003,1.269843e+001
1.588000e+003,1.041455e+001
1.588964e+003,9.130524e+000
1.589928e+003,9.241516e+000
1.590893e+003,1.200299e+001
1.591857e+003,1.540280e+001
1.592821e+003,1.616699e+001
1.593785e+003,1.476718e+001
1.594750e+003,1.368332e+001
1.595714e+003,1.306873e+001
1.596678e+003,1.332471e+001
1.597642e+003,1.506738e+001
1.598606e+003,1.710953e+001
1.599571e+003,1.895679e+001
1.600535e+003,2.035004e+001
1.601499e+003,2.065939e+001
1.602463e+003,2.002286e+001
1.603427e+003,1.940720e+001
1.604392e+003,1.921823e+001
1.605356e+003,1.910925e+001
1.606320e+003,1.877762e+001
1.607284e+003,1.825119e+001
1.608249e+003,1.732224e+001
1.609213e+003,1.594910e+001
1.610177e+003,1.597250e+001
1.611141e+003,1.874634e+001
1.612106e+003,2.031207e+001
1.613070e+003,1.718390e+001
1.614034e+003,1.354095e+001
1.614998e+003,1.251683e+001
1.615963e+003,1.304166e+001
1.616927e+003,1.285393e+001
1.617891e+003,1.176288e+001
1.618855e+003,1.181285e+001
1.619820e+003,1.441052e+001
1.620784e+003,1.727299e+001
1.621748e+003,1.696552e+001
1.622712e+003,1.428127e+001
1.623677e+003,1.319620e+001
1.624641e+003,1.410970e+001
1.625605e+003,1.443005e+001
1.626569e+003,1.236095e+001
1.627533e+003,1.107108e+001
1.628498e+003,1.314009e+001
1.629462e+003,1.597137e+001
1.630426e+003,1.749294e+001
1.631390e+003,1.790759e+001
1.632354e+003,1.795711e+001
1.633319e+003,1.788794e+001
1.634283e+003,1.787898e+001
1.635247e+003,1.811926e+001
1.636211e+003,1.823317e+001
1.637176e+003,1.749350e+001
1.638140e+003,1.602733e+001
1.639104e+003,1.468903e+001
1.640068e+003,1.317296e+001
1.641033e+003,1.284225e+001
1.641997e+003,1.494899e+001
1.642961e+003,1.715961e+001
1.643925e+003,1.869707e+001
1.644890e+003,1.946344e+001
1.645854e+003,1.904765e+001
1.646818e+003,1.779602e+001
1.647782e+003,1.628279e+001
1.648747e+003,1.478860e+001
1.649711e+003,1.437321e+001
1.650675e+003,1.633502e+001
1.651639e+003,1.923979e+001
1.652604e+003,1.971722e+001
1.653568e+003,1.780304e+001
1.654532e+003,1.647699e+001
1.655496e+003,1.597061e+001
1.656460e+003,1.579636e+001
1.657425e+003,1.634760e+001
1.658389e+003,1.659497e+001
1.659353e+003,1.565463e+001
1.660317e+003,1.438202e+001
1.661281e+003,1.365649e+001
1.662246e+003,1.338873e+001
1.663210e+003,1.305734e+001
1.664174e+003,1.255164e+001
1.665138e+003,1.242542e+001
1.666103e+003,1.327168e+001
1.667067e+003,1.441776e+001
1.668031e+003,1.457097e+001
1.668995e+003,1.381628e+001
1.669960e+003,1.278114e+001
1.670924e+003,1.128775e+001
1.671888e+003,1.068541e+001
1.672852e+003,1.210074e+001
1.673817e+003,1.332817e+001
1.674781e+003,1.235858e+001
1.675745e+003,1.091023e+001
1.676709e+003,1.130273e+001
1.677674e+003,1.289101e+001
1.678638e+003,1.314737e+001
1.679602e+003,1.130205e+001
1.680566e+003,9.010162e+000
1.681531e+003,7.397781e+000
1.682495e+003,6.465271e+000
1.683459e+003,6.088943e+000
1.684423e+003,6.195129e+000
1.685387e+003,6.986160e+000
1.686352e+003,8.680695e+000
1.687316e+003,9.755447e+000
1.688280e+003,9.573822e+000
1.689244e+003,8.943375e+000
1.690208e+003,8.022156e+000
1.691173e+003,7.195572e+000
1.692137e+003,7.031982e+000
1.693101e+003,7.479538e+000
1.694065e+003,8.126465e+000
1.695030e+003,8.781967e+000
1.695994e+003,9.037445e+000
1.696958e+003,8.529739e+000
1.697922e+003,7.768463e+000
1.698887e+003,7.497238e+000
1.699851e+003,7.506683e+000
1.700815e+003,6.902786e+000
1.701779e+003,5.576813e+000
1.702744e+003,4.663498e+000
1.703708e+003,4.805450e+000
1.704672e+003,4.812744e+000
1.705636e+003,3.226532e+000
1.706601e+003,1.303009e+000
1.707565e+003,1.595306e+000
1.708529e+003,3.353882e+000
1.709493e+003,3.736404e+000
1.710458e+003,2.224182e+000
1.711422e+003,1.013702e+000
1.712386e+003,1.297440e+000
1.713350e+003,2.036377e+000
1.714314e+003,2.372101e+000
1.715279e+003,2.411911e+000
1.716243e+003,2.525131e+000
1.717207e+003,2.667557e+000
1.718171e+003,2.425247e+000
1.719135e+003,1.713501e+000
1.720100e+003,7.478790e-001
1.721064e+003,-4.896851e-001
1.722028e+003,-1.641327e+000
1.722992e+003,-2.184692e+000
1.723957e+003,-1.956543e+000
1.724921e+003,-5.714264e-001
1.725885e+003,2.127716e+000
1.726849e+003,3.626175e+000
1.727814e+003,2.979065e+000
1.728778e+003,2.281189e+000
1.729742e+003,2.379105e+000
1.730706e+003,2.781891e+000
1.731671e+003,3.137680e+000
1.732635e+003,3.132111e+000
1.733599e+003,2.253464e+000
1.734563e+003,7.561188e-001
1.735528e+003,-1.166840e-001
1.736492e+003,2.274323e-001
1.737456e+003,8.345184e-001
1.738420e+003,5.364075e-001
1.739385e+003,-3.995819e-001
1.740349e+003,-6.604767e-001
1.741313e+003,-1.820221e-001
1.742277e+003,1.134857e+000
1.743241e+003,4.774994e+000
1.744206e+003,7.087296e+000
1.745170e+003,6.813660e+000
1.746134e+003,5.896622e+000
1.747098e+003,5.367645e+000
1.748063e+003,4.788147e+000
1.749027e+003,3.529846e+000
1.749991e+003,1.713257e+000
1.750955e+003,-7.505951e-001
1.751919e+003,-3.492615e+000
1.752884e+003,-4.259567e+000
1.753848e+003,-1.120575e+000
1.754812e+003,3.524384e+000
1.755776e+003,4.873856e+000
1.756741e+003,3.132935e+000
1.757705e+003,1.355087e+000
1.758669e+003,-7.432098e-001
1.759633e+003,-2.345856e+000
1.760598e+003,-3.852234e+000
1.761562e+003,-4.275848e+000
1.762526e+003,-2.409714e+000
1.763490e+003,-1.226959e-001
1.764455e+003,2.025299e+000
1.765419e+003,3.367157e+000
1.766383e+003,2.366806e+000
1.767347e+003,-5.548248e-001
1.768312e+003,-2.656128e+000
1.769276e+003,-2.676086e+000
1.770240e+003,-1.863861e+000
1.771204e+003,-9.925232e-001
1.772168e+003,-3.563995e-001
1.773133e+003,-1.481079e+000
1.774097e+003,-4.037918e+000
1.775061e+003,-4.184937e+000
1.776025e+003,-1.211655e+000
1.776990e+003,5.781097e-001
1.777954e+003,-6.034698e-001
1.778918e+003,-2.051880e+000
1.779882e+003,-1.843079e+000
1.780846e+003,-1.016937e+000
1.781811e+003,-9.741516e-001
1.782775e+003,-1.381653e+000
1.783739e+003,-1.102066e+000
1.784703e+003,1.428375e-001
1.785668e+003,1.142639e+000
1.786632e+003,1.123184e+000
1.787596e+003,7.810822e-001
1.788560e+003,1.084061e+000
1.789525e+003,1.366837e+000
1.790489e+003,-1.819916e-001
1.791453e+003,-2.715500e+000
1.792417e+003,-2.728958e+000
1.793382e+003,1.539459e-001
1.794346e+003,1.569321e+000
1.795310e+003,-9.546967e-001
1.796274e+003,-3.959793e+000
1.797239e+003,-3.266891e+000
1.798203e+003,-5.026245e-002
1.799167e+003,1.511230e+000
1.800131e+003,9.655914e-001
1.801095e+003,7.687378e-002
1.802060e+003,-1.612289e+000
1.803024e+003,-2.406723e+000
1.803988e+003,-1.613953e+000
1.804952e+003,-7.221985e-001
1.805917e+003,-2.735748e-001
1.806881e+003,-2.067719e-001
1.807845e+003,-5.529938e-001
1.808809e+003,-1.052475e+000
1.809773e+003,-1.311066e+000
1.810738e+003,-1.257370e+000
1.811702e+003,-1.166504e+000
1.812666e+003,-1.212799e+000
1.813630e+003,-9.994812e-001
1.814595e+003,1.801147e-001
1.815559e+003,1.810379e+000
1.816523e+003,1.760452e+000
1.817487e+003,-9.959412e-002
1.818452e+003,-1.924301e+000
1.819416e+003,-3.845535e+000
1.820380e+003,-4.755646e+000
1.821344e+003,-4.259064e+000
1.822309e+003,-3.052155e+000
1.823273e+003,-6.609955e-001
1.824237e+003,1.692627e+000
1.825201e+003,2.624771e+000
1.826166e+003,2.376953e+000
1.827130e+003,1.646225e+000
1.828094e+003,5.482788e-001
1.829058e+003,-3.589478e-001
1.830022e+003,-8.295441e-001
1.830987e+003,-7.830658e-001
1.831951e+003,3.471222e-001
1.832915e+003,1.676376e+000
1.833879e+003,1.624634e+000
1.834844e+003,6.743164e-001
1.835808e+003,5.229340e-001
1.836772e+003,1.383072e+000
1.837736e+003,2.249298e+000
1.838700e+003,2.634415e+000
1.839665e+003,2.751740e+000
1.840629e+003,2.874527e+000
1.841593e+003,2.830872e+000
1.842557e+003,2.064209e+000
1.843522e+003,5.873108e-001
1.844486e+003,-2.115784e-001
1.845450e+003,2.109680e-001
1.846414e+003,5.845642e-001
1.847379e+003,1.189590e+000
1.848343e+003,9.580841e-001
1.849307e+003,-1.929779e+000
1.850271e+003,-4.053558e+000
1.851236e+003,-1.583481e+000
1.852200e+003,2.424515e+000
1.853164e+003,3.317932e+000
1.854128e+003,1.166626e+000
1.855093e+003,-1.209106e+000
1.856057e+003,-2.497574e+000
1.857021e+003,-2.891342e+000
1.857985e+003,-2.572998e+000
1.858949e+003,-1.770157e+000
1.859914e+003,-7.650299e-001
1.860878e+003,4.574432e-001
1.861842e+003,2.113480e+000
1.862806e+003,4.199219e+000
1.863771e+003,4.514252e+000
1.864735e+003,2.199631e+000
1.865699e+003,8.599854e-002
1.866663e+003,-6.469727e-001
1.867627e+003,-4.896545e-001
1.868592e+003,4.916687e-001
1.869556e+003,1.622955e+000
1.870520e+003,1.680832e+000
1.871484e+003,8.428192e-001
1.872449e+003,3.095856e-001
1.873413e+003,3.690796e-001
1.874377e+003,1.395432e+000
1.875341e+003,4.418503e+000
1.876306e+003,6.664627e+000
1.877270e+003,5.955429e+000
1.878234e+003,4.324966e+000
1.879198e+003,3.848587e+000
1.880163e+003,4.101929e+000
1.881127e+003,4.018036e+000
1.882091e+003,3.483322e+000
1.883055e+003,2.894836e+000
1.884020e+003,2.436630e+000
1.884984e+003,2.138428e+000
1.885948e+003,2.031296e+000
1.886912e+003,2.137436e+000
1.887876e+003,2.584229e+000
1.888841e+003,3.327026e+000
1.889805e+003,3.529526e+000
1.890769e+003,2.992111e+000
1.891733e+003,3.078201e+000
1.892698e+003,4.278091e+000
1.893662e+003,4.972763e+000
1.894626e+003,4.354034e+000
1.895590e+003,3.502487e+000
1.896554e+003,2.950378e+000
1.897519e+003,2.842972e+000
1.898483e+003,3.806595e+000
1.899447e+003,5.177521e+000
1.900411e+003,4.705597e+000
1.901376e+003,1.909195e+000
1.902340e+003,2.462463e-001
1.903304e+003,1.779282e+000
1.904268e+003,3.494125e+000
1.905233e+003,3.641800e+000
1.906197e+003,3.098953e+000
1.907161e+003,2.178024e+000
1.908125e+003,1.585098e+000
1.909090e+003,3.013153e+000
1.910054e+003,5.750412e+000
1.911018e+003,6.761108e+000
1.911982e+003,5.257004e+000
1.912947e+003,3.345932e+000
1.913911e+003,2.535110e+000
1.914875e+003,2.823715e+000
1.915839e+003,4.308075e+000
1.916803e+003,6.564987e+000
1.917768e+003,8.000641e+000
1.918732e+003,8.750916e+000
1.919696e+003,8.159714e+000
1.920660e+003,5.415726e+000
1.921625e+003,3.888809e+000
1.922589e+003,4.839661e+000
1.923553e+003,6.081512e+000
1.924517e+003,6.644043e+000
1.925481e+003,6.881317e+000
1.926446e+003,7.117218e+000
1.927410e+003,7.261765e+000
1.928374e+003,6.938339e+000
1.929338e+003,6.131622e+000
1.930303e+003,5.710251e+000
1.931267e+003,6.144470e+000
1.932231e+003,6.742142e+000
1.933195e+003,7.793961e+000
1.934160e+003,7.942993e+000
1.935124e+003,4.798431e+000
1.936088e+003,1.255096e+000
1.937052e+003,1.500320e+000
1.938017e+003,4.209503e+000
1.938981e+003,5.969299e+000
1.939945e+003,6.081192e+000
1.940909e+003,5.311859e+000
1.941874e+003,4.102890e+000
1.942838e+003,2.934372e+000
1.943802e+003,2.309738e+000
1.944766e+003,2.504318e+000
1.945730e+003,4.173508e+000
1.946695e+003,6.886673e+000
1.947659e+003,7.270157e+000
1.948623e+003,4.922318e+000
1.949587e+003,4.929642e+000
1.950552e+003,8.884674e+000
1.951516e+003,1.096288e+001
1.952480e+003,8.396927e+000
1.953444e+003,5.263474e+000
1.954408e+003,3.849655e+000
1.955373e+003,3.821274e+000
1.956337e+003,5.583221e+000
1.957301e+003,8.541061e+000
1.958265e+003,1.010783e+001
1.959230e+003,1.008792e+001
1.960194e+003,9.982803e+000
1.961158e+003,9.256607e+000
1.962122e+003,9.194626e+000
1.963087e+003,1.142950e+001
1.964051e+003,1.289227e+001
1.965015e+003,1.079997e+001
1.965979e+003,8.212402e+000
1.966944e+003,8.596954e+000
1.967908e+003,1.054118e+001
1.968872e+003,1.102342e+001
1.969836e+003,9.786743e+000
1.970801e+003,8.378662e+000
1.971765e+003,7.531479e+000
1.972729e+003,7.385010e+000
1.973693e+003,8.233932e+000
1.974657e+003,9.264450e+000
1.975622e+003,8.833344e+000
1.976586e+003,7.693146e+000
1.977550e+003,8.531250e+000
1.978514e+003,1.087236e+001
1.979479e+003,1.103955e+001
1.980443e+003,8.669189e+000
1.981407e+003,8.064728e+000
1.982371e+003,1.099890e+001
1.983335e+003,1.333325e+001
1.984300e+003,1.168385e+001
1.985264e+003,8.728394e+000
1.986228e+003,8.788345e+000
1.987192e+003,1.108157e+001
1.988157e+003,1.144113e+001
1.989121e+003,9.219681e+000
1.990085e+003,8.737122e+000
1.991049e+003,1.153362e+001
1.992014e+003,1.308394e+001
1.992978e+003,1.161519e+001
1.993942e+003,1.038948e+001
1.994906e+003,1.121098e+001
1.995871e+003,1.196899e+001
1.996835e+003,1.026128e+001
1.997799e+003,8.093658e+000
1.998763e+003,8.949142e+000
1.999728e+003,1.211774e+001
