5.003444e+002,2.281794e+002
5.013087e+002,2.315270e+002
5.022729e+002,2.289921e+002
5.032371e+002,2.202133e+002
5.042014e+002,2.133243e+002
5.051656e+002,2.082655e+002
5.061298e+002,2.052980e+002
5.070941e+002,2.053413e+002
5.080583e+002,2.103826e+002
5.090225e+002,2.113224e+002
5.099868e+002,2.036300e+002
5.109510e+002,1.943854e+002
5.119152e+002,1.891982e+002
5.128795e+002,1.904556e+002
5.138437e+002,1.933417e+002
5.148079e+002,1.923036e+002
5.157722e+002,1.896371e+002
5.167364e+002,1.874506e+002
5.177006e+002,1.863641e+002
5.186649e+002,1.851996e+002
5.196291e+002,1.802694e+002
5.205933e+002,1.730203e+002
5.215576e+002,1.688739e+002
5.225218e+002,1.690070e+002
5.234860e+002,1.715420e+002
5.244503e+002,1.716830e+002
5.254145e+002,1.691520e+002
5.263787e+002,1.673806e+002
5.273430e+002,1.675485e+002
5.283072e+002,1.682545e+002
5.292714e+002,1.667483e+002
5.302357e+002,1.596737e+002
5.311999e+002,1.516953e+002
5.321641e+002,1.467931e+002
5.331284e+002,1.442177e+002
5.340926e+002,1.423361e+002
5.350568e+002,1.394994e+002
5.360211e+002,1.357125e+002
5.369853e+002,1.341641e+002
5.379495e+002,1.349542e+002
5.389138e+002,1.355493e+002
5.398780e+002,1.340055e+002
5.408422e+002,1.300474e+002
5.418065e+002,1.272601e+002
5.427707e+002,1.257839e+002
5.437349e+002,1.246857e+002
5.446992e+002,1.241257e+002
5.456634e+002,1.237650e+002
5.466276e+002,1.221362e+002
5.475919e+002,1.176407e+002
5.485561e+002,1.132833e+002
5.495203e+002,1.091471e+002
5.504846e+002,1.052924e+002
5.514488e+002,1.021194e+002
5.524130e+002,1.008182e+002
5.533773e+002,1.008809e+002
5.543415e+002,9.984082e+001
5.553057e+002,9.795984e+001
5.562700e+002,9.632056e+001
5.572342e+002,9.600110e+001
5.581984e+002,9.676367e+001
5.591627e+002,9.609082e+001
5.601269e+002,9.498755e+001
5.610911e+002,9.341699e+001
5.620554e+002,9.013037e+001
5.630196e+002,8.423206e+001
5.639838e+002,8.048218e+001
5.649481e+002,8.310767e+001
5.659123e+002,8.494788e+001
5.668765e+002,8.316541e+001
5.678408e+002,7.880151e+001
5.688050e+002,7.601111e+001
5.697692e+002,7.841504e+001
5.707335e+002,8.105957e+001
5.716977e+002,8.160303e+001
5.726619e+002,8.035791e+001
5.736262e+002,7.770068e+001
5.745904e+002,7.346228e+001
5.755546e+002,6.756653e+001
5.765189e+002,6.424731e+001
5.774831e+002,6.329736e+001
5.784473e+002,6.275720e+001
5.794116e+002,6.107715e+001
5.803758e+002,5.827661e+001
5.813400e+002,5.746777e+001
5.823043e+002,5.978809e+001
5.832685e+002,6.071875e+001
5.842327e+002,5.773315e+001
5.851970e+002,5.158704e+001
5.861612e+002,4.728052e+001
5.871254e+002,4.882068e+001
5.880897e+002,5.200342e+001
5.890539e+002,5.579370e+001
5.900181e+002,5.919714e+001
5.909824e+002,6.089709e+001
5.919466e+002,5.903979e+001
5.929108e+002,5.393152e+001
5.938751e+002,5.014709e+001
5.948393e+002,4.797668e+001
5.958035e+002,4.657825e+001
5.967678e+002,4.477271e+001
5.977320e+002,4.189709e+001
5.986962e+002,4.245105e+001
5.996605e+002,4.779980e+001
6.006247e+002,5.210449e+001
6.015889e+002,5.182129e+001
6.025532e+002,4.675122e+001
6.035174e+002,4.141614e+001
6.044816e+002,3.801685e+001
6.054459e+002,3.588672e+001
6.064101e+002,3.534485e+001
6.073743e+002,3.587366e+001
6.083386e+002,3.637610e+001
6.093028e+002,3.545276e+001
6.102670e+002,3.423730e+001
6.112313e+002,3.562170e+001
6.121955e+002,3.941614e+001
6.131597e+002,4.274963e+001
6.141240e+002,4.204773e+001
6.150882e+002,3.535229e+001
6.160524e+002,3.202502e+001
6.170167e+002,3.435559e+001
6.179809e+002,3.769360e+001
6.189451e+002,3.922656e+001
6.199094e+002,3.831555e+001
6.208736e+002,3.661951e+001
6.218378e+002,3.542371e+001
6.228021e+002,3.524048e+001
6.237663e+002,3.651221e+001
6.247305e+002,3.889050e+001
6.256948e+002,4.165381e+001
6.266590e+002,4.417334e+001
6.276232e+002,4.496899e+001
6.285875e+002,4.255164e+001
6.295517e+002,3.795703e+001
6.305159e+002,3.402185e+001
6.314802e+002,3.317700e+001
6.324444e+002,3.529199e+001
6.334086e+002,3.597681e+001
6.343729e+002,3.681348e+001
6.353371e+002,3.716882e+001
6.363013e+002,3.631055e+001
6.372656e+002,3.400000e+001
6.382298e+002,3.082776e+001
6.391940e+002,2.502173e+001
6.401583e+002,2.012329e+001
6.411225e+002,1.924719e+001
6.420867e+002,2.132190e+001
6.430510e+002,2.344897e+001
6.440152e+002,2.260132e+001
6.449794e+002,1.900427e+001
6.459437e+002,1.512341e+001
6.469079e+002,1.116846e+001
6.478721e+002,7.605225e+000
6.488364e+002,5.010376e+000
6.498006e+002,3.867065e+000
6.507648e+002,3.610107e+000
6.517291e+002,4.405396e+000
6.526933e+002,4.532593e+000
6.536575e+002,2.451538e+000
6.546218e+002,-8.150635e-001
6.555860e+002,-1.738403e+000
6.565502e+002,2.312256e+000
6.575145e+002,5.898560e+000
6.584787e+002,6.917603e+000
6.594429e+002,7.105103e+000
6.604072e+002,8.924072e+000
6.613714e+002,1.381677e+001
6.623356e+002,1.882324e+001
6.632999e+002,1.825989e+001
6.642641e+002,1.437988e+001
6.652283e+002,1.095081e+001
6.661926e+002,1.009485e+001
6.671568e+002,1.170862e+001
6.681210e+002,1.328113e+001
6.690853e+002,1.402832e+001
6.700495e+002,1.397107e+001
6.710137e+002,1.214355e+001
6.719780e+002,1.005664e+001
6.729422e+002,1.015027e+001
6.739064e+002,1.382446e+001
6.748707e+002,1.514453e+001
6.758349e+002,1.072864e+001
6.767991e+002,5.388306e+000
6.777634e+002,3.344482e+000
6.787276e+002,6.007568e+000
6.796918e+002,1.055457e+001
6.806561e+002,1.228320e+001
6.816203e+002,1.204199e+001
6.825845e+002,1.219775e+001
6.835488e+002,1.312158e+001
6.845130e+002,1.401880e+001
6.854772e+002,1.363855e+001
6.864415e+002,1.250623e+001
6.874057e+002,1.195764e+001
6.883699e+002,9.701416e+000
6.893342e+002,7.202515e+000
6.902984e+002,6.195923e+000
6.912626e+002,7.254761e+000
6.922269e+002,7.922729e+000
6.931911e+002,8.166138e+000
6.941553e+002,9.283325e+000
6.951196e+002,1.114832e+001
6.960838e+002,1.290088e+001
6.970480e+002,1.348181e+001
6.980123e+002,1.226636e+001
6.989765e+002,1.098486e+001
6.999407e+002,1.135815e+001
7.009050e+002,1.265210e+001
7.018692e+002,1.383972e+001
7.028334e+002,1.417798e+001
7.037977e+002,1.351489e+001
7.047619e+002,1.158716e+001
7.057261e+002,8.622437e+000
7.066904e+002,6.628418e+000
7.076546e+002,6.421387e+000
7.086188e+002,7.414673e+000
7.095831e+002,8.125122e+000
7.105473e+002,7.734131e+000
7.115115e+002,6.788574e+000
7.124758e+002,5.066162e+000
7.134400e+002,2.955811e+000
7.144042e+002,1.018188e+000
7.153685e+002,-2.589111e-001
7.163327e+002,-6.987305e-001
7.172969e+002,-5.040283e-001
7.182612e+002,8.250732e-001
7.192254e+002,4.462524e+000
7.201896e+002,9.983643e+000
7.211539e+002,1.485632e+001
7.221181e+002,1.502429e+001
7.230823e+002,8.649414e+000
7.240466e+002,5.137329e+000
7.250108e+002,7.157104e+000
7.259750e+002,1.076575e+001
7.269393e+002,1.225647e+001
7.279035e+002,1.033020e+001
7.288677e+002,7.293579e+000
7.298320e+002,4.419556e+000
7.307962e+002,3.902710e+000
7.317604e+002,8.010010e+000
7.327247e+002,1.489331e+001
7.336889e+002,2.036865e+001
7.346531e+002,2.025159e+001
7.356174e+002,1.429810e+001
7.365816e+002,6.518555e+000
7.375458e+002,-3.708496e-001
7.385101e+002,-3.048828e+000
7.394743e+002,4.932861e-001
7.404385e+002,9.294922e+000
7.414028e+002,1.658801e+001
7.423670e+002,1.963452e+001
7.433312e+002,1.971106e+001
7.442955e+002,1.741943e+001
7.452597e+002,1.476648e+001
7.462239e+002,1.352966e+001
7.471882e+002,1.369312e+001
7.481524e+002,1.480249e+001
7.491166e+002,1.567883e+001
7.500809e+002,1.592444e+001
7.510451e+002,1.603882e+001
7.520093e+002,1.598364e+001
7.529736e+002,1.487268e+001
7.539378e+002,1.149207e+001
7.549020e+002,7.798584e+000
7.558663e+002,5.357178e+000
7.568306e+002,3.951050e+000
7.577948e+002,4.743896e+000
7.587590e+002,9.425781e+000
7.597233e+002,1.852039e+001
7.606875e+002,2.234253e+001
7.616517e+002,1.862476e+001
7.626160e+002,1.509741e+001
7.635802e+002,1.414124e+001
7.645444e+002,1.570459e+001
7.655087e+002,1.904126e+001
7.664729e+002,2.518994e+001
7.674371e+002,3.005188e+001
7.684014e+002,3.179651e+001
7.693656e+002,3.085706e+001
7.703298e+002,2.679651e+001
7.712941e+002,1.998865e+001
7.722583e+002,1.325879e+001
7.732225e+002,1.433850e+001
7.741868e+002,2.183936e+001
7.751510e+002,2.681360e+001
7.761152e+002,2.730469e+001
7.770795e+002,2.557605e+001
7.780437e+002,2.487134e+001
7.790079e+002,2.471155e+001
7.799722e+002,2.483228e+001
7.809364e+002,2.585596e+001
7.819006e+002,2.672559e+001
7.828649e+002,2.731067e+001
7.838291e+002,2.798450e+001
7.847933e+002,2.916125e+001
7.857576e+002,3.060718e+001
7.867218e+002,3.080286e+001
7.876860e+002,2.947607e+001
7.886503e+002,2.793774e+001
7.896145e+002,2.772693e+001
7.905787e+002,2.969348e+001
7.915430e+002,3.322778e+001
7.925072e+002,3.468945e+001
7.934714e+002,3.170703e+001
7.944357e+002,3.004150e+001
7.953999e+002,3.455432e+001
7.963641e+002,4.236743e+001
7.973284e+002,4.597974e+001
7.982926e+002,4.319629e+001
7.992568e+002,3.997546e+001
8.002211e+002,3.520166e+001
8.011853e+002,2.976794e+001
8.021495e+002,2.550220e+001
8.031138e+002,2.389648e+001
8.040780e+002,2.515771e+001
8.050422e+002,2.820496e+001
8.060065e+002,3.125793e+001
8.069707e+002,3.420691e+001
8.079349e+002,3.690662e+001
8.088992e+002,3.866504e+001
8.098634e+002,3.909167e+001
8.108276e+002,3.885059e+001
8.117919e+002,4.023206e+001
8.127561e+002,4.412817e+001
8.137203e+002,4.384766e+001
8.146846e+002,3.688879e+001
8.156488e+002,2.751428e+001
8.166130e+002,2.242932e+001
8.175773e+002,2.338989e+001
8.185415e+002,2.550342e+001
8.195057e+002,2.619043e+001
8.204700e+002,2.627612e+001
8.214342e+002,2.605176e+001
8.223984e+002,2.600964e+001
8.233627e+002,2.726880e+001
8.243269e+002,3.195032e+001
8.252911e+002,3.851477e+001
8.262554e+002,4.103186e+001
8.272196e+002,3.951196e+001
8.281838e+002,3.629932e+001
8.291481e+002,3.272046e+001
8.301123e+002,2.871570e+001
8.310765e+002,2.711230e+001
8.320408e+002,2.996045e+001
8.330050e+002,3.184192e+001
8.339692e+002,3.217932e+001
8.349335e+002,3.167310e+001
8.358977e+002,3.142310e+001
8.368619e+002,3.215063e+001
8.378262e+002,3.327368e+001
8.387904e+002,3.316028e+001
8.397546e+002,3.245105e+001
8.407189e+002,3.164209e+001
8.416831e+002,3.140112e+001
8.426473e+002,3.251489e+001
8.436116e+002,3.569495e+001
8.445758e+002,4.099646e+001
8.455400e+002,4.677722e+001
8.465043e+002,5.202686e+001
8.474685e+002,5.423804e+001
8.484327e+002,5.214197e+001
8.493970e+002,4.775549e+001
8.503612e+002,4.657874e+001
8.513254e+002,5.009131e+001
8.522897e+002,5.308557e+001
8.532539e+002,5.429333e+001
8.542181e+002,5.441614e+001
8.551824e+002,5.444714e+001
8.561466e+002,5.537830e+001
8.571108e+002,5.803906e+001
8.580751e+002,6.193262e+001
8.590393e+002,6.499744e+001
8.600035e+002,6.722217e+001
8.609678e+002,6.947180e+001
8.619320e+002,7.227966e+001
8.628962e+002,7.569983e+001
8.638605e+002,7.954358e+001
8.648247e+002,8.350549e+001
8.657889e+002,8.728931e+001
8.667532e+002,9.117664e+001
8.677174e+002,9.644067e+001
8.686816e+002,1.013319e+002
8.696459e+002,1.026122e+002
8.706101e+002,9.894385e+001
8.715743e+002,9.658923e+001
8.725386e+002,9.833411e+001
8.735028e+002,1.018949e+002
8.744670e+002,1.059233e+002
8.754313e+002,1.093953e+002
8.763955e+002,1.115887e+002
8.773597e+002,1.121482e+002
8.783240e+002,1.123434e+002
8.792882e+002,1.148613e+002
8.802524e+002,1.189886e+002
8.812167e+002,1.211425e+002
8.821809e+002,1.185643e+002
8.831451e+002,1.127111e+002
8.841094e+002,1.103038e+002
8.850736e+002,1.151461e+002
8.860378e+002,1.196025e+002
8.870021e+002,1.210295e+002
8.879663e+002,1.223950e+002
8.889305e+002,1.268635e+002
8.898948e+002,1.340731e+002
8.908590e+002,1.386534e+002
8.918232e+002,1.344104e+002
8.927875e+002,1.299910e+002
8.937517e+002,1.347783e+002
8.947159e+002,1.457062e+002
8.956802e+002,1.544755e+002
8.966444e+002,1.550071e+002
8.976086e+002,1.488361e+002
8.985729e+002,1.467910e+002
8.995371e+002,1.533811e+002
9.005013e+002,1.581881e+002
9.014656e+002,1.597584e+002
9.024298e+002,1.609294e+002
9.033940e+002,1.646925e+002
9.043583e+002,1.707839e+002
9.053225e+002,1.735303e+002
9.062867e+002,1.649935e+002
9.072510e+002,1.572068e+002
9.082152e+002,1.569788e+002
9.091794e+002,1.626770e+002
9.101437e+002,1.702001e+002
9.111079e+002,1.765433e+002
9.120721e+002,1.807885e+002
9.130364e+002,1.802145e+002
9.140006e+002,1.752952e+002
9.149648e+002,1.694596e+002
9.159291e+002,1.640076e+002
9.168933e+002,1.611001e+002
9.178575e+002,1.639049e+002
9.188218e+002,1.743201e+002
9.197860e+002,1.788965e+002
9.207502e+002,1.730485e+002
9.217145e+002,1.664196e+002
9.226787e+002,1.630913e+002
9.236429e+002,1.626521e+002
9.246072e+002,1.628652e+002
9.255714e+002,1.623185e+002
9.265356e+002,1.605840e+002
9.274999e+002,1.565721e+002
9.284641e+002,1.515635e+002
9.294283e+002,1.480044e+002
9.303926e+002,1.466609e+002
9.313568e+002,1.455889e+002
9.323210e+002,1.413521e+002
9.332853e+002,1.328751e+002
9.342495e+002,1.275986e+002
9.352137e+002,1.253915e+002
9.361780e+002,1.251226e+002
9.371422e+002,1.295302e+002
9.381064e+002,1.364154e+002
9.390707e+002,1.389502e+002
9.400349e+002,1.331554e+002
9.409991e+002,1.274806e+002
9.419634e+002,1.260714e+002
9.429276e+002,1.258104e+002
9.438918e+002,1.251510e+002
9.448561e+002,1.239258e+002
9.458203e+002,1.225326e+002
9.467845e+002,1.211664e+002
9.477488e+002,1.203503e+002
9.487130e+002,1.216807e+002
9.496772e+002,1.248724e+002
9.506415e+002,1.288466e+002
9.516057e+002,1.337836e+002
9.525699e+002,1.384882e+002
9.535342e+002,1.399725e+002
9.544984e+002,1.359829e+002
9.554626e+002,1.331930e+002
9.564269e+002,1.361495e+002
9.573911e+002,1.390691e+002
9.583553e+002,1.373634e+002
9.593196e+002,1.324001e+002
9.602838e+002,1.295070e+002
9.612480e+002,1.324048e+002
9.622123e+002,1.363625e+002
9.631765e+002,1.327155e+002
9.641407e+002,1.255059e+002
9.651050e+002,1.224657e+002
9.660692e+002,1.256847e+002
9.670334e+002,1.304287e+002
9.679977e+002,1.294131e+002
9.689619e+002,1.217267e+002
9.699261e+002,1.195951e+002
9.708904e+002,1.233904e+002
9.718546e+002,1.286946e+002
9.728188e+002,1.322366e+002
9.737831e+002,1.360598e+002
9.747473e+002,1.463744e+002
9.757115e+002,1.674967e+002
9.766758e+002,1.863334e+002
9.776400e+002,1.935474e+002
9.786042e+002,1.953840e+002
9.795685e+002,1.960134e+002
9.805327e+002,1.947811e+002
9.814969e+002,1.876959e+002
9.824612e+002,1.716763e+002
9.834254e+002,1.502720e+002
9.843896e+002,1.381200e+002
9.853539e+002,1.348181e+002
9.863181e+002,1.303431e+002
9.872823e+002,1.195276e+002
9.882466e+002,1.071816e+002
9.892108e+002,1.016366e+002
9.901750e+002,1.054896e+002
9.911393e+002,1.111206e+002
9.921035e+002,1.151055e+002
9.930677e+002,1.170706e+002
9.940320e+002,1.153198e+002
9.949962e+002,1.138964e+002
9.959604e+002,1.192522e+002
9.969247e+002,1.341715e+002
9.978889e+002,1.528870e+002
9.988531e+002,1.653746e+002
9.998174e+002,1.709397e+002
1.000782e+003,1.724962e+002
1.001746e+003,1.705876e+002
1.002710e+003,1.688853e+002
1.003674e+003,1.710603e+002
1.004639e+003,1.770775e+002
1.005603e+003,1.813558e+002
1.006567e+003,1.813817e+002
1.007531e+003,1.818378e+002
1.008495e+003,1.848955e+002
1.009460e+003,1.879960e+002
1.010424e+003,1.888506e+002
1.011388e+003,1.872804e+002
1.012352e+003,1.847092e+002
1.013317e+003,1.813766e+002
1.014281e+003,1.776954e+002
1.015245e+003,1.760409e+002
1.016209e+003,1.745951e+002
1.017174e+003,1.688756e+002
1.018138e+003,1.568186e+002
1.019102e+003,1.404894e+002
1.020066e+003,1.241283e+002
1.021031e+003,1.070236e+002
1.021995e+003,9.506885e+001
1.022959e+003,8.729114e+001
1.023923e+003,8.177649e+001
1.024887e+003,7.934814e+001
1.025852e+003,7.819678e+001
1.026816e+003,7.428540e+001
1.027780e+003,6.597864e+001
1.028744e+003,5.784351e+001
1.029709e+003,5.362146e+001
1.030673e+003,5.084253e+001
1.031637e+003,4.691687e+001
1.032601e+003,4.148901e+001
1.033566e+003,3.638428e+001
1.034530e+003,3.390393e+001
1.035494e+003,3.456165e+001
1.036458e+003,3.567700e+001
1.037422e+003,3.577576e+001
1.038387e+003,3.678796e+001
1.039351e+003,3.973694e+001
1.040315e+003,4.297546e+001
1.041279e+003,4.537256e+001
1.042244e+003,4.710364e+001
1.043208e+003,4.735388e+001
1.044172e+003,4.362585e+001
1.045136e+003,3.946814e+001
1.046101e+003,3.638306e+001
1.047065e+003,3.502502e+001
1.048029e+003,3.686218e+001
1.048993e+003,4.184119e+001
1.049958e+003,4.717700e+001
1.050922e+003,4.876672e+001
1.051886e+003,4.680017e+001
1.052850e+003,4.467505e+001
1.053814e+003,4.216284e+001
1.054779e+003,4.058997e+001
1.055743e+003,3.980994e+001
1.056707e+003,3.967163e+001
1.057671e+003,4.100256e+001
1.058636e+003,4.477490e+001
1.059600e+003,4.706543e+001
1.060564e+003,4.586243e+001
1.061528e+003,4.503113e+001
1.062493e+003,4.699597e+001
1.063457e+003,4.989758e+001
1.064421e+003,4.996912e+001
1.065385e+003,4.531567e+001
1.066349e+003,3.879443e+001
1.067314e+003,3.633203e+001
1.068278e+003,3.789856e+001
1.069242e+003,3.784985e+001
1.070206e+003,3.494568e+001
1.071171e+003,3.221313e+001
1.072135e+003,3.142334e+001
1.073099e+003,3.216016e+001
1.074063e+003,3.516602e+001
1.075028e+003,4.445166e+001
1.075992e+003,4.972937e+001
1.076956e+003,4.567078e+001
1.077920e+003,3.882898e+001
1.078885e+003,3.481201e+001
1.079849e+003,3.437219e+001
1.080813e+003,3.440527e+001
1.081777e+003,3.215247e+001
1.082741e+003,2.976160e+001
1.083706e+003,3.360852e+001
1.084670e+003,4.053870e+001
1.085634e+003,4.211499e+001
1.086598e+003,3.504919e+001
1.087563e+003,2.586145e+001
1.088527e+003,2.413525e+001
1.089491e+003,3.172522e+001
1.090455e+003,3.720825e+001
1.091420e+003,3.700452e+001
1.092384e+003,3.610986e+001
1.093348e+003,3.455334e+001
1.094312e+003,3.272986e+001
1.095276e+003,3.177869e+001
1.096241e+003,3.205200e+001
1.097205e+003,3.210864e+001
1.098169e+003,2.963049e+001
1.099133e+003,2.635059e+001
1.100098e+003,2.804102e+001
1.101062e+003,3.381042e+001
1.102026e+003,3.895874e+001
1.102990e+003,4.189221e+001
1.103955e+003,4.315356e+001
1.104919e+003,4.258911e+001
1.105883e+003,3.876208e+001
1.106847e+003,3.841760e+001
1.107812e+003,4.606958e+001
1.108776e+003,5.114502e+001
1.109740e+003,5.020032e+001
1.110704e+003,4.665613e+001
1.111668e+003,4.391260e+001
1.112633e+003,4.356506e+001
1.113597e+003,4.689941e+001
1.114561e+003,5.565381e+001
1.115525e+003,6.492688e+001
1.116490e+003,6.786694e+001
1.117454e+003,6.655725e+001
1.118418e+003,6.540564e+001
1.119382e+003,6.643945e+001
1.120347e+003,6.962537e+001
1.121311e+003,7.426660e+001
1.122275e+003,7.936938e+001
1.123239e+003,8.158606e+001
1.124203e+003,8.090808e+001
1.125168e+003,8.072583e+001
1.126132e+003,8.110645e+001
1.127096e+003,8.300903e+001
1.128060e+003,8.772375e+001
1.129025e+003,9.475977e+001
1.129989e+003,1.010187e+002
1.130953e+003,1.039824e+002
1.131917e+003,1.051523e+002
1.132882e+003,1.058162e+002
1.133846e+003,1.074622e+002
1.134810e+003,1.149147e+002
1.135774e+003,1.304802e+002
1.136739e+003,1.478563e+002
1.137703e+003,1.559917e+002
1.138667e+003,1.523242e+002
1.139631e+003,1.545002e+002
1.140595e+003,1.649508e+002
1.141560e+003,1.782231e+002
1.142524e+003,1.944982e+002
1.143488e+003,2.137798e+002
1.144452e+003,2.357000e+002
1.145417e+003,2.601057e+002
1.146381e+003,2.871029e+002
1.147345e+003,3.170828e+002
1.148309e+003,3.489670e+002
1.149274e+003,3.820801e+002
1.150238e+003,4.171794e+002
1.151202e+003,4.562244e+002
1.152166e+003,5.002919e+002
1.153130e+003,5.455618e+002
1.154095e+003,5.872520e+002
1.155059e+003,6.236835e+002
1.156023e+003,6.479768e+002
1.156987e+003,6.602361e+002
1.157952e+003,6.625516e+002
1.158916e+003,6.559536e+002
1.159880e+003,6.418281e+002
1.160844e+003,6.180282e+002
1.161809e+003,5.844786e+002
1.162773e+003,5.441653e+002
1.163737e+003,4.979274e+002
1.164701e+003,4.504247e+002
1.165666e+003,4.058447e+002
1.166630e+003,3.655626e+002
1.167594e+003,3.331559e+002
1.168558e+003,3.089841e+002
1.169522e+003,2.887631e+002
1.170487e+003,2.674950e+002
1.171451e+003,2.467924e+002
1.172415e+003,2.383800e+002
1.173379e+003,2.512114e+002
1.174344e+003,2.580946e+002
1.175308e+003,2.548713e+002
1.176272e+003,2.491115e+002
1.177236e+003,2.453680e+002
1.178201e+003,2.426956e+002
1.179165e+003,2.373712e+002
1.180129e+003,2.272969e+002
1.181093e+003,2.146722e+002
1.182057e+003,2.016862e+002
1.183022e+003,1.894713e+002
1.183986e+003,1.792205e+002
1.184950e+003,1.711256e+002
1.185914e+003,1.659380e+002
1.186879e+003,1.645499e+002
1.187843e+003,1.663514e+002
1.188807e+003,1.692917e+002
1.189771e+003,1.728718e+002
1.190736e+003,1.764817e+002
1.191700e+003,1.819637e+002
1.192664e+003,1.851569e+002
1.193628e+003,1.845583e+002
1.194593e+003,1.818356e+002
1.195557e+003,1.786488e+002
1.196521e+003,1.752550e+002
1.197485e+003,1.711580e+002
1.198449e+003,1.665696e+002
1.199414e+003,1.607734e+002
1.200378e+003,1.491097e+002
1.201342e+003,1.329656e+002
1.202306e+003,1.218730e+002
1.203271e+003,1.196061e+002
1.204235e+003,1.200336e+002
1.205199e+003,1.165657e+002
1.206163e+003,1.094926e+002
1.207128e+003,1.022010e+002
1.208092e+003,9.471252e+001
1.209056e+003,8.786902e+001
1.210020e+003,8.328320e+001
1.210984e+003,7.803723e+001
1.211949e+003,6.927087e+001
1.212913e+003,5.778760e+001
1.213877e+003,4.672168e+001
1.214841e+003,3.800891e+001
1.215806e+003,3.040308e+001
1.216770e+003,2.087915e+001
1.217734e+003,9.546509e+000
1.218698e+003,-2.286377e-001
1.219663e+003,-9.813843e+000
1.220627e+003,-1.546802e+001
1.221591e+003,-1.106226e+001
1.222555e+003,-2.571655e+000
1.223520e+003,-3.161011e+000
1.224484e+003,-1.435999e+001
1.225448e+003,-2.435315e+001
1.226412e+003,-2.986316e+001
1.227376e+003,-3.337256e+001
1.228341e+003,-3.632568e+001
1.229305e+003,-3.816797e+001
1.230269e+003,-3.688696e+001
1.231233e+003,-3.287842e+001
1.232198e+003,-2.960681e+001
1.233162e+003,-3.029883e+001
1.234126e+003,-3.331055e+001
1.235090e+003,-3.420215e+001
1.236055e+003,-3.391272e+001
1.237019e+003,-3.338098e+001
1.237983e+003,-3.185583e+001
1.238947e+003,-3.129175e+001
1.239911e+003,-3.296301e+001
1.240876e+003,-3.593469e+001
1.241840e+003,-3.861108e+001
1.242804e+003,-4.091956e+001
1.243768e+003,-4.141101e+001
1.244733e+003,-3.842480e+001
1.245697e+003,-3.414221e+001
1.246661e+003,-2.924670e+001
1.247625e+003,-2.492712e+001
1.248590e+003,-2.290540e+001
1.249554e+003,-2.323254e+001
1.250518e+003,-2.369080e+001
1.251482e+003,-2.201611e+001
1.252447e+003,-1.926843e+001
1.253411e+003,-1.636926e+001
1.254375e+003,-1.010522e+001
1.255339e+003,-5.699829e+000
1.256303e+003,-6.450806e+000
1.257268e+003,-6.490112e+000
1.258232e+003,3.366699e-001
1.259196e+003,1.158398e+001
1.260160e+003,1.838025e+001
1.261125e+003,1.696240e+001
1.262089e+003,1.438721e+001
1.263053e+003,1.675830e+001
1.264017e+003,2.107092e+001
1.264982e+003,2.557373e+001
1.265946e+003,3.026770e+001
1.266910e+003,3.424170e+001
1.267874e+003,3.686816e+001
1.268839e+003,3.720776e+001
1.269803e+003,3.281885e+001
1.270767e+003,2.208667e+001
1.271731e+003,1.567529e+001
1.272695e+003,1.897485e+001
1.273660e+003,2.033203e+001
1.274624e+003,1.497534e+001
1.275588e+003,6.974731e+000
1.276552e+003,4.664307e-001
1.277517e+003,-3.508789e+000
1.278481e+003,-5.963379e+000
1.279445e+003,-7.796509e+000
1.280409e+003,-9.651855e+000
1.281374e+003,-1.203540e+001
1.282338e+003,-1.455530e+001
1.283302e+003,-1.707886e+001
1.284266e+003,-2.010657e+001
1.285230e+003,-2.186157e+001
1.286195e+003,-1.992151e+001
1.287159e+003,-1.671375e+001
1.288123e+003,-1.712805e+001
1.289087e+003,-2.089392e+001
1.290052e+003,-2.387024e+001
1.291016e+003,-2.587671e+001
1.291980e+003,-2.755615e+001
1.292944e+003,-3.030457e+001
1.293909e+003,-3.281873e+001
1.294873e+003,-3.181189e+001
1.295837e+003,-2.782214e+001
1.296801e+003,-2.570740e+001
1.297766e+003,-2.919165e+001
1.298730e+003,-3.478699e+001
1.299694e+003,-3.385718e+001
1.300658e+003,-2.555737e+001
1.301622e+003,-2.209387e+001
1.302587e+003,-2.619531e+001
1.303551e+003,-2.942688e+001
1.304515e+003,-2.806677e+001
1.305479e+003,-2.420544e+001
1.306444e+003,-2.092175e+001
1.307408e+003,-1.883325e+001
1.308372e+003,-1.643921e+001
1.309336e+003,-1.196619e+001
1.310301e+003,-9.236328e+000
1.311265e+003,-1.279675e+001
1.312229e+003,-1.886597e+001
1.313193e+003,-2.401794e+001
1.314157e+003,-2.758301e+001
1.315122e+003,-2.886743e+001
1.316086e+003,-2.742310e+001
1.317050e+003,-2.550769e+001
1.318014e+003,-2.781445e+001
1.318979e+003,-3.482764e+001
1.319943e+003,-3.857239e+001
1.320907e+003,-3.832288e+001
1.321871e+003,-3.571802e+001
1.322836e+003,-3.008191e+001
1.323800e+003,-2.422205e+001
1.324764e+003,-2.063794e+001
1.325728e+003,-1.909668e+001
1.326693e+003,-1.744250e+001
1.327657e+003,-1.452515e+001
1.328621e+003,-1.224670e+001
1.329585e+003,-1.309729e+001
1.330549e+003,-1.492883e+001
1.331514e+003,-1.485339e+001
1.332478e+003,-1.475610e+001
1.333442e+003,-1.497119e+001
1.334406e+003,-1.367188e+001
1.335371e+003,-1.284814e+001
1.336335e+003,-1.721497e+001
1.337299e+003,-2.589868e+001
1.338263e+003,-2.846936e+001
1.339228e+003,-1.941772e+001
1.340192e+003,-1.188647e+001
1.341156e+003,-1.492908e+001
1.342120e+003,-1.909167e+001
1.343084e+003,-1.642993e+001
1.344049e+003,-1.001147e+001
1.345013e+003,-6.968140e+000
1.345977e+003,-9.645264e+000
1.346941e+003,-1.416125e+001
1.347906e+003,-1.631702e+001
1.348870e+003,-1.659387e+001
1.349834e+003,-1.655518e+001
1.350798e+003,-1.649377e+001
1.351763e+003,-1.682654e+001
1.352727e+003,-1.802844e+001
1.353691e+003,-1.885205e+001
1.354655e+003,-1.731726e+001
1.355620e+003,-1.495239e+001
1.356584e+003,-1.517603e+001
1.357548e+003,-1.856482e+001
1.358512e+003,-2.196155e+001
1.359476e+003,-2.419543e+001
1.360441e+003,-2.524463e+001
1.361405e+003,-2.274622e+001
1.362369e+003,-1.805896e+001
1.363333e+003,-1.607178e+001
1.364298e+003,-1.787939e+001
1.365262e+003,-1.991565e+001
1.366226e+003,-1.925256e+001
1.367190e+003,-1.692371e+001
1.368155e+003,-1.558862e+001
1.369119e+003,-1.514636e+001
1.370083e+003,-1.546387e+001
1.371047e+003,-1.812708e+001
1.372011e+003,-1.895923e+001
1.372976e+003,-1.585718e+001
1.373940e+003,-1.190833e+001
1.374904e+003,-9.585327e+000
1.375868e+003,-8.846680e+000
1.376833e+003,-8.472168e+000
1.377797e+003,-7.959229e+000
1.378761e+003,-8.253784e+000
1.379725e+003,-1.089575e+001
1.380690e+003,-1.598206e+001
1.381654e+003,-1.583142e+001
1.382618e+003,-5.218750e+000
1.383582e+003,1.818604e+000
1.384547e+003,7.542725e-001
1.385511e+003,-2.470093e+000
1.386475e+003,-4.388672e+000
1.387439e+003,-4.909424e+000
1.388403e+003,-3.496704e+000
1.389368e+003,1.129150e-001
1.390332e+003,1.957031e+000
1.391296e+003,-1.660889e+000
1.392260e+003,-7.001953e+000
1.393225e+003,-9.130615e+000
1.394189e+003,-9.284790e+000
1.395153e+003,-9.682251e+000
1.396117e+003,-1.062170e+001
1.397082e+003,-1.016443e+001
1.398046e+003,-5.476440e+000
1.399010e+003,1.767822e+000
1.399974e+003,4.557617e+000
1.400938e+003,8.920898e-001
1.401903e+003,-2.670410e+000
1.402867e+003,-1.533691e+000
1.403831e+003,6.667480e-001
1.404795e+003,4.345703e-001
1.405760e+003,-2.738037e-001
1.406724e+003,3.496094e-001
1.407688e+003,1.458984e+000
1.408652e+003,1.871338e+000
1.409617e+003,2.009399e+000
1.410581e+003,2.852295e+000
1.411545e+003,4.000854e+000
1.412509e+003,5.116577e+000
1.413474e+003,6.287720e+000
1.414438e+003,5.987183e+000
1.415402e+003,4.390869e+000
1.416366e+003,1.627930e+000
1.417330e+003,-1.907959e-001
1.418295e+003,4.118652e-001
1.419259e+003,2.626343e+000
1.420223e+003,5.099243e+000
1.421187e+003,7.005371e+000
1.422152e+003,6.976440e+000
1.423116e+003,3.994751e+000
1.424080e+003,1.396240e+000
1.425044e+003,3.536865e+000
1.426009e+003,7.766602e+000
1.426973e+003,1.106042e+001
1.427937e+003,1.364893e+001
1.428901e+003,1.585376e+001
1.429865e+003,1.812756e+001
1.430830e+003,2.011340e+001
1.431794e+003,2.067859e+001
1.432758e+003,1.972253e+001
1.433722e+003,1.931763e+001
1.434687e+003,2.033069e+001
1.435651e+003,2.431006e+001
1.436615e+003,3.279773e+001
1.437579e+003,3.919226e+001
1.438544e+003,3.895740e+001
1.439508e+003,3.467993e+001
1.440472e+003,3.055005e+001
1.441436e+003,2.863208e+001
1.442401e+003,2.993982e+001
1.443365e+003,3.529712e+001
1.444329e+003,4.259351e+001
1.445293e+003,4.486035e+001
1.446257e+003,4.007141e+001
1.447222e+003,3.765564e+001
1.448186e+003,3.916565e+001
1.449150e+003,3.983289e+001
1.450114e+003,3.752625e+001
1.451079e+003,3.442627e+001
1.452043e+003,3.270032e+001
1.453007e+003,3.271375e+001
1.453971e+003,3.424731e+001
1.454936e+003,3.670190e+001
1.455900e+003,3.793176e+001
1.456864e+003,3.573096e+001
1.457828e+003,3.165906e+001
1.458792e+003,2.980725e+001
1.459757e+003,2.939978e+001
1.460721e+003,2.855103e+001
1.461685e+003,2.676172e+001
1.462649e+003,2.512415e+001
1.463614e+003,2.486646e+001
1.464578e+003,2.546301e+001
1.465542e+003,2.588708e+001
1.466506e+003,2.573010e+001
1.467471e+003,2.443713e+001
1.468435e+003,2.198438e+001
1.469399e+003,2.113208e+001
1.470363e+003,2.338672e+001
1.471328e+003,2.651575e+001
1.472292e+003,2.940784e+001
1.473256e+003,3.179065e+001
1.474220e+003,3.320898e+001
1.475184e+003,3.427124e+001
1.476149e+003,3.604333e+001
1.477113e+003,3.962439e+001
1.478077e+003,4.345117e+001
1.479041e+003,4.241113e+001
1.480006e+003,3.549268e+001
1.480970e+003,3.315186e+001
1.481934e+003,3.986194e+001
1.482898e+003,4.634326e+001
1.483863e+003,4.887244e+001
1.484827e+003,4.938635e+001
1.485791e+003,4.884070e+001
1.486755e+003,4.878735e+001
1.487719e+003,5.156616e+001
1.488684e+003,5.760278e+001
1.489648e+003,6.471655e+001
1.490612e+003,7.128821e+001
1.491576e+003,7.798572e+001
1.492541e+003,8.331006e+001
1.493505e+003,8.439380e+001
1.494469e+003,8.818750e+001
1.495433e+003,9.523572e+001
1.496398e+003,1.019839e+002
1.497362e+003,1.080250e+002
1.498326e+003,1.150015e+002
1.499290e+003,1.237402e+002
1.500255e+003,1.343689e+002
1.501219e+003,1.467281e+002
1.502183e+003,1.605027e+002
1.503147e+003,1.752871e+002
1.504111e+003,1.909805e+002
1.505076e+003,2.080363e+002
1.506040e+003,2.269369e+002
1.507004e+003,2.462944e+002
1.507968e+003,2.722316e+002
1.508933e+003,3.079800e+002
1.509897e+003,3.464823e+002
1.510861e+003,3.857659e+002
1.511825e+003,4.284185e+002
1.512790e+003,4.765105e+002
1.513754e+003,5.287979e+002
1.514718e+003,5.837979e+002
1.515682e+003,6.406790e+002
1.516646e+003,6.974733e+002
1.517611e+003,7.542247e+002
1.518575e+003,8.094700e+002
1.519539e+003,8.605128e+002
1.520503e+003,9.073431e+002
1.521468e+003,9.460811e+002
1.522432e+003,9.751591e+002
1.523396e+003,9.934398e+002
1.524360e+003,1.001566e+003
1.525325e+003,9.974696e+002
1.526289e+003,9.750031e+002
1.527253e+003,9.368452e+002
1.528217e+003,8.991924e+002
1.529182e+003,8.677365e+002
1.530146e+003,8.301746e+002
1.531110e+003,7.778083e+002
1.532074e+003,7.156156e+002
1.533039e+003,6.460442e+002
1.534003e+003,5.712031e+002
1.534967e+003,4.957719e+002
1.535931e+003,4.225404e+002
1.536896e+003,3.561591e+002
1.537860e+003,2.987334e+002
1.538824e+003,2.509027e+002
1.539788e+003,2.147749e+002
1.540752e+003,1.887922e+002
1.541717e+003,1.644956e+002
1.542681e+003,1.419176e+002
1.543645e+003,1.234023e+002
1.544609e+003,1.103923e+002
1.545573e+003,1.018458e+002
1.546538e+003,9.832410e+001
1.547502e+003,9.699951e+001
1.548466e+003,9.566052e+001
1.549430e+003,9.465088e+001
1.550395e+003,9.575427e+001
1.551359e+003,9.934570e+001
1.552323e+003,1.014982e+002
1.553287e+003,9.670068e+001
1.554252e+003,8.578052e+001
1.555216e+003,7.649207e+001
1.556180e+003,6.938953e+001
1.557144e+003,6.346326e+001
1.558109e+003,5.794519e+001
1.559073e+003,5.474182e+001
1.560037e+003,5.567529e+001
1.561001e+003,5.658032e+001
1.561966e+003,5.437000e+001
1.562930e+003,5.094434e+001
1.563894e+003,4.913928e+001
1.564858e+003,4.955322e+001
1.565823e+003,5.206592e+001
1.566787e+003,5.720605e+001
1.567751e+003,6.343115e+001
1.568715e+003,6.559790e+001
1.569679e+003,6.332971e+001
1.570644e+003,6.072925e+001
1.571608e+003,5.492749e+001
1.572572e+003,5.163928e+001
1.573536e+003,5.441101e+001
1.574500e+003,5.827441e+001
1.575465e+003,5.915308e+001
1.576429e+003,5.893237e+001
1.577393e+003,6.119568e+001
1.578357e+003,6.581226e+001
1.579322e+003,6.976306e+001
1.580286e+003,7.162439e+001
1.581250e+003,7.274060e+001
1.582214e+003,7.411292e+001
1.583179e+003,7.529944e+001
1.584143e+003,7.694666e+001
1.585107e+003,7.910681e+001
1.586071e+003,8.046216e+001
1.587036e+003,8.304297e+001
1.588000e+003,8.500488e+001
1.588964e+003,8.324573e+001
1.589928e+003,8.078174e+001
1.590893e+003,8.204114e+001
1.591857e+003,8.590820e+001
1.592821e+003,8.747449e+001
1.593785e+003,8.534570e+001
1.594750e+003,8.355200e+001
1.595714e+003,8.510266e+001
1.596678e+003,8.928662e+001
1.597642e+003,9.631763e+001
1.598606e+003,1.067305e+002
1.599571e+003,1.126149e+002
1.600535e+003,1.125304e+002
1.601499e+003,1.122997e+002
1.602463e+003,1.122522e+002
1.603427e+003,1.128649e+002
1.604392e+003,1.164069e+002
1.605356e+003,1.200715e+002
1.606320e+003,1.183384e+002
1.607284e+003,1.114111e+002
1.608249e+003,1.048386e+002
1.609213e+003,1.013237e+002
1.610177e+003,9.914575e+001
1.611141e+003,9.638232e+001
1.612106e+003,9.361133e+001
1.613070e+003,9.275476e+001
1.614034e+003,9.363831e+001
1.614998e+003,9.465039e+001
1.615963e+003,9.600354e+001
1.616927e+003,9.754736e+001
1.617891e+003,9.926489e+001
1.618855e+003,1.003837e+002
1.619820e+003,9.958618e+001
1.620784e+003,9.690466e+001
1.621748e+003,9.365161e+001
1.622712e+003,9.144653e+001
1.623677e+003,9.275757e+001
1.624641e+003,9.893738e+001
1.625605e+003,1.061296e+002
1.626569e+003,1.091287e+002
1.627533e+003,1.072704e+002
1.628498e+003,1.027351e+002
1.629462e+003,9.601306e+001
1.630426e+003,9.258569e+001
1.631390e+003,9.628931e+001
1.632354e+003,1.003406e+002
1.633319e+003,1.002094e+002
1.634283e+003,9.828345e+001
1.635247e+003,9.785596e+001
1.636211e+003,9.861560e+001
1.637176e+003,9.882031e+001
1.638140e+003,9.823999e+001
1.639104e+003,9.699182e+001
1.640068e+003,9.443921e+001
1.641033e+003,9.191785e+001
1.641997e+003,9.225989e+001
1.642961e+003,9.518164e+001
1.643925e+003,9.750085e+001
1.644890e+003,9.931958e+001
1.645854e+003,1.005111e+002
1.646818e+003,9.947900e+001
1.647782e+003,9.855920e+001
1.648747e+003,1.001731e+002
1.649711e+003,1.024121e+002
1.650675e+003,1.023802e+002
1.651639e+003,1.008368e+002
1.652604e+003,1.007650e+002
1.653568e+003,1.026860e+002
1.654532e+003,1.041311e+002
1.655496e+003,1.038152e+002
1.656460e+003,1.014506e+002
1.657425e+003,9.559534e+001
1.658389e+003,8.752478e+001
1.659353e+003,8.336084e+001
1.660317e+003,8.365686e+001
1.661281e+003,8.442029e+001
1.662246e+003,8.542920e+001
1.663210e+003,8.518787e+001
1.664174e+003,8.222070e+001
1.665138e+003,7.836121e+001
1.666103e+003,7.555859e+001
1.667067e+003,7.377942e+001
1.668031e+003,7.298083e+001
1.668995e+003,7.335571e+001
1.669960e+003,7.378833e+001
1.670924e+003,7.350183e+001
1.671888e+003,7.253101e+001
1.672852e+003,6.961438e+001
1.673817e+003,6.466089e+001
1.674781e+003,6.399487e+001
1.675745e+003,6.987219e+001
1.676709e+003,7.317480e+001
1.677674e+003,7.043933e+001
1.678638e+003,6.603979e+001
1.679602e+003,6.148889e+001
1.680566e+003,5.787146e+001
1.681531e+003,5.743994e+001
1.682495e+003,5.957458e+001
1.683459e+003,6.109094e+001
1.684423e+003,6.049524e+001
1.685387e+003,5.820300e+001
1.686352e+003,5.493323e+001
1.687316e+003,5.109485e+001
1.688280e+003,4.601648e+001
1.689244e+003,3.962732e+001
1.690208e+003,3.814380e+001
1.691173e+003,4.403137e+001
1.692137e+003,4.692749e+001
1.693101e+003,4.423315e+001
1.694065e+003,4.207495e+001
1.695030e+003,4.246094e+001
1.695994e+003,4.339380e+001
1.696958e+003,4.435315e+001
1.697922e+003,4.467383e+001
1.698887e+003,4.198157e+001
1.699851e+003,3.624792e+001
1.700815e+003,3.157056e+001
1.701779e+003,3.091565e+001
1.702744e+003,3.268140e+001
1.703708e+003,3.450146e+001
1.704672e+003,3.668665e+001
1.705636e+003,3.734753e+001
1.706601e+003,3.345776e+001
1.707565e+003,3.158691e+001
1.708529e+003,3.404639e+001
1.709493e+003,3.643201e+001
1.710458e+003,3.826404e+001
1.711422e+003,3.874487e+001
1.712386e+003,3.690674e+001
1.713350e+003,3.433386e+001
1.714314e+003,3.313928e+001
1.715279e+003,3.261304e+001
1.716243e+003,2.955432e+001
1.717207e+003,2.293176e+001
1.718171e+003,1.683801e+001
1.719135e+003,1.610510e+001
1.720100e+003,1.925439e+001
1.721064e+003,2.006970e+001
1.722028e+003,1.769275e+001
1.722992e+003,1.551917e+001
1.723957e+003,1.386816e+001
1.724921e+003,1.390308e+001
1.725885e+003,1.724316e+001
1.726849e+003,1.789429e+001
1.727814e+003,1.063220e+001
1.728778e+003,2.789185e+000
1.729742e+003,3.369507e+000
1.730706e+003,1.018030e+001
1.731671e+003,1.419434e+001
1.732635e+003,1.163513e+001
1.733599e+003,7.502808e+000
1.734563e+003,7.680054e+000
1.735528e+003,1.121753e+001
1.736492e+003,1.367944e+001
1.737456e+003,1.466150e+001
1.738420e+003,1.341443e+001
1.739385e+003,7.933472e+000
1.740349e+003,3.799072e+000
1.741313e+003,3.431519e+000
1.742277e+003,4.378662e+000
1.743241e+003,7.113281e+000
1.744206e+003,9.690430e+000
1.745170e+003,9.618164e+000
1.746134e+003,7.428589e+000
1.747098e+003,4.203369e+000
1.748063e+003,5.543213e-001
1.749027e+003,-3.186035e-001
1.749991e+003,4.658936e+000
1.750955e+003,1.021741e+001
1.751919e+003,9.380371e+000
1.752884e+003,3.960693e+000
1.753848e+003,-1.769165e+000
1.754812e+003,-7.523926e+000
1.755776e+003,-9.440430e+000
1.756741e+003,-5.495361e+000
1.757705e+003,-1.258911e+000
1.758669e+003,9.033203e-002
1.759633e+003,-4.779053e-001
1.760598e+003,-3.208740e+000
1.761562e+003,-6.652100e+000
1.762526e+003,-6.386475e+000
1.763490e+003,-2.011353e+000
1.764455e+003,2.581665e+000
1.765419e+003,7.534790e+000
1.766383e+003,1.093604e+001
1.767347e+003,9.262207e+000
1.768312e+003,6.514282e+000
1.769276e+003,7.159302e+000
1.770240e+003,8.739624e+000
1.771204e+003,7.300171e+000
1.772168e+003,3.635010e+000
1.773133e+003,2.243652e-001
1.774097e+003,-2.334229e+000
1.775061e+003,-3.093506e+000
1.776025e+003,-1.120972e+000
1.776990e+003,9.364014e-001
1.777954e+003,-1.248779e+000
1.778918e+003,-6.076538e+000
1.779882e+003,-4.445557e+000
1.780846e+003,8.052979e+000
1.781811e+003,1.275391e+001
1.782775e+003,3.596802e+000
1.783739e+003,-3.652954e+000
1.784703e+003,-2.838257e+000
1.785668e+003,4.904785e-001
1.786632e+003,2.433716e+000
1.787596e+003,2.532349e+000
1.788560e+003,9.997559e-001
1.789525e+003,-8.853760e-001
1.790489e+003,-9.709473e-001
1.791453e+003,1.408081e+000
1.792417e+003,4.567627e+000
1.793382e+003,6.634277e+000
1.794346e+003,7.106079e+000
1.795310e+003,5.205322e+000
1.796274e+003,9.609375e-001
1.797239e+003,1.185913e+000
1.798203e+003,8.695068e+000
1.799167e+003,1.519824e+001
1.800131e+003,1.902783e+001
1.801095e+003,1.836169e+001
1.802060e+003,1.003979e+001
1.803024e+003,2.064331e+000
1.803988e+003,9.754639e-001
1.804952e+003,3.675171e+000
1.805917e+003,5.070313e+000
1.806881e+003,4.245483e+000
1.807845e+003,1.793091e+000
1.808809e+003,-2.237305e+000
1.809773e+003,-4.429443e+000
1.810738e+003,6.982422e-002
1.811702e+003,6.804077e+000
1.812666e+003,7.559570e+000
1.813630e+003,3.825073e+000
1.814595e+003,1.524414e+000
1.815559e+003,1.150146e+000
1.816523e+003,1.462891e+000
1.817487e+003,2.568970e+000
1.818452e+003,2.698486e+000
1.819416e+003,-2.302246e-001
1.820380e+003,-3.362305e+000
1.821344e+003,-2.112915e+000
1.822309e+003,2.569092e+000
1.823273e+003,6.970215e+000
1.824237e+003,1.256665e+001
1.825201e+003,1.556287e+001
1.826166e+003,1.261426e+001
1.827130e+003,9.952881e+000
1.828094e+003,9.960938e+000
1.829058e+003,1.034326e+001
1.830022e+003,1.032996e+001
1.830987e+003,9.607178e+000
1.831951e+003,6.635986e+000
1.832915e+003,2.414551e+000
1.833879e+003,7.976074e-001
1.834844e+003,3.255493e+000
1.835808e+003,6.528320e+000
1.836772e+003,7.386597e+000
1.837736e+003,7.444824e+000
1.838700e+003,1.076624e+001
1.839665e+003,1.664954e+001
1.840629e+003,1.573486e+001
1.841593e+003,5.370483e+000
1.842557e+003,-1.120605e-001
1.843522e+003,3.851318e+000
1.844486e+003,7.152710e+000
1.845450e+003,5.911987e+000
1.846414e+003,4.380005e+000
1.847379e+003,4.131836e+000
1.848343e+003,3.555054e+000
1.849307e+003,9.388428e-001
1.850271e+003,-2.030762e+000
1.851236e+003,-1.249268e+000
1.852200e+003,4.516846e+000
1.853164e+003,9.782471e+000
1.854128e+003,9.994385e+000
1.855093e+003,7.885376e+000
1.856057e+003,7.408813e+000
1.857021e+003,7.784790e+000
1.857985e+003,5.560791e+000
1.858949e+003,1.841675e+000
1.859914e+003,2.694824e+000
1.860878e+003,9.143188e+000
1.861842e+003,1.481653e+001
1.862806e+003,1.616345e+001
1.863771e+003,1.470642e+001
1.864735e+003,1.158899e+001
1.865699e+003,7.855591e+000
1.866663e+003,7.406372e+000
1.867627e+003,1.152039e+001
1.868592e+003,1.462598e+001
1.869556e+003,1.448157e+001
1.870520e+003,1.303674e+001
1.871484e+003,9.118286e+000
1.872449e+003,6.459595e+000
1.873413e+003,9.606689e+000
1.874377e+003,1.461108e+001
1.875341e+003,1.626831e+001
1.876306e+003,1.579700e+001
1.877270e+003,1.608594e+001
1.878234e+003,1.744092e+001
1.879198e+003,1.985010e+001
1.880163e+003,2.325659e+001
1.881127e+003,2.431702e+001
1.882091e+003,1.982898e+001
1.883055e+003,1.326099e+001
1.884020e+003,8.787598e+000
1.884984e+003,6.437744e+000
1.885948e+003,7.519409e+000
1.886912e+003,1.155505e+001
1.887876e+003,1.283447e+001
1.888841e+003,1.014771e+001
1.889805e+003,8.475098e+000
1.890769e+003,1.024280e+001
1.891733e+003,1.291699e+001
1.892698e+003,1.372107e+001
1.893662e+003,1.329883e+001
1.894626e+003,1.458521e+001
1.895590e+003,1.808521e+001
1.896554e+003,2.030957e+001
1.897519e+003,2.142102e+001
1.898483e+003,2.221252e+001
1.899447e+003,2.126697e+001
1.900411e+003,1.992908e+001
1.901376e+003,1.861890e+001
1.902340e+003,1.787463e+001
1.903304e+003,1.824792e+001
1.904268e+003,1.896875e+001
1.905233e+003,1.960071e+001
1.906197e+003,2.012219e+001
1.907161e+003,1.993579e+001
1.908125e+003,1.914307e+001
1.909090e+003,1.949756e+001
1.910054e+003,2.187915e+001
1.911018e+003,2.450562e+001
1.911982e+003,2.625818e+001
1.912947e+003,2.746411e+001
1.913911e+003,2.691980e+001
1.914875e+003,2.478394e+001
1.915839e+003,2.344666e+001
1.916803e+003,2.256128e+001
1.917768e+003,2.324353e+001
1.918732e+003,2.691626e+001
1.919696e+003,3.052466e+001
1.920660e+003,3.200195e+001
1.921625e+003,3.257654e+001
1.922589e+003,3.333728e+001
1.923553e+003,3.357092e+001
1.924517e+003,3.273450e+001
1.925481e+003,3.118677e+001
1.926446e+003,3.009094e+001
1.927410e+003,2.918030e+001
1.928374e+003,2.887183e+001
1.929338e+003,2.951514e+001
1.930303e+003,2.960608e+001
1.931267e+003,2.876331e+001
1.932231e+003,2.851636e+001
1.933195e+003,2.940247e+001
1.934160e+003,3.083411e+001
1.935124e+003,3.312488e+001
1.936088e+003,3.521460e+001
1.937052e+003,3.370361e+001
1.938017e+003,2.795178e+001
1.938981e+003,2.319336e+001
1.939945e+003,2.350403e+001
1.940909e+003,2.615613e+001
1.941874e+003,2.722412e+001
1.942838e+003,2.701111e+001
1.943802e+003,2.776025e+001
1.944766e+003,2.999683e+001
1.945730e+003,3.145374e+001
1.946695e+003,3.115588e+001
1.947659e+003,3.158655e+001
1.948623e+003,3.408362e+001
1.949587e+003,3.589099e+001
1.950552e+003,3.492102e+001
1.951516e+003,3.239795e+001
1.952480e+003,2.911292e+001
1.953444e+003,2.508862e+001
1.954408e+003,2.510181e+001
1.955373e+003,3.156177e+001
1.956337e+003,3.374622e+001
1.957301e+003,2.922498e+001
1.958265e+003,2.685193e+001
1.959230e+003,2.968018e+001
1.960194e+003,3.318591e+001
1.961158e+003,3.386951e+001
1.962122e+003,3.321619e+001
1.963087e+003,3.383850e+001
1.964051e+003,3.522473e+001
1.965015e+003,3.567676e+001
1.965979e+003,3.520728e+001
1.966944e+003,3.404797e+001
1.967908e+003,3.141724e+001
1.968872e+003,2.984363e+001
1.969836e+003,3.260583e+001
1.970801e+003,3.632776e+001
1.971765e+003,3.744116e+001
1.972729e+003,3.757397e+001
1.973693e+003,3.943628e+001
1.974657e+003,4.231055e+001
1.975622e+003,4.345911e+001
1.976586e+003,4.251160e+001
1.977550e+003,4.142932e+001
1.978514e+003,4.131970e+001
1.979479e+003,4.256506e+001
1.980443e+003,4.555444e+001
1.981407e+003,4.840125e+001
1.982371e+003,4.746814e+001
1.983335e+003,4.367322e+001
1.984300e+003,4.134741e+001
1.985264e+003,3.977063e+001
1.986228e+003,4.115137e+001
1.987192e+003,4.676172e+001
1.988157e+003,5.119360e+001
1.989121e+003,5.384741e+001
1.990085e+003,5.435571e+001
1.991049e+003,5.142090e+001
1.992014e+003,4.785547e+001
1.992978e+003,4.561511e+001
1.993942e+003,4.470532e+001
1.994906e+003,4.700366e+001
1.995871e+003,5.244543e+001
1.996835e+003,5.408362e+001
1.997799e+003,4.895081e+001
1.998763e+003,4.708044e+001
1.999728e+003,5.289587e+001
