5.003444e+002,4.134334e+001
5.013087e+002,3.943179e+001
5.022729e+002,3.971205e+001
5.032371e+002,4.148660e+001
5.042014e+002,4.182828e+001
5.051656e+002,4.095146e+001
5.061298e+002,3.958751e+001
5.070941e+002,3.831546e+001
5.080583e+002,3.704776e+001
5.090225e+002,3.614597e+001
5.099868e+002,3.593774e+001
5.109510e+002,3.563081e+001
5.119152e+002,3.453163e+001
5.128795e+002,3.252946e+001
5.138437e+002,3.143271e+001
5.148079e+002,3.260999e+001
5.157722e+002,3.415497e+001
5.167364e+002,3.569070e+001
5.177006e+002,3.686913e+001
5.186649e+002,3.720401e+001
5.196291e+002,3.549722e+001
5.205933e+002,3.314336e+001
5.215576e+002,3.156474e+001
5.225218e+002,3.083698e+001
5.234860e+002,3.050745e+001
5.244503e+002,2.984689e+001
5.254145e+002,2.883456e+001
5.263787e+002,2.811971e+001
5.273430e+002,2.768161e+001
5.283072e+002,2.754539e+001
5.292714e+002,2.780443e+001
5.302357e+002,2.870364e+001
5.311999e+002,2.914520e+001
5.321641e+002,2.924969e+001
5.331284e+002,2.900276e+001
5.340926e+002,2.821623e+001
5.350568e+002,2.673550e+001
5.360211e+002,2.511148e+001
5.369853e+002,2.343947e+001
5.379495e+002,2.226857e+001
5.389138e+002,2.246869e+001
5.398780e+002,2.416438e+001
5.408422e+002,2.644240e+001
5.418065e+002,2.656253e+001
5.427707e+002,2.486641e+001
5.437349e+002,2.371069e+001
5.446992e+002,2.381041e+001
5.456634e+002,2.476128e+001
5.466276e+002,2.516750e+001
5.475919e+002,2.455678e+001
5.485561e+002,2.396576e+001
5.495203e+002,2.310199e+001
5.504846e+002,2.231607e+001
5.514488e+002,2.236145e+001
5.524130e+002,2.427670e+001
5.533773e+002,2.534091e+001
5.543415e+002,2.375334e+001
5.553057e+002,2.105484e+001
5.562700e+002,1.868613e+001
5.572342e+002,1.752133e+001
5.581984e+002,1.717488e+001
5.591627e+002,1.653102e+001
5.601269e+002,1.594333e+001
5.610911e+002,1.655205e+001
5.620554e+002,1.906348e+001
5.630196e+002,2.301399e+001
5.639838e+002,2.440512e+001
5.649481e+002,2.146339e+001
5.659123e+002,1.860207e+001
5.668765e+002,1.619142e+001
5.678408e+002,1.444424e+001
5.688050e+002,1.392342e+001
5.697692e+002,1.563423e+001
5.707335e+002,1.724597e+001
5.716977e+002,1.852788e+001
5.726619e+002,1.920947e+001
5.736262e+002,1.883565e+001
5.745904e+002,1.693111e+001
5.755546e+002,1.460872e+001
5.765189e+002,1.340872e+001
5.774831e+002,1.298640e+001
5.784473e+002,1.300485e+001
5.794116e+002,1.326950e+001
5.803758e+002,1.378178e+001
5.813400e+002,1.378177e+001
5.823043e+002,1.301314e+001
5.832685e+002,1.225056e+001
5.842327e+002,1.175294e+001
5.851970e+002,1.157214e+001
5.861612e+002,1.170076e+001
5.871254e+002,1.228511e+001
5.880897e+002,1.295067e+001
5.890539e+002,1.402855e+001
5.900181e+002,1.501753e+001
5.909824e+002,1.508405e+001
5.919466e+002,1.347229e+001
5.929108e+002,1.132872e+001
5.938751e+002,9.511826e+000
5.948393e+002,8.190948e+000
5.958035e+002,7.827637e+000
5.967678e+002,8.742218e+000
5.977320e+002,1.069655e+001
5.986962e+002,1.157669e+001
5.996605e+002,1.137947e+001
6.006247e+002,1.082825e+001
6.015889e+002,9.919769e+000
6.025532e+002,8.744476e+000
6.035174e+002,8.444916e+000
6.044816e+002,1.003758e+001
6.054459e+002,1.152895e+001
6.064101e+002,1.290207e+001
6.073743e+002,1.393385e+001
6.083386e+002,1.427855e+001
6.093028e+002,1.357689e+001
6.102670e+002,1.247876e+001
6.112313e+002,1.113657e+001
6.121955e+002,9.913742e+000
6.131597e+002,9.386551e+000
6.141240e+002,9.927338e+000
6.150882e+002,1.116435e+001
6.160524e+002,1.151733e+001
6.170167e+002,1.118544e+001
6.179809e+002,1.079573e+001
6.189451e+002,1.055899e+001
6.199094e+002,1.042415e+001
6.208736e+002,1.029613e+001
6.218378e+002,1.042596e+001
6.228021e+002,1.042635e+001
6.237663e+002,1.035199e+001
6.247305e+002,1.013084e+001
6.256948e+002,9.553589e+000
6.266590e+002,8.273987e+000
6.276232e+002,7.036057e+000
6.285875e+002,5.929855e+000
6.295517e+002,5.351349e+000
6.305159e+002,5.978012e+000
6.314802e+002,8.070694e+000
6.324444e+002,1.078207e+001
6.334086e+002,1.199640e+001
6.343729e+002,1.210481e+001
6.353371e+002,1.132922e+001
6.363013e+002,9.527817e+000
6.372656e+002,7.115707e+000
6.382298e+002,5.653862e+000
6.391940e+002,6.118988e+000
6.401583e+002,6.306564e+000
6.411225e+002,5.954338e+000
6.420867e+002,5.584412e+000
6.430510e+002,5.973663e+000
6.440152e+002,7.666618e+000
6.449794e+002,8.610626e+000
6.459437e+002,7.443008e+000
6.469079e+002,5.511513e+000
6.478721e+002,3.597672e+000
6.488364e+002,2.122910e+000
6.498006e+002,1.233238e+000
6.507648e+002,1.516006e+000
6.517291e+002,2.482590e+000
6.526933e+002,2.848824e+000
6.536575e+002,2.322945e+000
6.546218e+002,1.623962e+000
6.555860e+002,2.217728e+000
6.565502e+002,5.279320e+000
6.575145e+002,7.047714e+000
6.584787e+002,7.110886e+000
6.594429e+002,6.428291e+000
6.604072e+002,5.559875e+000
6.613714e+002,4.531036e+000
6.623356e+002,3.780495e+000
6.632999e+002,3.463013e+000
6.642641e+002,3.409775e+000
6.652283e+002,3.574684e+000
6.661926e+002,4.009094e+000
6.671568e+002,4.959747e+000
6.681210e+002,7.081657e+000
6.690853e+002,9.419815e+000
6.700495e+002,9.552719e+000
6.710137e+002,7.562935e+000
6.719780e+002,5.064514e+000
6.729422e+002,3.687500e+000
6.739064e+002,3.500908e+000
6.748707e+002,4.133858e+000
6.758349e+002,6.616409e+000
6.767991e+002,8.476578e+000
6.777634e+002,8.474876e+000
6.787276e+002,6.875565e+000
6.796918e+002,5.415115e+000
6.806561e+002,4.658653e+000
6.816203e+002,4.089355e+000
6.825845e+002,3.200989e+000
6.835488e+002,2.419868e+000
6.845130e+002,2.779114e+000
6.854772e+002,5.266525e+000
6.864415e+002,8.254601e+000
6.874057e+002,7.431320e+000
6.883699e+002,3.999176e+000
6.893342e+002,1.116806e+000
6.902984e+002,5.845871e-001
6.912626e+002,2.088432e+000
6.922269e+002,3.271492e+000
6.931911e+002,4.508469e+000
6.941553e+002,5.079269e+000
6.951196e+002,4.145653e+000
6.960838e+002,2.634987e+000
6.970480e+002,2.254486e+000
6.980123e+002,4.035751e+000
6.989765e+002,5.286934e+000
6.999407e+002,4.447083e+000
7.009050e+002,3.045837e+000
7.018692e+002,2.098724e+000
7.028334e+002,2.032181e+000
7.037977e+002,2.746109e+000
7.047619e+002,4.756386e+000
7.057261e+002,7.294861e+000
7.066904e+002,8.514191e+000
7.076546e+002,8.105995e+000
7.086188e+002,6.944519e+000
7.095831e+002,6.423141e+000
7.105473e+002,6.896538e+000
7.115115e+002,6.725693e+000
7.124758e+002,5.487671e+000
7.134400e+002,4.123161e+000
7.144042e+002,3.032585e+000
7.153685e+002,2.295555e+000
7.163327e+002,2.199890e+000
7.172969e+002,3.838417e+000
7.182612e+002,5.305771e+000
7.192254e+002,5.667130e+000
7.201896e+002,5.189568e+000
7.211539e+002,4.626434e+000
7.221181e+002,4.634171e+000
7.230823e+002,4.860100e+000
7.240466e+002,4.201599e+000
7.250108e+002,2.939529e+000
7.259750e+002,1.959770e+000
7.269393e+002,1.743065e+000
7.279035e+002,2.112831e+000
7.288677e+002,2.205971e+000
7.298320e+002,1.690048e+000
7.307962e+002,1.624855e+000
7.317604e+002,2.504440e+000
7.327247e+002,3.725395e+000
7.336889e+002,4.320618e+000
7.346531e+002,3.750916e+000
7.356174e+002,3.090836e+000
7.365816e+002,3.098686e+000
7.375458e+002,3.408073e+000
7.385101e+002,3.925842e+000
7.394743e+002,4.499664e+000
7.404385e+002,4.793350e+000
7.414028e+002,4.104385e+000
7.423670e+002,2.537689e+000
7.433312e+002,1.304192e+000
7.442955e+002,5.562668e-001
7.452597e+002,4.954453e-001
7.462239e+002,1.580948e+000
7.471882e+002,4.417458e+000
7.481524e+002,5.484299e+000
7.491166e+002,2.970665e+000
7.500809e+002,8.686447e-001
7.510451e+002,9.769211e-001
7.520093e+002,2.827728e+000
7.529736e+002,4.493698e+000
7.539378e+002,5.424728e+000
7.549020e+002,5.519089e+000
7.558663e+002,4.010551e+000
7.568306e+002,2.005211e+000
7.577948e+002,1.136642e+000
7.587590e+002,2.294975e+000
7.597233e+002,4.540634e+000
7.606875e+002,5.137405e+000
7.616517e+002,4.345200e+000
7.626160e+002,3.542076e+000
7.635802e+002,2.920609e+000
7.645444e+002,2.643211e+000
7.655087e+002,3.162361e+000
7.664729e+002,5.154259e+000
7.674371e+002,6.378204e+000
7.684014e+002,6.391609e+000
7.693656e+002,6.026291e+000
7.703298e+002,5.753342e+000
7.712941e+002,5.665596e+000
7.722583e+002,5.601456e+000
7.732225e+002,5.274132e+000
7.741868e+002,5.105354e+000
7.751510e+002,5.747131e+000
7.761152e+002,6.846191e+000
7.770795e+002,7.499748e+000
7.780437e+002,6.890839e+000
7.790079e+002,5.204430e+000
7.799722e+002,4.162476e+000
7.809364e+002,3.718292e+000
7.819006e+002,3.557472e+000
7.828649e+002,3.799477e+000
7.838291e+002,4.322502e+000
7.847933e+002,4.535049e+000
7.857576e+002,3.820282e+000
7.867218e+002,3.652084e+000
7.876860e+002,4.958336e+000
7.886503e+002,6.491364e+000
7.896145e+002,7.135124e+000
7.905787e+002,6.628510e+000
7.915430e+002,5.836975e+000
7.925072e+002,5.546455e+000
7.934714e+002,5.438499e+000
7.944357e+002,5.385208e+000
7.953999e+002,5.348846e+000
7.963641e+002,5.072090e+000
7.973284e+002,4.183556e+000
7.982926e+002,2.589897e+000
7.992568e+002,2.498955e+000
8.002211e+002,4.706520e+000
8.011853e+002,6.330879e+000
8.021495e+002,6.152634e+000
8.031138e+002,4.724434e+000
8.040780e+002,3.689873e+000
8.050422e+002,3.269096e+000
8.060065e+002,3.224312e+000
8.069707e+002,3.432465e+000
8.079349e+002,3.841850e+000
8.088992e+002,4.382362e+000
8.098634e+002,5.082924e+000
8.108276e+002,6.205391e+000
8.117919e+002,8.756165e+000
8.127561e+002,1.152397e+001
8.137203e+002,1.185009e+001
8.146846e+002,9.572189e+000
8.156488e+002,6.936508e+000
8.166130e+002,6.802658e+000
8.175773e+002,9.883194e+000
8.185415e+002,1.097572e+001
8.195057e+002,8.281303e+000
8.204700e+002,6.066269e+000
8.214342e+002,6.290710e+000
8.223984e+002,8.082077e+000
8.233627e+002,8.881775e+000
8.243269e+002,7.241821e+000
8.252911e+002,5.755028e+000
8.262554e+002,6.008369e+000
8.272196e+002,7.069283e+000
8.281838e+002,7.947876e+000
8.291481e+002,8.301186e+000
8.301123e+002,8.710693e+000
8.310765e+002,1.055719e+001
8.320408e+002,1.341492e+001
8.330050e+002,1.333160e+001
8.339692e+002,9.403000e+000
8.349335e+002,4.752983e+000
8.358977e+002,2.687996e+000
8.368619e+002,3.626183e+000
8.378262e+002,4.305847e+000
8.387904e+002,4.319313e+000
8.397546e+002,4.298523e+000
8.407189e+002,4.367729e+000
8.416831e+002,4.528061e+000
8.426473e+002,4.823792e+000
8.436116e+002,5.360260e+000
8.445758e+002,5.708435e+000
8.455400e+002,4.823700e+000
8.465043e+002,3.637489e+000
8.474685e+002,3.477783e+000
8.484327e+002,4.670021e+000
8.493970e+002,6.416916e+000
8.503612e+002,7.271881e+000
8.513254e+002,6.985329e+000
8.522897e+002,7.404945e+000
8.532539e+002,9.160988e+000
8.542181e+002,1.063231e+001
8.551824e+002,1.054259e+001
8.561466e+002,9.229073e+000
8.571108e+002,9.004028e+000
8.580751e+002,1.136214e+001
8.590393e+002,1.313610e+001
8.600035e+002,1.309920e+001
8.609678e+002,1.222073e+001
8.619320e+002,1.159725e+001
8.628962e+002,1.166588e+001
8.638605e+002,1.190344e+001
8.648247e+002,1.119286e+001
8.657889e+002,1.020699e+001
8.667532e+002,1.082561e+001
8.677174e+002,1.328113e+001
8.686816e+002,1.574026e+001
8.696459e+002,1.601428e+001
8.706101e+002,1.377458e+001
8.715743e+002,1.207560e+001
8.725386e+002,1.022493e+001
8.735028e+002,9.692871e+000
8.744670e+002,1.180875e+001
8.754313e+002,1.518459e+001
8.763955e+002,1.714708e+001
8.773597e+002,1.645434e+001
8.783240e+002,1.576312e+001
8.792882e+002,1.751880e+001
8.802524e+002,1.976318e+001
8.812167e+002,2.068787e+001
8.821809e+002,2.004440e+001
8.831451e+002,1.889523e+001
8.841094e+002,1.863629e+001
8.850736e+002,1.927989e+001
8.860378e+002,1.944978e+001
8.870021e+002,1.895079e+001
8.879663e+002,1.855869e+001
8.889305e+002,1.894736e+001
8.898948e+002,1.983432e+001
8.908590e+002,1.972299e+001
8.918232e+002,1.710687e+001
8.927875e+002,1.608164e+001
8.937517e+002,1.855013e+001
8.947159e+002,2.198535e+001
8.956802e+002,2.444462e+001
8.966444e+002,2.536690e+001
8.976086e+002,2.527023e+001
8.985729e+002,2.424300e+001
8.995371e+002,2.305528e+001
9.005013e+002,2.297276e+001
9.014656e+002,2.389513e+001
9.024298e+002,2.505768e+001
9.033940e+002,2.586572e+001
9.043583e+002,2.628016e+001
9.053225e+002,2.648537e+001
9.062867e+002,2.661218e+001
9.072510e+002,2.616855e+001
9.082152e+002,2.440570e+001
9.091794e+002,2.273024e+001
9.101437e+002,2.277051e+001
9.111079e+002,2.479491e+001
9.120721e+002,2.672807e+001
9.130364e+002,2.738557e+001
9.140006e+002,2.738184e+001
9.149648e+002,2.679808e+001
9.159291e+002,2.595782e+001
9.168933e+002,2.528197e+001
9.178575e+002,2.503131e+001
9.188218e+002,2.507646e+001
9.197860e+002,2.516756e+001
9.207502e+002,2.527890e+001
9.217145e+002,2.521118e+001
9.226787e+002,2.484304e+001
9.236429e+002,2.453561e+001
9.246072e+002,2.497746e+001
9.255714e+002,2.648003e+001
9.265356e+002,2.674265e+001
9.274999e+002,2.392729e+001
9.284641e+002,2.135303e+001
9.294283e+002,2.045648e+001
9.303926e+002,2.060945e+001
9.313568e+002,2.032274e+001
9.323210e+002,1.877057e+001
9.332853e+002,1.711952e+001
9.342495e+002,1.795535e+001
9.352137e+002,1.981087e+001
9.361780e+002,2.039169e+001
9.371422e+002,1.926514e+001
9.381064e+002,1.749697e+001
9.390707e+002,1.637843e+001
9.400349e+002,1.583243e+001
9.409991e+002,1.596850e+001
9.419634e+002,1.748116e+001
9.429276e+002,1.865453e+001
9.438918e+002,1.914745e+001
9.448561e+002,1.901779e+001
9.458203e+002,1.812294e+001
9.467845e+002,1.617010e+001
9.477488e+002,1.484422e+001
9.487130e+002,1.652892e+001
9.496772e+002,1.853920e+001
9.506415e+002,1.836809e+001
9.516057e+002,1.620885e+001
9.525699e+002,1.409450e+001
9.535342e+002,1.401115e+001
9.544984e+002,1.565393e+001
9.554626e+002,1.670473e+001
9.564269e+002,1.731234e+001
9.573911e+002,1.749445e+001
9.583553e+002,1.707961e+001
9.593196e+002,1.626279e+001
9.602838e+002,1.523917e+001
9.612480e+002,1.382495e+001
9.622123e+002,1.292649e+001
9.631765e+002,1.340140e+001
9.641407e+002,1.388544e+001
9.651050e+002,1.357075e+001
9.660692e+002,1.272446e+001
9.670334e+002,1.220145e+001
9.679977e+002,1.258965e+001
9.689619e+002,1.326705e+001
9.699261e+002,1.212228e+001
9.708904e+002,9.936699e+000
9.718546e+002,9.457397e+000
9.728188e+002,1.145795e+001
9.737831e+002,1.447818e+001
9.747473e+002,1.665967e+001
9.757115e+002,1.785242e+001
9.766758e+002,1.913623e+001
9.776400e+002,2.149590e+001
9.786042e+002,2.286496e+001
9.795685e+002,2.237715e+001
9.805327e+002,2.065794e+001
9.814969e+002,1.846640e+001
9.824612e+002,1.609755e+001
9.834254e+002,1.379716e+001
9.843896e+002,1.142741e+001
9.853539e+002,9.378265e+000
9.863181e+002,8.205994e+000
9.872823e+002,7.829041e+000
9.882466e+002,7.931580e+000
9.892108e+002,8.350113e+000
9.901750e+002,9.036377e+000
9.911393e+002,8.933456e+000
9.921035e+002,6.636543e+000
9.930677e+002,5.504837e+000
9.940320e+002,6.596573e+000
9.949962e+002,8.314445e+000
9.959604e+002,9.292343e+000
9.969247e+002,9.432693e+000
9.978889e+002,9.270638e+000
9.988531e+002,8.720970e+000
9.998174e+002,8.113953e+000
1.000782e+003,7.715706e+000
1.001746e+003,7.482590e+000
1.002710e+003,7.336906e+000
1.003674e+003,7.213951e+000
1.004639e+003,7.043671e+000
1.005603e+003,6.706650e+000
1.006567e+003,6.155991e+000
1.007531e+003,5.508842e+000
1.008495e+003,4.552444e+000
1.009460e+003,3.923080e+000
1.010424e+003,4.298462e+000
1.011388e+003,5.382874e+000
1.012352e+003,5.856682e+000
1.013317e+003,5.168510e+000
1.014281e+003,4.585587e+000
1.015245e+003,4.491173e+000
1.016209e+003,4.567116e+000
1.017174e+003,4.730110e+000
1.018138e+003,4.874146e+000
1.019102e+003,4.860161e+000
1.020066e+003,4.608978e+000
1.021031e+003,4.098595e+000
1.021995e+003,2.955444e+000
1.022959e+003,1.265808e+000
1.023923e+003,-2.141647e-001
1.024887e+003,-1.259514e+000
1.025852e+003,-1.977409e+000
1.026816e+003,-2.596451e+000
1.027780e+003,-3.203949e+000
1.028744e+003,-3.043694e+000
1.029709e+003,-1.356087e+000
1.030673e+003,2.515488e-001
1.031637e+003,1.719215e+000
1.032601e+003,2.612152e+000
1.033566e+003,2.074196e+000
1.034530e+003,-1.082764e-001
1.035494e+003,-2.240311e+000
1.036458e+003,-2.124702e+000
1.037422e+003,-9.945221e-001
1.038387e+003,-1.067924e+000
1.039351e+003,-2.311020e+000
1.040315e+003,-3.369637e+000
1.041279e+003,-3.151703e+000
1.042244e+003,-1.973053e+000
1.043208e+003,-1.579941e+000
1.044172e+003,-3.136772e+000
1.045136e+003,-3.545822e+000
1.046101e+003,-1.719482e+000
1.047065e+003,2.323074e-001
1.048029e+003,7.503052e-001
1.048993e+003,1.187744e-001
1.049958e+003,-1.237564e-001
1.050922e+003,8.884430e-001
1.051886e+003,2.215904e+000
1.052850e+003,3.148293e+000
1.053814e+003,3.656837e+000
1.054779e+003,3.498924e+000
1.055743e+003,2.701363e+000
1.056707e+003,1.721367e+000
1.057671e+003,1.095604e+000
1.058636e+003,8.131180e-001
1.059600e+003,8.484421e-001
1.060564e+003,1.621964e+000
1.061528e+003,2.246117e+000
1.062493e+003,2.189941e+000
1.063457e+003,2.079231e+000
1.064421e+003,3.000404e+000
1.065385e+003,5.044640e+000
1.066349e+003,6.199631e+000
1.067314e+003,4.887070e+000
1.068278e+003,2.984726e+000
1.069242e+003,1.505363e+000
1.070206e+003,5.307083e-001
1.071171e+003,1.772232e-001
1.072135e+003,4.095230e-001
1.073099e+003,8.823090e-001
1.074063e+003,1.065720e+000
1.075028e+003,9.531479e-001
1.075992e+003,8.947983e-001
1.076956e+003,9.905396e-001
1.077920e+003,8.759155e-001
1.078885e+003,1.954880e-001
1.079849e+003,-6.219711e-001
1.080813e+003,-7.892685e-001
1.081777e+003,-1.135941e-001
1.082741e+003,7.656937e-001
1.083706e+003,1.949898e+000
1.084670e+003,2.746269e+000
1.085634e+003,2.551620e+000
1.086598e+003,1.685783e+000
1.087563e+003,7.633743e-001
1.088527e+003,1.739426e-001
1.089491e+003,-1.118622e-001
1.090455e+003,-1.967239e-001
1.091420e+003,-9.973907e-002
1.092384e+003,-3.942795e-001
1.093348e+003,-1.435211e+000
1.094312e+003,-2.313080e+000
1.095276e+003,-2.396065e+000
1.096241e+003,-1.843903e+000
1.097205e+003,-1.154091e+000
1.098169e+003,-2.252274e-001
1.099133e+003,2.344894e-001
1.100098e+003,-3.467026e-001
1.101062e+003,-1.093826e+000
1.102026e+003,-1.606102e+000
1.102990e+003,-1.797806e+000
1.103955e+003,-1.610184e+000
1.104919e+003,-1.033958e+000
1.105883e+003,-3.688583e-001
1.106847e+003,-2.012711e-001
1.107812e+003,-5.765915e-001
1.108776e+003,-1.354134e+000
1.109740e+003,-2.878265e+000
1.110704e+003,-4.081436e+000
1.111668e+003,-4.068726e+000
1.112633e+003,-3.014412e+000
1.113597e+003,-1.687805e+000
1.114561e+003,2.697678e-001
1.115525e+003,1.326897e+000
1.116490e+003,3.158340e-001
1.117454e+003,-9.614105e-001
1.118418e+003,-1.218765e+000
1.119382e+003,-6.591568e-001
1.120347e+003,-1.427689e-001
1.121311e+003,-2.516937e-001
1.122275e+003,-1.138565e+000
1.123239e+003,-3.517670e+000
1.124203e+003,-6.980972e+000
1.125168e+003,-7.660614e+000
1.126132e+003,-4.359726e+000
1.127096e+003,-5.844727e-001
1.128060e+003,1.180801e+000
1.129025e+003,1.176437e+000
1.129989e+003,3.868103e-001
1.130953e+003,-1.998688e+000
1.131917e+003,-3.181770e+000
1.132882e+003,-1.322205e+000
1.133846e+003,7.609863e-001
1.134810e+003,1.345978e+000
1.135774e+003,6.980209e-001
1.136739e+003,-1.110611e-001
1.137703e+003,-4.733200e-001
1.138667e+003,-6.190414e-001
1.139631e+003,-9.383240e-001
1.140595e+003,-1.411095e+000
1.141560e+003,-1.850929e+000
1.142524e+003,-2.319321e+000
1.143488e+003,-2.336319e+000
1.144452e+003,-1.495728e+000
1.145417e+003,3.723145e-002
1.146381e+003,1.691742e+000
1.147345e+003,3.456726e+000
1.148309e+003,5.272568e+000
1.149274e+003,7.605263e+000
1.150238e+003,9.557724e+000
1.151202e+003,1.030122e+001
1.152166e+003,1.044804e+001
1.153130e+003,1.128114e+001
1.154095e+003,1.328039e+001
1.155059e+003,1.527201e+001
1.156023e+003,1.557243e+001
1.156987e+003,1.439069e+001
1.157952e+003,1.381601e+001
1.158916e+003,1.425920e+001
1.159880e+003,1.364837e+001
1.160844e+003,9.749535e+000
1.161809e+003,4.213913e+000
1.162773e+003,1.050156e+000
1.163737e+003,7.385178e-001
1.164701e+003,7.357559e-001
1.165666e+003,8.888168e-001
1.166630e+003,7.991867e-001
1.167594e+003,-8.214569e-002
1.168558e+003,-1.131638e+000
1.169522e+003,-1.365685e+000
1.170487e+003,-5.895081e-001
1.171451e+003,3.408585e-001
1.172415e+003,4.738770e-001
1.173379e+003,-1.041641e-001
1.174344e+003,-8.601761e-001
1.175308e+003,-1.779625e+000
1.176272e+003,-2.676598e+000
1.177236e+003,-3.599243e+000
1.178201e+003,-4.355957e+000
1.179165e+003,-4.867462e+000
1.180129e+003,-5.176529e+000
1.181093e+003,-4.606895e+000
1.182057e+003,-1.635803e+000
1.183022e+003,1.640091e-001
1.183986e+003,-1.313972e+000
1.184950e+003,-3.861366e+000
1.185914e+003,-5.592056e+000
1.186879e+003,-6.128044e+000
1.187843e+003,-5.915459e+000
1.188807e+003,-5.311790e+000
1.189771e+003,-4.570099e+000
1.190736e+003,-4.443245e+000
1.191700e+003,-5.012131e+000
1.192664e+003,-5.454453e+000
1.193628e+003,-5.717339e+000
1.194593e+003,-5.757385e+000
1.195557e+003,-5.476982e+000
1.196521e+003,-4.962654e+000
1.197485e+003,-4.376595e+000
1.198449e+003,-3.502991e+000
1.199414e+003,-3.304977e+000
1.200378e+003,-5.242828e+000
1.201342e+003,-7.058525e+000
1.202306e+003,-6.799431e+000
1.203271e+003,-5.384750e+000
1.204235e+003,-5.064491e+000
1.205199e+003,-6.847092e+000
1.206163e+003,-9.430038e+000
1.207128e+003,-1.067474e+001
1.208092e+003,-1.050572e+001
1.209056e+003,-9.830879e+000
1.210020e+003,-7.932877e+000
1.210984e+003,-6.985771e+000
1.211949e+003,-8.229309e+000
1.212913e+003,-1.039092e+001
1.213877e+003,-1.201230e+001
1.214841e+003,-1.294843e+001
1.215806e+003,-1.313192e+001
1.216770e+003,-1.192953e+001
1.217734e+003,-1.095736e+001
1.218698e+003,-1.182356e+001
1.219663e+003,-1.327168e+001
1.220627e+003,-1.368684e+001
1.221591e+003,-1.285658e+001
1.222555e+003,-1.157937e+001
1.223520e+003,-1.054700e+001
1.224484e+003,-9.910881e+000
1.225448e+003,-1.051441e+001
1.226412e+003,-1.345392e+001
1.227376e+003,-1.516370e+001
1.228341e+003,-1.506137e+001
1.229305e+003,-1.447303e+001
1.230269e+003,-1.376423e+001
1.231233e+003,-1.317886e+001
1.232198e+003,-1.325797e+001
1.233162e+003,-1.416682e+001
1.234126e+003,-1.483340e+001
1.235090e+003,-1.426142e+001
1.236055e+003,-1.334471e+001
1.237019e+003,-1.313540e+001
1.237983e+003,-1.339972e+001
1.238947e+003,-1.325585e+001
1.239911e+003,-1.232591e+001
1.240876e+003,-1.150942e+001
1.241840e+003,-1.238433e+001
1.242804e+003,-1.513203e+001
1.243768e+003,-1.618815e+001
1.244733e+003,-1.339172e+001
1.245697e+003,-1.172623e+001
1.246661e+003,-1.252235e+001
1.247625e+003,-1.378642e+001
1.248590e+003,-1.394112e+001
1.249554e+003,-1.315308e+001
1.250518e+003,-1.258110e+001
1.251482e+003,-1.279861e+001
1.252447e+003,-1.308858e+001
1.253411e+003,-1.227288e+001
1.254375e+003,-1.100671e+001
1.255339e+003,-1.067905e+001
1.256303e+003,-1.132549e+001
1.257268e+003,-1.266921e+001
1.258232e+003,-1.512508e+001
1.259196e+003,-1.751503e+001
1.260160e+003,-1.688221e+001
1.261125e+003,-1.246899e+001
1.262089e+003,-9.511467e+000
1.263053e+003,-9.402153e+000
1.264017e+003,-9.923996e+000
1.264982e+003,-1.126355e+001
1.265946e+003,-1.243754e+001
1.266910e+003,-1.236774e+001
1.267874e+003,-1.122372e+001
1.268839e+003,-1.004913e+001
1.269803e+003,-9.530861e+000
1.270767e+003,-9.388954e+000
1.271731e+003,-8.970764e+000
1.272695e+003,-8.335678e+000
1.273660e+003,-8.877975e+000
1.274624e+003,-1.138974e+001
1.275588e+003,-1.324300e+001
1.276552e+003,-1.242549e+001
1.277517e+003,-1.019732e+001
1.278481e+003,-8.863281e+000
1.279445e+003,-8.574707e+000
1.280409e+003,-8.979469e+000
1.281374e+003,-1.074338e+001
1.282338e+003,-1.211808e+001
1.283302e+003,-1.195876e+001
1.284266e+003,-1.112071e+001
1.285230e+003,-1.041332e+001
1.286195e+003,-1.009621e+001
1.287159e+003,-1.021345e+001
1.288123e+003,-1.078812e+001
1.289087e+003,-1.153539e+001
1.290052e+003,-1.165336e+001
1.291016e+003,-1.092755e+001
1.291980e+003,-1.044695e+001
1.292944e+003,-1.021606e+001
1.293909e+003,-1.027430e+001
1.294873e+003,-1.091291e+001
1.295837e+003,-1.162462e+001
1.296801e+003,-1.150622e+001
1.297766e+003,-1.054169e+001
1.298730e+003,-1.005664e+001
1.299694e+003,-1.091875e+001
1.300658e+003,-1.228056e+001
1.301622e+003,-1.381793e+001
1.302587e+003,-1.493423e+001
1.303551e+003,-1.414526e+001
1.304515e+003,-1.139564e+001
1.305479e+003,-8.858643e+000
1.306444e+003,-8.324760e+000
1.307408e+003,-9.315285e+000
1.308372e+003,-1.020515e+001
1.309336e+003,-1.097659e+001
1.310301e+003,-1.170653e+001
1.311265e+003,-1.301455e+001
1.312229e+003,-1.347002e+001
1.313193e+003,-1.167904e+001
1.314157e+003,-9.484932e+000
1.315122e+003,-9.003960e+000
1.316086e+003,-1.027003e+001
1.317050e+003,-1.179108e+001
1.318014e+003,-1.261971e+001
1.318979e+003,-1.273235e+001
1.319943e+003,-1.183949e+001
1.320907e+003,-1.009805e+001
1.321871e+003,-9.146202e+000
1.322836e+003,-9.255959e+000
1.323800e+003,-9.618385e+000
1.324764e+003,-1.004464e+001
1.325728e+003,-1.031884e+001
1.326693e+003,-9.857292e+000
1.327657e+003,-8.650383e+000
1.328621e+003,-8.189079e+000
1.329585e+003,-9.226303e+000
1.330549e+003,-1.020250e+001
1.331514e+003,-1.025820e+001
1.332478e+003,-1.011375e+001
1.333442e+003,-1.066357e+001
1.334406e+003,-1.164265e+001
1.335371e+003,-1.177565e+001
1.336335e+003,-1.034998e+001
1.337299e+003,-8.611435e+000
1.338263e+003,-9.115524e+000
1.339228e+003,-1.237195e+001
1.340192e+003,-1.298835e+001
1.341156e+003,-8.163704e+000
1.342120e+003,-5.005249e+000
1.343084e+003,-5.232841e+000
1.344049e+003,-6.914879e+000
1.345013e+003,-9.250504e+000
1.345977e+003,-1.154159e+001
1.346941e+003,-1.227471e+001
1.347906e+003,-1.084522e+001
1.348870e+003,-8.915977e+000
1.349834e+003,-7.820091e+000
1.350798e+003,-7.435875e+000
1.351763e+003,-7.283821e+000
1.352727e+003,-7.401039e+000
1.353691e+003,-8.281654e+000
1.354655e+003,-1.040399e+001
1.355620e+003,-1.228147e+001
1.356584e+003,-1.159035e+001
1.357548e+003,-8.746346e+000
1.358512e+003,-7.831108e+000
1.359476e+003,-9.873138e+000
1.360441e+003,-1.165499e+001
1.361405e+003,-1.250314e+001
1.362369e+003,-1.271917e+001
1.363333e+003,-1.221009e+001
1.364298e+003,-1.126351e+001
1.365262e+003,-1.005787e+001
1.366226e+003,-8.777397e+000
1.367190e+003,-7.823914e+000
1.368155e+003,-7.564484e+000
1.369119e+003,-7.758530e+000
1.370083e+003,-7.609947e+000
1.371047e+003,-6.868439e+000
1.372011e+003,-6.847046e+000
1.372976e+003,-8.683945e+000
1.373940e+003,-9.813545e+000
1.374904e+003,-8.606468e+000
1.375868e+003,-6.585686e+000
1.376833e+003,-5.653893e+000
1.377797e+003,-5.931686e+000
1.378761e+003,-6.612923e+000
1.379725e+003,-7.542030e+000
1.380690e+003,-8.140244e+000
1.381654e+003,-6.996254e+000
1.382618e+003,-5.543678e+000
1.383582e+003,-6.388924e+000
1.384547e+003,-9.238548e+000
1.385511e+003,-1.095979e+001
1.386475e+003,-9.788620e+000
1.387439e+003,-7.502144e+000
1.388403e+003,-6.946045e+000
1.389368e+003,-8.117714e+000
1.390332e+003,-8.343864e+000
1.391296e+003,-6.891388e+000
1.392260e+003,-5.764229e+000
1.393225e+003,-5.536308e+000
1.394189e+003,-5.600098e+000
1.395153e+003,-5.710831e+000
1.396117e+003,-5.841614e+000
1.397082e+003,-6.051254e+000
1.398046e+003,-6.313187e+000
1.399010e+003,-6.478325e+000
1.399974e+003,-6.431778e+000
1.400938e+003,-6.299339e+000
1.401903e+003,-6.332130e+000
1.402867e+003,-6.460800e+000
1.403831e+003,-6.502304e+000
1.404795e+003,-6.560829e+000
1.405760e+003,-6.516670e+000
1.406724e+003,-6.143082e+000
1.407688e+003,-5.928261e+000
1.408652e+003,-6.514664e+000
1.409617e+003,-7.731941e+000
1.410581e+003,-8.890556e+000
1.411545e+003,-9.869194e+000
1.412509e+003,-9.915085e+000
1.413474e+003,-7.464455e+000
1.414438e+003,-4.206604e+000
1.415402e+003,-2.855972e+000
1.416366e+003,-3.246170e+000
1.417330e+003,-4.328804e+000
1.418295e+003,-5.946083e+000
1.419259e+003,-7.190712e+000
1.420223e+003,-6.628334e+000
1.421187e+003,-4.674873e+000
1.422152e+003,-3.937286e+000
1.423116e+003,-4.937080e+000
1.424080e+003,-5.424873e+000
1.425044e+003,-4.071342e+000
1.426009e+003,-2.965645e+000
1.426973e+003,-3.095528e+000
1.427937e+003,-3.884720e+000
1.428901e+003,-4.689125e+000
1.429865e+003,-5.339714e+000
1.430830e+003,-6.055786e+000
1.431794e+003,-6.987190e+000
1.432758e+003,-7.643761e+000
1.433722e+003,-6.889580e+000
1.434687e+003,-4.450340e+000
1.435651e+003,-3.275742e+000
1.436615e+003,-4.449768e+000
1.437579e+003,-5.579376e+000
1.438544e+003,-6.798714e+000
1.439508e+003,-7.530190e+000
1.440472e+003,-6.989029e+000
1.441436e+003,-5.768669e+000
1.442401e+003,-5.093307e+000
1.443365e+003,-5.229591e+000
1.444329e+003,-5.355202e+000
1.445293e+003,-4.822517e+000
1.446257e+003,-3.996025e+000
1.447222e+003,-3.584709e+000
1.448186e+003,-3.529915e+000
1.449150e+003,-3.494415e+000
1.450114e+003,-3.425705e+000
1.451079e+003,-3.541084e+000
1.452043e+003,-4.479317e+000
1.453007e+003,-5.234680e+000
1.453971e+003,-3.762428e+000
1.454936e+003,-5.532684e-001
1.455900e+003,5.134964e-001
1.456864e+003,-1.957253e+000
1.457828e+003,-4.444672e+000
1.458792e+003,-4.976349e+000
1.459757e+003,-4.685677e+000
1.460721e+003,-4.100609e+000
1.461685e+003,-3.508827e+000
1.462649e+003,-3.541115e+000
1.463614e+003,-4.251755e+000
1.464578e+003,-4.625519e+000
1.465542e+003,-3.631180e+000
1.466506e+003,-1.974068e+000
1.467471e+003,-1.976875e+000
1.468435e+003,-4.238495e+000
1.469399e+003,-4.822876e+000
1.470363e+003,-1.585617e+000
1.471328e+003,4.454422e-001
1.472292e+003,-8.020477e-001
1.473256e+003,-2.753098e+000
1.474220e+003,-3.424881e+000
1.475184e+003,-3.251038e+000
1.476149e+003,-3.857201e+000
1.477113e+003,-5.570038e+000
1.478077e+003,-6.647491e+000
1.479041e+003,-5.311104e+000
1.480006e+003,-2.413170e+000
1.480970e+003,-8.831406e-001
1.481934e+003,-1.010666e+000
1.482898e+003,-1.640411e+000
1.483863e+003,-3.679863e+000
1.484827e+003,-4.909576e+000
1.485791e+003,-4.170105e+000
1.486755e+003,-2.799484e+000
1.487719e+003,-1.583733e+000
1.488684e+003,-9.131165e-001
1.489648e+003,-1.807724e+000
1.490612e+003,-4.471275e+000
1.491576e+003,-6.339348e+000
1.492541e+003,-5.067101e+000
1.493505e+003,-2.162720e+000
1.494469e+003,-8.168640e-001
1.495433e+003,-8.487015e-001
1.496398e+003,-1.081444e+000
1.497362e+003,-1.385735e+000
1.498326e+003,-1.631660e+000
1.499290e+003,-2.004829e+000
1.500255e+003,-2.118195e+000
1.501219e+003,-1.238640e+000
1.502183e+003,4.315796e-001
1.503147e+003,1.770241e+000
1.504111e+003,2.523567e+000
1.505076e+003,2.950096e+000
1.506040e+003,2.776703e+000
1.507004e+003,2.825104e+000
1.507968e+003,4.144218e+000
1.508933e+003,6.184097e+000
1.509897e+003,7.806427e+000
1.510861e+003,8.862404e+000
1.511825e+003,9.961327e+000
1.512790e+003,1.150269e+001
1.513754e+003,1.322651e+001
1.514718e+003,1.458716e+001
1.515682e+003,1.555679e+001
1.516646e+003,1.712279e+001
1.517611e+003,1.977991e+001
1.518575e+003,2.216145e+001
1.519539e+003,2.445881e+001
1.520503e+003,2.580106e+001
1.521468e+003,2.524545e+001
1.522432e+003,2.362861e+001
1.523396e+003,2.178234e+001
1.524360e+003,2.011113e+001
1.525325e+003,1.911976e+001
1.526289e+003,1.916173e+001
1.527253e+003,1.963713e+001
1.528217e+003,1.952465e+001
1.529182e+003,1.885654e+001
1.530146e+003,1.725048e+001
1.531110e+003,1.380304e+001
1.532074e+003,1.104079e+001
1.533039e+003,9.138847e+000
1.534003e+003,7.711578e+000
1.534967e+003,6.985344e+000
1.535931e+003,6.523369e+000
1.536896e+003,5.828583e+000
1.537860e+003,4.903137e+000
1.538824e+003,4.028320e+000
1.539788e+003,3.332253e+000
1.540752e+003,2.761826e+000
1.541717e+003,2.302116e+000
1.542681e+003,1.931259e+000
1.543645e+003,1.357559e+000
1.544609e+003,4.420929e-001
1.545573e+003,-1.780472e-001
1.546538e+003,-9.584198e-001
1.547502e+003,-9.958572e-001
1.548466e+003,5.995865e-001
1.549430e+003,2.751564e+000
1.550395e+003,4.714966e+000
1.551359e+003,6.141777e+000
1.552323e+003,6.370735e+000
1.553287e+003,5.262039e+000
1.554252e+003,3.988976e+000
1.555216e+003,3.617950e+000
1.556180e+003,3.641708e+000
1.557144e+003,2.749756e+000
1.558109e+003,9.285507e-001
1.559073e+003,-8.720398e-002
1.560037e+003,1.287994e-001
1.561001e+003,1.716843e-001
1.561966e+003,-5.820389e-001
1.562930e+003,-1.423775e+000
1.563894e+003,-2.049828e+000
1.564858e+003,-2.220558e+000
1.565823e+003,-9.935608e-001
1.566787e+003,1.656563e+000
1.567751e+003,3.380470e+000
1.568715e+003,2.602570e+000
1.569679e+003,1.214363e+000
1.570644e+003,1.859688e+000
1.571608e+003,3.620949e+000
1.572572e+003,3.771156e+000
1.573536e+003,2.230797e+000
1.574500e+003,9.020996e-001
1.575465e+003,3.211899e-001
1.576429e+003,2.200699e-001
1.577393e+003,3.544159e-001
1.578357e+003,8.111496e-001
1.579322e+003,2.129387e+000
1.580286e+003,4.215416e+000
1.581250e+003,5.393990e+000
1.582214e+003,4.998825e+000
1.583179e+003,4.180038e+000
1.584143e+003,3.460083e+000
1.585107e+003,3.016556e+000
1.586071e+003,3.402779e+000
1.587036e+003,4.307617e+000
1.588000e+003,4.565880e+000
1.588964e+003,3.873726e+000
1.589928e+003,2.835045e+000
1.590893e+003,1.205696e+000
1.591857e+003,9.139252e-002
1.592821e+003,1.962097e+000
1.593785e+003,6.097252e+000
1.594750e+003,7.953804e+000
1.595714e+003,6.573601e+000
1.596678e+003,5.485718e+000
1.597642e+003,6.482712e+000
1.598606e+003,7.632339e+000
1.599571e+003,7.194672e+000
1.600535e+003,6.131676e+000
1.601499e+003,5.476349e+000
1.602463e+003,5.363411e+000
1.603427e+003,6.022362e+000
1.604392e+003,7.684242e+000
1.605356e+003,9.060638e+000
1.606320e+003,8.476761e+000
1.607284e+003,6.727600e+000
1.608249e+003,6.178467e+000
1.609213e+003,6.878471e+000
1.610177e+003,7.342613e+000
1.611141e+003,7.262886e+000
1.612106e+003,7.100563e+000
1.613070e+003,7.005791e+000
1.614034e+003,6.964798e+000
1.614998e+003,6.978210e+000
1.615963e+003,7.040512e+000
1.616927e+003,6.977745e+000
1.617891e+003,6.859497e+000
1.618855e+003,7.420097e+000
1.619820e+003,9.239937e+000
1.620784e+003,1.103668e+001
1.621748e+003,1.059909e+001
1.622712e+003,8.514786e+000
1.623677e+003,8.365051e+000
1.624641e+003,1.066599e+001
1.625605e+003,1.194835e+001
1.626569e+003,1.047209e+001
1.627533e+003,9.321480e+000
1.628498e+003,1.095860e+001
1.629462e+003,1.281185e+001
1.630426e+003,1.237751e+001
1.631390e+003,1.045864e+001
1.632354e+003,9.065636e+000
1.633319e+003,8.704536e+000
1.634283e+003,8.683578e+000
1.635247e+003,8.492966e+000
1.636211e+003,8.309196e+000
1.637176e+003,8.523026e+000
1.638140e+003,9.124901e+000
1.639104e+003,9.664055e+000
1.640068e+003,1.011711e+001
1.641033e+003,1.047846e+001
1.641997e+003,1.095417e+001
1.642961e+003,1.107716e+001
1.643925e+003,1.013215e+001
1.644890e+003,9.135376e+000
1.645854e+003,9.048920e+000
1.646818e+003,9.772797e+000
1.647782e+003,1.111111e+001
1.648747e+003,1.287730e+001
1.649711e+003,1.386581e+001
1.650675e+003,1.292293e+001
1.651639e+003,1.104224e+001
1.652604e+003,1.017290e+001
1.653568e+003,1.025780e+001
1.654532e+003,1.063749e+001
1.655496e+003,1.150999e+001
1.656460e+003,1.182087e+001
1.657425e+003,1.053939e+001
1.658389e+003,9.666832e+000
1.659353e+003,1.132044e+001
1.660317e+003,1.312598e+001
1.661281e+003,1.196068e+001
1.662246e+003,8.677032e+000
1.663210e+003,6.473373e+000
1.664174e+003,6.394669e+000
1.665138e+003,6.832581e+000
1.666103e+003,6.356293e+000
1.667067e+003,5.558891e+000
1.668031e+003,5.865540e+000
1.668995e+003,7.173828e+000
1.669960e+003,7.744034e+000
1.670924e+003,7.273781e+000
1.671888e+003,6.895531e+000
1.672852e+003,7.085915e+000
1.673817e+003,7.203743e+000
1.674781e+003,6.625290e+000
1.675745e+003,5.919434e+000
1.676709e+003,5.874329e+000
1.677674e+003,6.255600e+000
1.678638e+003,6.073441e+000
1.679602e+003,5.034210e+000
1.680566e+003,4.203522e+000
1.681531e+003,4.547699e+000
1.682495e+003,5.453461e+000
1.683459e+003,5.831779e+000
1.684423e+003,5.745193e+000
1.685387e+003,5.783051e+000
1.686352e+003,6.041054e+000
1.687316e+003,6.146873e+000
1.688280e+003,5.838486e+000
1.689244e+003,5.620148e+000
1.690208e+003,6.233109e+000
1.691173e+003,6.851685e+000
1.692137e+003,6.362556e+000
1.693101e+003,5.133514e+000
1.694065e+003,4.392342e+000
1.695030e+003,4.416000e+000
1.695994e+003,4.381012e+000
1.696958e+003,3.636681e+000
1.697922e+003,2.802574e+000
1.698887e+003,2.729355e+000
1.699851e+003,3.194862e+000
1.700815e+003,3.486862e+000
1.701779e+003,3.525208e+000
1.702744e+003,3.624786e+000
1.703708e+003,4.014534e+000
1.704672e+003,4.142433e+000
1.705636e+003,3.317513e+000
1.706601e+003,2.184166e+000
1.707565e+003,1.515381e+000
1.708529e+003,1.425835e+000
1.709493e+003,2.695908e+000
1.710458e+003,5.700348e+000
1.711422e+003,7.264297e+000
1.712386e+003,4.901543e+000
1.713350e+003,2.143654e+000
1.714314e+003,2.091583e+000
1.715279e+003,3.240746e+000
1.716243e+003,2.888222e+000
1.717207e+003,1.254494e+000
1.718171e+003,5.679092e-001
1.719135e+003,1.451813e+000
1.720100e+003,2.340919e+000
1.721064e+003,2.194374e+000
1.722028e+003,1.491623e+000
1.722992e+003,8.991089e-001
1.723957e+003,4.277420e-001
1.724921e+003,-1.937637e-001
1.725885e+003,-1.172585e+000
1.726849e+003,-1.501122e+000
1.727814e+003,-3.571396e-001
1.728778e+003,7.093582e-001
1.729742e+003,1.083679e+000
1.730706e+003,1.012817e+000
1.731671e+003,3.113098e-001
1.732635e+003,-5.584106e-001
1.733599e+003,-4.549255e-001
1.734563e+003,6.701202e-001
1.735528e+003,1.693916e+000
1.736492e+003,2.003990e+000
1.737456e+003,1.605186e+000
1.738420e+003,3.583755e-001
1.739385e+003,-1.285820e+000
1.740349e+003,-1.455513e+000
1.741313e+003,3.425674e-001
1.742277e+003,1.257919e+000
1.743241e+003,9.800339e-001
1.744206e+003,4.505920e-001
1.745170e+003,-9.911652e-001
1.746134e+003,-1.807037e+000
1.747098e+003,-4.606323e-001
1.748063e+003,1.443634e+000
1.749027e+003,2.077522e+000
1.749991e+003,1.533928e+000
1.750955e+003,6.519165e-001
1.751919e+003,-1.603012e-001
1.752884e+003,-6.395950e-001
1.753848e+003,-5.575256e-001
1.754812e+003,-2.645035e-001
1.755776e+003,-4.994202e-001
1.756741e+003,-1.193878e+000
1.757705e+003,-1.130013e+000
1.758669e+003,1.235504e-001
1.759633e+003,7.513885e-001
1.760598e+003,-2.342224e-001
1.761562e+003,-7.524948e-001
1.762526e+003,6.396408e-001
1.763490e+003,1.934082e+000
1.764455e+003,1.254906e+000
1.765419e+003,-2.283249e-001
1.766383e+003,-4.768753e-001
1.767347e+003,5.398254e-001
1.768312e+003,1.341530e+000
1.769276e+003,1.220467e+000
1.770240e+003,7.177734e-001
1.771204e+003,3.784866e-001
1.772168e+003,1.929321e-001
1.773133e+003,7.244110e-002
1.774097e+003,6.179810e-003
1.775061e+003,-5.083466e-002
1.776025e+003,-1.048737e-001
1.776990e+003,-5.381775e-001
1.777954e+003,-1.793304e+000
1.778918e+003,-2.616379e+000
1.779882e+003,-1.847252e+000
1.780846e+003,-4.045792e-001
1.781811e+003,6.624680e-001
1.782775e+003,1.369324e+000
1.783739e+003,1.609253e+000
1.784703e+003,1.309357e+000
1.785668e+003,1.415596e+000
1.786632e+003,3.067276e+000
1.787596e+003,4.135094e+000
1.788560e+003,2.407303e+000
1.789525e+003,-2.699661e-001
1.790489e+003,-1.632172e+000
1.791453e+003,-1.657394e+000
1.792417e+003,-3.637619e-001
1.793382e+003,1.967255e+000
1.794346e+003,3.081528e+000
1.795310e+003,1.694679e+000
1.796274e+003,-2.608337e-001
1.797239e+003,-5.226822e-001
1.798203e+003,3.684998e-001
1.799167e+003,4.883041e-001
1.800131e+003,-4.649506e-001
1.801095e+003,-7.048111e-001
1.802060e+003,4.892349e-001
1.803024e+003,1.326614e+000
1.803988e+003,1.299553e+000
1.804952e+003,1.242905e+000
1.805917e+003,1.819725e+000
1.806881e+003,2.327057e+000
1.807845e+003,1.919098e+000
1.808809e+003,9.327087e-001
1.809773e+003,6.486511e-002
1.810738e+003,-4.475098e-001
1.811702e+003,-6.111679e-001
1.812666e+003,-4.419098e-001
1.813630e+003,-1.138153e-001
1.814595e+003,1.076126e-001
1.815559e+003,3.224487e-001
1.816523e+003,1.164993e+000
1.817487e+003,2.776756e+000
1.818452e+003,3.387711e+000
1.819416e+003,2.509857e+000
1.820380e+003,1.949081e+000
1.821344e+003,2.496330e+000
1.822309e+003,2.955994e+000
1.823273e+003,2.506401e+000
1.824237e+003,1.783981e+000
1.825201e+003,1.266739e+000
1.826166e+003,1.008492e+000
1.827130e+003,1.145500e+000
1.828094e+003,1.670845e+000
1.829058e+003,2.175201e+000
1.830022e+003,2.622597e+000
1.830987e+003,2.724182e+000
1.831951e+003,1.930321e+000
1.832915e+003,8.724594e-001
1.833879e+003,4.157944e-001
1.834844e+003,5.021515e-001
1.835808e+003,9.978256e-001
1.836772e+003,1.780457e+000
1.837736e+003,2.125923e+000
1.838700e+003,1.693329e+000
1.839665e+003,8.578873e-001
1.840629e+003,-1.398697e-001
1.841593e+003,-9.488449e-001
1.842557e+003,-7.642670e-001
1.843522e+003,3.925476e-001
1.844486e+003,1.058365e+000
1.845450e+003,8.952255e-001
1.846414e+003,9.832001e-001
1.847379e+003,1.441605e+000
1.848343e+003,1.855858e+000
1.849307e+003,2.526505e+000
1.850271e+003,2.721001e+000
1.851236e+003,1.294609e+000
1.852200e+003,-4.988022e-001
1.853164e+003,-7.247238e-001
1.854128e+003,3.111420e-001
1.855093e+003,7.729340e-001
1.856057e+003,6.062317e-002
1.857021e+003,-6.543732e-001
1.857985e+003,-4.349670e-001
1.858949e+003,3.946762e-001
1.859914e+003,1.657875e+000
1.860878e+003,3.109085e+000
1.861842e+003,2.920731e+000
1.862806e+003,1.010872e+000
1.863771e+003,5.692825e-001
1.864735e+003,2.611267e+000
1.865699e+003,3.663780e+000
1.866663e+003,1.596992e+000
1.867627e+003,-6.351395e-001
1.868592e+003,-9.287262e-002
1.869556e+003,1.719353e+000
1.870520e+003,1.840286e+000
1.871484e+003,5.771637e-001
1.872449e+003,2.502441e-002
1.873413e+003,5.761566e-001
1.874377e+003,1.512077e+000
1.875341e+003,3.052391e+000
1.876306e+003,4.202591e+000
1.877270e+003,4.276352e+000
1.878234e+003,3.822830e+000
1.879198e+003,3.001122e+000
1.880163e+003,2.297913e+000
1.881127e+003,2.736046e+000
1.882091e+003,4.097870e+000
1.883055e+003,4.940742e+000
1.884020e+003,4.714607e+000
1.884984e+003,4.488113e+000
1.885948e+003,5.274307e+000
1.886912e+003,6.158684e+000
1.887876e+003,5.074654e+000
1.888841e+003,2.298523e+000
1.889805e+003,1.409546e+000
1.890769e+003,2.827499e+000
1.891733e+003,3.905907e+000
1.892698e+003,4.449974e+000
1.893662e+003,4.410927e+000
1.894626e+003,3.135139e+000
1.895590e+003,2.130653e+000
1.896554e+003,2.821655e+000
1.897519e+003,4.109634e+000
1.898483e+003,4.721283e+000
1.899447e+003,4.716469e+000
1.900411e+003,4.698036e+000
1.901376e+003,4.805168e+000
1.902340e+003,4.329872e+000
1.903304e+003,2.263023e+000
1.904268e+003,7.039108e-001
1.905233e+003,1.466423e+000
1.906197e+003,2.871704e+000
1.907161e+003,3.219452e+000
1.908125e+003,2.930168e+000
1.909090e+003,2.871971e+000
1.910054e+003,3.093727e+000
1.911018e+003,3.151848e+000
1.911982e+003,2.983315e+000
1.912947e+003,3.270042e+000
1.913911e+003,4.505112e+000
1.914875e+003,6.000526e+000
1.915839e+003,6.723450e+000
1.916803e+003,6.637894e+000
1.917768e+003,5.496071e+000
1.918732e+003,3.005646e+000
1.919696e+003,1.599281e+000
1.920660e+003,1.716080e+000
1.921625e+003,1.785889e+000
1.922589e+003,9.770279e-001
1.923553e+003,8.169861e-001
1.924517e+003,2.694099e+000
1.925481e+003,5.064011e+000
1.926446e+003,7.161079e+000
1.927410e+003,8.554131e+000
1.928374e+003,8.074577e+000
1.929338e+003,5.818985e+000
1.930303e+003,3.999054e+000
1.931267e+003,3.042404e+000
1.932231e+003,3.109970e+000
1.933195e+003,5.187607e+000
1.934160e+003,7.161140e+000
1.935124e+003,7.360252e+000
1.936088e+003,6.671295e+000
1.937052e+003,6.128052e+000
1.938017e+003,5.732628e+000
1.938981e+003,5.043465e+000
1.939945e+003,4.118965e+000
1.940909e+003,3.561951e+000
1.941874e+003,3.635300e+000
1.942838e+003,4.084290e+000
1.943802e+003,4.712120e+000
1.944766e+003,5.584373e+000
1.945730e+003,7.021057e+000
1.946695e+003,8.742439e+000
1.947659e+003,8.180313e+000
1.948623e+003,4.968887e+000
1.949587e+003,3.724380e+000
1.950552e+003,5.475723e+000
1.951516e+003,7.060181e+000
1.952480e+003,7.508766e+000
1.953444e+003,7.371445e+000
1.954408e+003,6.647026e+000
1.955373e+003,5.875313e+000
1.956337e+003,6.088280e+000
1.957301e+003,6.959023e+000
1.958265e+003,7.109726e+000
1.959230e+003,6.408569e+000
1.960194e+003,5.915924e+000
1.961158e+003,6.024719e+000
1.962122e+003,5.844345e+000
1.963087e+003,4.827644e+000
1.964051e+003,3.877136e+000
1.965015e+003,3.529411e+000
1.965979e+003,3.547874e+000
1.966944e+003,3.676369e+000
1.967908e+003,3.886513e+000
1.968872e+003,4.308067e+000
1.969836e+003,4.884239e+000
1.970801e+003,5.312111e+000
1.971765e+003,5.479156e+000
1.972729e+003,5.627251e+000
1.973693e+003,5.963943e+000
1.974657e+003,6.373085e+000
1.975622e+003,6.554108e+000
1.976586e+003,6.689980e+000
1.977550e+003,7.687599e+000
1.978514e+003,9.238693e+000
1.979479e+003,9.286758e+000
1.980443e+003,7.616737e+000
1.981407e+003,5.991051e+000
1.982371e+003,5.035118e+000
1.983335e+003,5.146599e+000
1.984300e+003,6.813080e+000
1.985264e+003,8.630554e+000
1.986228e+003,8.327866e+000
1.987192e+003,6.444237e+000
1.988157e+003,5.838516e+000
1.989121e+003,6.876198e+000
1.990085e+003,7.380600e+000
1.991049e+003,7.036514e+000
1.992014e+003,6.842033e+000
1.992978e+003,7.002609e+000
1.993942e+003,7.164268e+000
1.994906e+003,7.329536e+000
1.995871e+003,7.332993e+000
1.996835e+003,6.521683e+000
1.997799e+003,5.811470e+000
1.998763e+003,7.074738e+000
1.999728e+003,9.708893e+000
