5.003444e+002,1.855701e+001
5.013087e+002,1.931683e+001
5.022729e+002,1.910590e+001
5.032371e+002,1.846466e+001
5.042014e+002,1.711847e+001
5.051656e+002,1.533966e+001
5.061298e+002,1.398065e+001
5.070941e+002,1.375861e+001
5.080583e+002,1.472430e+001
5.090225e+002,1.467657e+001
5.099868e+002,1.394977e+001
5.109510e+002,1.225830e+001
5.119152e+002,8.674805e+000
5.128795e+002,3.009216e+000
5.138437e+002,-6.183472e-001
5.148079e+002,1.109619e+000
5.157722e+002,3.645691e+000
5.167364e+002,5.071838e+000
5.177006e+002,4.958008e+000
5.186649e+002,4.271729e+000
5.196291e+002,5.067993e+000
5.205933e+002,6.452637e+000
5.215576e+002,5.604309e+000
5.225218e+002,2.337769e+000
5.234860e+002,-9.544678e-001
5.244503e+002,8.312378e-001
5.254145e+002,1.068555e+001
5.263787e+002,1.619525e+001
5.273430e+002,1.520667e+001
5.283072e+002,1.139655e+001
5.292714e+002,9.463989e+000
5.302357e+002,9.459473e+000
5.311999e+002,9.667358e+000
5.321641e+002,1.196436e+001
5.331284e+002,1.416534e+001
5.340926e+002,1.362036e+001
5.350568e+002,8.830383e+000
5.360211e+002,3.913391e+000
5.369853e+002,4.196411e+000
5.379495e+002,6.437805e+000
5.389138e+002,7.608521e+000
5.398780e+002,6.569763e+000
5.408422e+002,4.669617e+000
5.418065e+002,6.651733e+000
5.427707e+002,1.179193e+001
5.437349e+002,1.484338e+001
5.446992e+002,1.400446e+001
5.456634e+002,1.022992e+001
5.466276e+002,7.078369e+000
5.475919e+002,4.655884e+000
5.485561e+002,3.474365e+000
5.495203e+002,4.341553e+000
5.504846e+002,5.717102e+000
5.514488e+002,5.338928e+000
5.524130e+002,1.599670e+000
5.533773e+002,-1.054016e+000
5.543415e+002,4.404297e-001
5.553057e+002,3.511658e+000
5.562700e+002,5.467957e+000
5.572342e+002,4.585022e+000
5.581984e+002,1.856628e+000
5.591627e+002,-7.036133e-001
5.601269e+002,-2.490051e+000
5.610911e+002,-2.023071e+000
5.620554e+002,1.540283e+000
5.630196e+002,7.273621e+000
5.639838e+002,8.649658e+000
5.649481e+002,2.200928e+000
5.659123e+002,-3.430115e+000
5.668765e+002,-6.234192e+000
5.678408e+002,-6.450684e+000
5.688050e+002,-5.466309e+000
5.697692e+002,-2.606323e+000
5.707335e+002,-1.888611e+000
5.716977e+002,-5.902222e+000
5.726619e+002,-1.171912e+001
5.736262e+002,-1.535046e+001
5.745904e+002,-1.378430e+001
5.755546e+002,-9.778198e+000
5.765189e+002,-8.435669e+000
5.774831e+002,-9.060791e+000
5.784473e+002,-9.642456e+000
5.794116e+002,-8.586853e+000
5.803758e+002,-5.778870e+000
5.813400e+002,-4.912659e+000
5.823043e+002,-7.627014e+000
5.832685e+002,-9.717651e+000
5.842327e+002,-8.898315e+000
5.851970e+002,-5.233521e+000
5.861612e+002,-1.549744e+000
5.871254e+002,2.746643e+000
5.880897e+002,4.932373e+000
5.890539e+002,2.316101e+000
5.900181e+002,-2.688049e+000
5.909824e+002,-5.700317e+000
5.919466e+002,-2.931152e+000
5.929108e+002,8.757935e-001
5.938751e+002,2.057495e-001
5.948393e+002,-3.035339e+000
5.958035e+002,-6.031494e+000
5.967678e+002,-6.629456e+000
5.977320e+002,-4.888428e+000
5.986962e+002,-2.453735e+000
5.996605e+002,2.042847e-001
6.006247e+002,1.650269e+000
6.015889e+002,6.644897e-001
6.025532e+002,-2.454590e+000
6.035174e+002,-4.278625e+000
6.044816e+002,-4.179993e+000
6.054459e+002,-2.990540e+000
6.064101e+002,4.858398e-002
6.073743e+002,3.923401e+000
6.083386e+002,7.073547e+000
6.093028e+002,8.874878e+000
6.102670e+002,9.615173e+000
6.112313e+002,9.160522e+000
6.121955e+002,8.069641e+000
6.131597e+002,7.166077e+000
6.141240e+002,6.972107e+000
6.150882e+002,7.021301e+000
6.160524e+002,5.190491e+000
6.170167e+002,2.114319e+000
6.179809e+002,-1.817627e-001
6.189451e+002,-1.152039e+000
6.199094e+002,-1.113892e+000
6.208736e+002,-3.722534e-001
6.218378e+002,3.957092e+000
6.228021e+002,6.813965e+000
6.237663e+002,7.245483e+000
6.247305e+002,6.264160e+000
6.256948e+002,5.158020e+000
6.266590e+002,3.667053e+000
6.276232e+002,2.377563e+000
6.285875e+002,2.762024e+000
6.295517e+002,3.739502e+000
6.305159e+002,3.847656e+000
6.314802e+002,2.169739e+000
6.324444e+002,-7.510376e-001
6.334086e+002,-2.724670e+000
6.343729e+002,-3.624695e+000
6.353371e+002,-4.355591e+000
6.363013e+002,-5.543518e+000
6.372656e+002,-6.852844e+000
6.382298e+002,-6.498291e+000
6.391940e+002,-1.127747e+000
6.401583e+002,8.532104e-001
6.411225e+002,-2.143311e+000
6.420867e+002,-6.577026e+000
6.430510e+002,-8.596741e+000
6.440152e+002,-7.148438e+000
6.449794e+002,-5.630676e+000
6.459437e+002,-5.506104e+000
6.469079e+002,-6.189026e+000
6.478721e+002,-7.407410e+000
6.488364e+002,-8.778931e+000
6.498006e+002,-9.663330e+000
6.507648e+002,-8.947632e+000
6.517291e+002,-7.288818e+000
6.526933e+002,-5.666077e+000
6.536575e+002,-4.267578e+000
6.546218e+002,-3.309570e+000
6.555860e+002,-3.299072e+000
6.565502e+002,-5.755432e+000
6.575145e+002,-5.718811e+000
6.584787e+002,-2.534180e-001
6.594429e+002,5.145081e+000
6.604072e+002,5.238708e+000
6.613714e+002,-1.307861e+000
6.623356e+002,-6.316528e+000
6.632999e+002,-4.823242e+000
6.642641e+002,-2.514893e+000
6.652283e+002,-1.652161e+000
6.661926e+002,-2.311035e+000
6.671568e+002,-3.259216e+000
6.681210e+002,-3.547241e+000
6.690853e+002,-3.322388e+000
6.700495e+002,-2.387573e+000
6.710137e+002,-7.592163e-001
6.719780e+002,1.076843e+000
6.729422e+002,2.580811e+000
6.739064e+002,3.551514e+000
6.748707e+002,3.915039e+000
6.758349e+002,3.657349e+000
6.767991e+002,2.790588e+000
6.777634e+002,1.196472e+000
6.787276e+002,-4.979248e-001
6.796918e+002,-4.637451e-001
6.806561e+002,3.642151e+000
6.816203e+002,6.603882e+000
6.825845e+002,5.430298e+000
6.835488e+002,1.972778e+000
6.845130e+002,-4.055786e-001
6.854772e+002,1.029358e+000
6.864415e+002,4.601807e+000
6.874057e+002,5.581665e+000
6.883699e+002,4.119019e+000
6.893342e+002,1.557373e+000
6.902984e+002,-1.361938e+000
6.912626e+002,-4.139893e+000
6.922269e+002,-4.558411e+000
6.931911e+002,8.906860e-001
6.941553e+002,5.627563e+000
6.951196e+002,8.939941e+000
6.960838e+002,1.035852e+001
6.970480e+002,8.979736e+000
6.980123e+002,3.135925e+000
6.989765e+002,-8.140869e-001
6.999407e+002,4.230347e-001
7.009050e+002,3.399658e+000
7.018692e+002,5.741760e+000
7.028334e+002,6.404785e+000
7.037977e+002,5.681824e+000
7.047619e+002,3.428345e+000
7.057261e+002,1.107056e+000
7.066904e+002,1.615051e+000
7.076546e+002,5.363403e+000
7.086188e+002,9.305969e+000
7.095831e+002,8.231323e+000
7.105473e+002,-1.291138e+000
7.115115e+002,-5.703369e+000
7.124758e+002,-2.584778e+000
7.134400e+002,1.681580e+000
7.144042e+002,4.227722e+000
7.153685e+002,5.013611e+000
7.163327e+002,4.193909e+000
7.172969e+002,-4.066772e-001
7.182612e+002,-4.502686e+000
7.192254e+002,-7.002869e+000
7.201896e+002,-7.824219e+000
7.211539e+002,-6.574341e+000
7.221181e+002,-2.400330e+000
7.230823e+002,2.429626e+000
7.240466e+002,9.007568e-001
7.250108e+002,-4.933228e+000
7.259750e+002,-8.874390e+000
7.269393e+002,-7.734863e+000
7.279035e+002,-2.634766e+000
7.288677e+002,1.954041e+000
7.298320e+002,9.984802e+000
7.307962e+002,1.466376e+001
7.317604e+002,1.370673e+001
7.327247e+002,1.001563e+001
7.336889e+002,6.940063e+000
7.346531e+002,4.419006e+000
7.356174e+002,1.834961e+000
7.365816e+002,-1.030151e+000
7.375458e+002,-2.247742e+000
7.385101e+002,1.245972e+000
7.394743e+002,9.111328e+000
7.404385e+002,1.659991e+001
7.414028e+002,1.515961e+001
7.423670e+002,5.931274e+000
7.433312e+002,1.134338e+000
7.442955e+002,2.700500e+000
7.452597e+002,7.014954e+000
7.462239e+002,9.435791e+000
7.471882e+002,8.778503e+000
7.481524e+002,1.019470e+001
7.491166e+002,1.573065e+001
7.500809e+002,1.899445e+001
7.510451e+002,1.605920e+001
7.520093e+002,8.613037e+000
7.529736e+002,3.029602e+000
7.539378e+002,4.044556e+000
7.549020e+002,6.536804e+000
7.558663e+002,6.982422e+000
7.568306e+002,6.441101e+000
7.577948e+002,6.218018e+000
7.587590e+002,6.928894e+000
7.597233e+002,8.034424e+000
7.606875e+002,9.628052e+000
7.616517e+002,1.198560e+001
7.626160e+002,1.293353e+001
7.635802e+002,1.151935e+001
7.645444e+002,9.053467e+000
7.655087e+002,8.172729e+000
7.664729e+002,9.585571e+000
7.674371e+002,1.072467e+001
7.684014e+002,1.151093e+001
7.693656e+002,1.183789e+001
7.703298e+002,1.131091e+001
7.712941e+002,1.016028e+001
7.722583e+002,9.828064e+000
7.732225e+002,1.224847e+001
7.741868e+002,1.502332e+001
7.751510e+002,1.619177e+001
7.761152e+002,1.610529e+001
7.770795e+002,1.588507e+001
7.780437e+002,1.644202e+001
7.790079e+002,1.744714e+001
7.799722e+002,1.733997e+001
7.809364e+002,1.610040e+001
7.819006e+002,1.464435e+001
7.828649e+002,1.391968e+001
7.838291e+002,1.386658e+001
7.847933e+002,1.312134e+001
7.857576e+002,9.620422e+000
7.867218e+002,7.201965e+000
7.876860e+002,8.220825e+000
7.886503e+002,1.033093e+001
7.896145e+002,1.148975e+001
7.905787e+002,1.116705e+001
7.915430e+002,1.064069e+001
7.925072e+002,1.066138e+001
7.934714e+002,1.058862e+001
7.944357e+002,1.076288e+001
7.953999e+002,1.137885e+001
7.963641e+002,1.181982e+001
7.973284e+002,1.109583e+001
7.982926e+002,9.077148e+000
7.992568e+002,8.803772e+000
8.002211e+002,1.019440e+001
8.011853e+002,1.033887e+001
8.021495e+002,8.187378e+000
8.031138e+002,5.471924e+000
8.040780e+002,5.946838e+000
8.050422e+002,1.154962e+001
8.060065e+002,1.662878e+001
8.069707e+002,1.964502e+001
8.079349e+002,2.049200e+001
8.088992e+002,1.861530e+001
8.098634e+002,1.442163e+001
8.108276e+002,1.033960e+001
8.117919e+002,9.625977e+000
8.127561e+002,1.020514e+001
8.137203e+002,1.005951e+001
8.146846e+002,9.556641e+000
8.156488e+002,8.868042e+000
8.166130e+002,7.442261e+000
8.175773e+002,4.327454e+000
8.185415e+002,5.453308e+000
8.195057e+002,1.416687e+001
8.204700e+002,2.107336e+001
8.214342e+002,2.212469e+001
8.223984e+002,1.899713e+001
8.233627e+002,1.631586e+001
8.243269e+002,1.561914e+001
8.252911e+002,1.620691e+001
8.262554e+002,1.811639e+001
8.272196e+002,2.030499e+001
8.281838e+002,2.128662e+001
8.291481e+002,2.071777e+001
8.301123e+002,2.003955e+001
8.310765e+002,2.225922e+001
8.320408e+002,2.671185e+001
8.330050e+002,2.769861e+001
8.339692e+002,2.430005e+001
8.349335e+002,1.985913e+001
8.358977e+002,1.802338e+001
8.368619e+002,1.951788e+001
8.378262e+002,2.079321e+001
8.387904e+002,2.032690e+001
8.397546e+002,2.028571e+001
8.407189e+002,2.151239e+001
8.416831e+002,2.357800e+001
8.426473e+002,2.575952e+001
8.436116e+002,2.787878e+001
8.445758e+002,2.988104e+001
8.455400e+002,3.172479e+001
8.465043e+002,3.222290e+001
8.474685e+002,3.002661e+001
8.484327e+002,2.559717e+001
8.493970e+002,2.118097e+001
8.503612e+002,1.980804e+001
8.513254e+002,2.174023e+001
8.522897e+002,2.376965e+001
8.532539e+002,2.674237e+001
8.542181e+002,2.801984e+001
8.551824e+002,2.539001e+001
8.561466e+002,2.012451e+001
8.571108e+002,1.806604e+001
8.580751e+002,2.055823e+001
8.590393e+002,2.349231e+001
8.600035e+002,2.718579e+001
8.609678e+002,3.079407e+001
8.619320e+002,3.288574e+001
8.628962e+002,3.296790e+001
8.638605e+002,3.289148e+001
8.648247e+002,3.652771e+001
8.657889e+002,4.168921e+001
8.667532e+002,4.372290e+001
8.677174e+002,4.201697e+001
8.686816e+002,3.863635e+001
8.696459e+002,3.566235e+001
8.706101e+002,3.307104e+001
8.715743e+002,3.386450e+001
8.725386e+002,4.293091e+001
8.735028e+002,4.904102e+001
8.744670e+002,4.566211e+001
8.754313e+002,3.742786e+001
8.763955e+002,3.429248e+001
8.773597e+002,4.117249e+001
8.783240e+002,4.868298e+001
8.792882e+002,4.973096e+001
8.802524e+002,4.793799e+001
8.812167e+002,4.575208e+001
8.821809e+002,4.415002e+001
8.831451e+002,4.344714e+001
8.841094e+002,4.427808e+001
8.850736e+002,4.692932e+001
8.860378e+002,4.830847e+001
8.870021e+002,4.794189e+001
8.879663e+002,4.701709e+001
8.889305e+002,4.555322e+001
8.898948e+002,4.359375e+001
8.908590e+002,4.238635e+001
8.918232e+002,4.290466e+001
8.927875e+002,4.379871e+001
8.937517e+002,4.459717e+001
8.947159e+002,4.575708e+001
8.956802e+002,4.764014e+001
8.966444e+002,4.984155e+001
8.976086e+002,5.110730e+001
8.985729e+002,5.021118e+001
8.995371e+002,4.883679e+001
9.005013e+002,4.896240e+001
9.014656e+002,5.080811e+001
9.024298e+002,5.414465e+001
9.033940e+002,5.869421e+001
9.043583e+002,6.357581e+001
9.053225e+002,6.543372e+001
9.062867e+002,5.938623e+001
9.072510e+002,5.579004e+001
9.082152e+002,5.815967e+001
9.091794e+002,6.220117e+001
9.101437e+002,6.263354e+001
9.111079e+002,5.850647e+001
9.120721e+002,5.630176e+001
9.130364e+002,6.193701e+001
9.140006e+002,6.786243e+001
9.149648e+002,7.061243e+001
9.159291e+002,7.082764e+001
9.168933e+002,6.987146e+001
9.178575e+002,6.847314e+001
9.188218e+002,6.658459e+001
9.197860e+002,6.510706e+001
9.207502e+002,6.378882e+001
9.217145e+002,6.217407e+001
9.226787e+002,6.125525e+001
9.236429e+002,6.038721e+001
9.246072e+002,5.753613e+001
9.255714e+002,5.140332e+001
9.265356e+002,4.783276e+001
9.274999e+002,5.105481e+001
9.284641e+002,5.289807e+001
9.294283e+002,4.910205e+001
9.303926e+002,4.267175e+001
9.313568e+002,3.928418e+001
9.323210e+002,4.193787e+001
9.332853e+002,4.692224e+001
9.342495e+002,4.894348e+001
9.352137e+002,4.897266e+001
9.361780e+002,4.871045e+001
9.371422e+002,4.895935e+001
9.381064e+002,4.892993e+001
9.390707e+002,4.659644e+001
9.400349e+002,4.039124e+001
9.409991e+002,3.846619e+001
9.419634e+002,4.342932e+001
9.429276e+002,4.836865e+001
9.438918e+002,5.217786e+001
9.448561e+002,5.486487e+001
9.458203e+002,5.625171e+001
9.467845e+002,5.608850e+001
9.477488e+002,5.666968e+001
9.487130e+002,6.104895e+001
9.496772e+002,6.567334e+001
9.506415e+002,6.725659e+001
9.516057e+002,6.601270e+001
9.525699e+002,6.459961e+001
9.535342e+002,6.559839e+001
9.544984e+002,6.821631e+001
9.554626e+002,6.702307e+001
9.564269e+002,6.186011e+001
9.573911e+002,5.863123e+001
9.583553e+002,5.904578e+001
9.593196e+002,6.185571e+001
9.602838e+002,6.583105e+001
9.612480e+002,7.161902e+001
9.622123e+002,7.461938e+001
9.631765e+002,7.142737e+001
9.641407e+002,6.776196e+001
9.651050e+002,6.566516e+001
9.660692e+002,6.489819e+001
9.670334e+002,6.483618e+001
9.679977e+002,6.545947e+001
9.689619e+002,6.664539e+001
9.699261e+002,6.681714e+001
9.708904e+002,6.585767e+001
9.718546e+002,6.444812e+001
9.728188e+002,6.225940e+001
9.737831e+002,6.046582e+001
9.747473e+002,6.126477e+001
9.757115e+002,6.561194e+001
9.766758e+002,6.846289e+001
9.776400e+002,6.894507e+001
9.786042e+002,6.996375e+001
9.795685e+002,7.333154e+001
9.805327e+002,7.630725e+001
9.814969e+002,7.473328e+001
9.824612e+002,6.756213e+001
9.834254e+002,6.088660e+001
9.843896e+002,6.056787e+001
9.853539e+002,6.315820e+001
9.863181e+002,6.578137e+001
9.872823e+002,6.766919e+001
9.882466e+002,6.870068e+001
9.892108e+002,6.927478e+001
9.901750e+002,7.048657e+001
9.911393e+002,7.428259e+001
9.921035e+002,8.113989e+001
9.930677e+002,8.646277e+001
9.940320e+002,8.921301e+001
9.949962e+002,9.223047e+001
9.959604e+002,9.853760e+001
9.969247e+002,1.082986e+002
9.978889e+002,1.178354e+002
9.988531e+002,1.243494e+002
9.998174e+002,1.295569e+002
1.000782e+003,1.360143e+002
1.001746e+003,1.425142e+002
1.002710e+003,1.462628e+002
1.003674e+003,1.463253e+002
1.004639e+003,1.453556e+002
1.005603e+003,1.483060e+002
1.006567e+003,1.554196e+002
1.007531e+003,1.596151e+002
1.008495e+003,1.602224e+002
1.009460e+003,1.597546e+002
1.010424e+003,1.597869e+002
1.011388e+003,1.602240e+002
1.012352e+003,1.601198e+002
1.013317e+003,1.591958e+002
1.014281e+003,1.571208e+002
1.015245e+003,1.538495e+002
1.016209e+003,1.491217e+002
1.017174e+003,1.428110e+002
1.018138e+003,1.351147e+002
1.019102e+003,1.262231e+002
1.020066e+003,1.162471e+002
1.021031e+003,1.062540e+002
1.021995e+003,9.793884e+001
1.022959e+003,9.049158e+001
1.023923e+003,8.434180e+001
1.024887e+003,7.981140e+001
1.025852e+003,7.604272e+001
1.026816e+003,7.203247e+001
1.027780e+003,6.828088e+001
1.028744e+003,6.425146e+001
1.029709e+003,5.837048e+001
1.030673e+003,5.371179e+001
1.031637e+003,5.156824e+001
1.032601e+003,5.067590e+001
1.033566e+003,4.954944e+001
1.034530e+003,4.782788e+001
1.035494e+003,4.606873e+001
1.036458e+003,4.343091e+001
1.037422e+003,4.173547e+001
1.038387e+003,4.575989e+001
1.039351e+003,5.459033e+001
1.040315e+003,6.125549e+001
1.041279e+003,6.053357e+001
1.042244e+003,5.423621e+001
1.043208e+003,4.996521e+001
1.044172e+003,4.769409e+001
1.045136e+003,4.665564e+001
1.046101e+003,4.848169e+001
1.047065e+003,5.039929e+001
1.048029e+003,5.013135e+001
1.048993e+003,4.802734e+001
1.049958e+003,4.653870e+001
1.050922e+003,4.741797e+001
1.051886e+003,4.869116e+001
1.052850e+003,4.696558e+001
1.053814e+003,4.473035e+001
1.054779e+003,4.604224e+001
1.055743e+003,5.124500e+001
1.056707e+003,5.653381e+001
1.057671e+003,5.723499e+001
1.058636e+003,5.318640e+001
1.059600e+003,5.160254e+001
1.060564e+003,5.653271e+001
1.061528e+003,5.948291e+001
1.062493e+003,5.701343e+001
1.063457e+003,5.238757e+001
1.064421e+003,4.964197e+001
1.065385e+003,4.946326e+001
1.066349e+003,4.938318e+001
1.067314e+003,4.781396e+001
1.068278e+003,4.649670e+001
1.069242e+003,4.762659e+001
1.070206e+003,4.981641e+001
1.071171e+003,4.988379e+001
1.072135e+003,4.662134e+001
1.073099e+003,4.276843e+001
1.074063e+003,4.358301e+001
1.075028e+003,4.991956e+001
1.075992e+003,5.341150e+001
1.076956e+003,5.329761e+001
1.077920e+003,5.135205e+001
1.078885e+003,4.687231e+001
1.079849e+003,4.227258e+001
1.080813e+003,4.251465e+001
1.081777e+003,4.947522e+001
1.082741e+003,5.503345e+001
1.083706e+003,5.201501e+001
1.084670e+003,4.782690e+001
1.085634e+003,4.692322e+001
1.086598e+003,4.798010e+001
1.087563e+003,4.757910e+001
1.088527e+003,4.421667e+001
1.089491e+003,4.021484e+001
1.090455e+003,3.926904e+001
1.091420e+003,4.130688e+001
1.092384e+003,4.374353e+001
1.093348e+003,4.706042e+001
1.094312e+003,4.905212e+001
1.095276e+003,4.809534e+001
1.096241e+003,4.556958e+001
1.097205e+003,4.481982e+001
1.098169e+003,4.660059e+001
1.099133e+003,4.764160e+001
1.100098e+003,4.591321e+001
1.101062e+003,4.440344e+001
1.102026e+003,4.506165e+001
1.102990e+003,4.761243e+001
1.103955e+003,5.096692e+001
1.104919e+003,5.431995e+001
1.105883e+003,5.707166e+001
1.106847e+003,5.808911e+001
1.107812e+003,5.723596e+001
1.108776e+003,5.709387e+001
1.109740e+003,5.826465e+001
1.110704e+003,5.914941e+001
1.111668e+003,5.787378e+001
1.112633e+003,5.588184e+001
1.113597e+003,5.853076e+001
1.114561e+003,6.867834e+001
1.115525e+003,7.664307e+001
1.116490e+003,7.809351e+001
1.117454e+003,7.782373e+001
1.118418e+003,7.888196e+001
1.119382e+003,8.165869e+001
1.120347e+003,8.530420e+001
1.121311e+003,8.879785e+001
1.122275e+003,9.069775e+001
1.123239e+003,8.903796e+001
1.124203e+003,8.500378e+001
1.125168e+003,8.335486e+001
1.126132e+003,8.460291e+001
1.127096e+003,8.834839e+001
1.128060e+003,9.432373e+001
1.129025e+003,1.021276e+002
1.129989e+003,1.115999e+002
1.130953e+003,1.255454e+002
1.131917e+003,1.336945e+002
1.132882e+003,1.296033e+002
1.133846e+003,1.240256e+002
1.134810e+003,1.221250e+002
1.135774e+003,1.245807e+002
1.136739e+003,1.307603e+002
1.137703e+003,1.401814e+002
1.138667e+003,1.515947e+002
1.139631e+003,1.633361e+002
1.140595e+003,1.751874e+002
1.141560e+003,1.866460e+002
1.142524e+003,1.974618e+002
1.143488e+003,2.105331e+002
1.144452e+003,2.276798e+002
1.145417e+003,2.484092e+002
1.146381e+003,2.710942e+002
1.147345e+003,2.958257e+002
1.148309e+003,3.216162e+002
1.149274e+003,3.485189e+002
1.150238e+003,3.766600e+002
1.151202e+003,4.077205e+002
1.152166e+003,4.403624e+002
1.153130e+003,4.728259e+002
1.154095e+003,5.033767e+002
1.155059e+003,5.287527e+002
1.156023e+003,5.452784e+002
1.156987e+003,5.531113e+002
1.157952e+003,5.566207e+002
1.158916e+003,5.576411e+002
1.159880e+003,5.520447e+002
1.160844e+003,5.345758e+002
1.161809e+003,5.076021e+002
1.162773e+003,4.777450e+002
1.163737e+003,4.444500e+002
1.164701e+003,4.113719e+002
1.165666e+003,3.775642e+002
1.166630e+003,3.471458e+002
1.167594e+003,3.214358e+002
1.168558e+003,2.999989e+002
1.169522e+003,2.814749e+002
1.170487e+003,2.659154e+002
1.171451e+003,2.567142e+002
1.172415e+003,2.585428e+002
1.173379e+003,2.685170e+002
1.174344e+003,2.723575e+002
1.175308e+003,2.704727e+002
1.176272e+003,2.661805e+002
1.177236e+003,2.600449e+002
1.178201e+003,2.528408e+002
1.179165e+003,2.451455e+002
1.180129e+003,2.364606e+002
1.181093e+003,2.261130e+002
1.182057e+003,2.118129e+002
1.183022e+003,1.998494e+002
1.183986e+003,1.922494e+002
1.184950e+003,1.879819e+002
1.185914e+003,1.868701e+002
1.186879e+003,1.883593e+002
1.187843e+003,1.912346e+002
1.188807e+003,1.943306e+002
1.189771e+003,1.975658e+002
1.190736e+003,2.019944e+002
1.191700e+003,2.079456e+002
1.192664e+003,2.101663e+002
1.193628e+003,2.064072e+002
1.194593e+003,2.019973e+002
1.195557e+003,2.015138e+002
1.196521e+003,2.032725e+002
1.197485e+003,2.014286e+002
1.198449e+003,1.944847e+002
1.199414e+003,1.863129e+002
1.200378e+003,1.778062e+002
1.201342e+003,1.695524e+002
1.202306e+003,1.607316e+002
1.203271e+003,1.523162e+002
1.204235e+003,1.470006e+002
1.205199e+003,1.458750e+002
1.206163e+003,1.459983e+002
1.207128e+003,1.421899e+002
1.208092e+003,1.342604e+002
1.209056e+003,1.274349e+002
1.210020e+003,1.232380e+002
1.210984e+003,1.171582e+002
1.211949e+003,1.056232e+002
1.212913e+003,9.263525e+001
1.213877e+003,8.411755e+001
1.214841e+003,8.047913e+001
1.215806e+003,7.631116e+001
1.216770e+003,6.879248e+001
1.217734e+003,6.110913e+001
1.218698e+003,5.383557e+001
1.219663e+003,4.804309e+001
1.220627e+003,4.641980e+001
1.221591e+003,4.844019e+001
1.222555e+003,4.962927e+001
1.223520e+003,4.585437e+001
1.224484e+003,3.875000e+001
1.225448e+003,3.501611e+001
1.226412e+003,3.645361e+001
1.227376e+003,3.720178e+001
1.228341e+003,3.675159e+001
1.229305e+003,3.580615e+001
1.230269e+003,3.439148e+001
1.231233e+003,3.277917e+001
1.232198e+003,3.172278e+001
1.233162e+003,3.169788e+001
1.234126e+003,3.213330e+001
1.235090e+003,3.208655e+001
1.236055e+003,3.203735e+001
1.237019e+003,3.253186e+001
1.237983e+003,3.337756e+001
1.238947e+003,3.467615e+001
1.239911e+003,3.673535e+001
1.240876e+003,3.905750e+001
1.241840e+003,4.065540e+001
1.242804e+003,4.156836e+001
1.243768e+003,4.172559e+001
1.244733e+003,4.096875e+001
1.245697e+003,3.958875e+001
1.246661e+003,3.496460e+001
1.247625e+003,3.099231e+001
1.248590e+003,3.169116e+001
1.249554e+003,3.634705e+001
1.250518e+003,4.125952e+001
1.251482e+003,4.452881e+001
1.252447e+003,4.655823e+001
1.253411e+003,4.785034e+001
1.254375e+003,4.910364e+001
1.255339e+003,5.148560e+001
1.256303e+003,5.522644e+001
1.257268e+003,5.889014e+001
1.258232e+003,6.115588e+001
1.259196e+003,6.216345e+001
1.260160e+003,6.255811e+001
1.261125e+003,6.228906e+001
1.262089e+003,6.506250e+001
1.263053e+003,7.349915e+001
1.264017e+003,8.117200e+001
1.264982e+003,8.829138e+001
1.265946e+003,9.321289e+001
1.266910e+003,9.369434e+001
1.267874e+003,9.044543e+001
1.268839e+003,8.636340e+001
1.269803e+003,8.339355e+001
1.270767e+003,8.098792e+001
1.271731e+003,7.811304e+001
1.272695e+003,7.507813e+001
1.273660e+003,7.296301e+001
1.274624e+003,7.188440e+001
1.275588e+003,6.897388e+001
1.276552e+003,6.164465e+001
1.277517e+003,5.292078e+001
1.278481e+003,4.781738e+001
1.279445e+003,4.656396e+001
1.280409e+003,4.672070e+001
1.281374e+003,4.920898e+001
1.282338e+003,5.086060e+001
1.283302e+003,4.897925e+001
1.284266e+003,4.594885e+001
1.285230e+003,4.493567e+001
1.286195e+003,4.588086e+001
1.287159e+003,4.612805e+001
1.288123e+003,4.372852e+001
1.289087e+003,3.966968e+001
1.290052e+003,3.578467e+001
1.291016e+003,3.116614e+001
1.291980e+003,2.865845e+001
1.292944e+003,2.904724e+001
1.293909e+003,2.931287e+001
1.294873e+003,2.887354e+001
1.295837e+003,2.821143e+001
1.296801e+003,2.729980e+001
1.297766e+003,2.633533e+001
1.298730e+003,2.737756e+001
1.299694e+003,3.280164e+001
1.300658e+003,3.729529e+001
1.301622e+003,3.366931e+001
1.302587e+003,2.633398e+001
1.303551e+003,2.167212e+001
1.304515e+003,2.104407e+001
1.305479e+003,2.283472e+001
1.306444e+003,2.569629e+001
1.307408e+003,2.921326e+001
1.308372e+003,3.287097e+001
1.309336e+003,3.693726e+001
1.310301e+003,4.013123e+001
1.311265e+003,4.407690e+001
1.312229e+003,4.572998e+001
1.313193e+003,4.201868e+001
1.314157e+003,3.672168e+001
1.315122e+003,3.401013e+001
1.316086e+003,3.389697e+001
1.317050e+003,3.324341e+001
1.318014e+003,3.017212e+001
1.318979e+003,2.640491e+001
1.319943e+003,2.426965e+001
1.320907e+003,2.414087e+001
1.321871e+003,2.649744e+001
1.322836e+003,3.148022e+001
1.323800e+003,3.588135e+001
1.324764e+003,3.811609e+001
1.325728e+003,3.888440e+001
1.326693e+003,3.899585e+001
1.327657e+003,3.816650e+001
1.328621e+003,3.667822e+001
1.329585e+003,3.559692e+001
1.330549e+003,3.535205e+001
1.331514e+003,3.423401e+001
1.332478e+003,3.300903e+001
1.333442e+003,3.371838e+001
1.334406e+003,3.585730e+001
1.335371e+003,3.625769e+001
1.336335e+003,3.311731e+001
1.337299e+003,2.942542e+001
1.338263e+003,3.102185e+001
1.339228e+003,3.898743e+001
1.340192e+003,4.222217e+001
1.341156e+003,3.664978e+001
1.342120e+003,3.265149e+001
1.343084e+003,3.174963e+001
1.344049e+003,3.187073e+001
1.345013e+003,3.177124e+001
1.345977e+003,3.195361e+001
1.346941e+003,3.425916e+001
1.347906e+003,3.953381e+001
1.348870e+003,4.328906e+001
1.349834e+003,4.007739e+001
1.350798e+003,3.307666e+001
1.351763e+003,2.882654e+001
1.352727e+003,2.727136e+001
1.353691e+003,2.697729e+001
1.354655e+003,2.762183e+001
1.355620e+003,2.891296e+001
1.356584e+003,3.105676e+001
1.357548e+003,3.400452e+001
1.358512e+003,3.553870e+001
1.359476e+003,3.453198e+001
1.360441e+003,3.289001e+001
1.361405e+003,3.117834e+001
1.362369e+003,2.948401e+001
1.363333e+003,2.779102e+001
1.364298e+003,2.621594e+001
1.365262e+003,2.496887e+001
1.366226e+003,2.405579e+001
1.367190e+003,2.333484e+001
1.368155e+003,2.269849e+001
1.369119e+003,2.184167e+001
1.370083e+003,1.971741e+001
1.371047e+003,1.558728e+001
1.372011e+003,1.511743e+001
1.372976e+003,2.078308e+001
1.373940e+003,2.544763e+001
1.374904e+003,2.600281e+001
1.375868e+003,2.494397e+001
1.376833e+003,2.520959e+001
1.377797e+003,2.679968e+001
1.378761e+003,2.794543e+001
1.379725e+003,2.786218e+001
1.380690e+003,2.779724e+001
1.381654e+003,2.982312e+001
1.382618e+003,3.250586e+001
1.383582e+003,3.345422e+001
1.384547e+003,3.277332e+001
1.385511e+003,3.221826e+001
1.386475e+003,3.233337e+001
1.387439e+003,3.318347e+001
1.388403e+003,3.565076e+001
1.389368e+003,3.966333e+001
1.390332e+003,4.129297e+001
1.391296e+003,3.963379e+001
1.392260e+003,3.793494e+001
1.393225e+003,3.626550e+001
1.394189e+003,3.518152e+001
1.395153e+003,3.579187e+001
1.396117e+003,3.690198e+001
1.397082e+003,3.630713e+001
1.398046e+003,3.395337e+001
1.399010e+003,3.247375e+001
1.399974e+003,3.401453e+001
1.400938e+003,3.670227e+001
1.401903e+003,3.629150e+001
1.402867e+003,3.306409e+001
1.403831e+003,3.246143e+001
1.404795e+003,3.474353e+001
1.405760e+003,3.770825e+001
1.406724e+003,4.112866e+001
1.407688e+003,4.258936e+001
1.408652e+003,3.881494e+001
1.409617e+003,3.157410e+001
1.410581e+003,2.791821e+001
1.411545e+003,3.105603e+001
1.412509e+003,3.593799e+001
1.413474e+003,3.812195e+001
1.414438e+003,3.765149e+001
1.415402e+003,3.482947e+001
1.416366e+003,3.077197e+001
1.417330e+003,2.920190e+001
1.418295e+003,3.211523e+001
1.419259e+003,3.596790e+001
1.420223e+003,3.601233e+001
1.421187e+003,3.261938e+001
1.422152e+003,2.999402e+001
1.423116e+003,2.815918e+001
1.424080e+003,2.951074e+001
1.425044e+003,3.795886e+001
1.426009e+003,4.511133e+001
1.426973e+003,4.748438e+001
1.427937e+003,4.655713e+001
1.428901e+003,4.280481e+001
1.429865e+003,3.805835e+001
1.430830e+003,3.650513e+001
1.431794e+003,4.055945e+001
1.432758e+003,4.702380e+001
1.433722e+003,5.030542e+001
1.434687e+003,5.103735e+001
1.435651e+003,5.173108e+001
1.436615e+003,4.856604e+001
1.437579e+003,4.718286e+001
1.438544e+003,4.969434e+001
1.439508e+003,5.299304e+001
1.440472e+003,5.602014e+001
1.441436e+003,5.867664e+001
1.442401e+003,6.090283e+001
1.443365e+003,6.238818e+001
1.444329e+003,6.168677e+001
1.445293e+003,5.717859e+001
1.446257e+003,5.219214e+001
1.447222e+003,5.428369e+001
1.448186e+003,6.156726e+001
1.449150e+003,6.354663e+001
1.450114e+003,5.796460e+001
1.451079e+003,5.191125e+001
1.452043e+003,4.857971e+001
1.453007e+003,4.783081e+001
1.453971e+003,5.006262e+001
1.454936e+003,5.449182e+001
1.455900e+003,5.747742e+001
1.456864e+003,5.878015e+001
1.457828e+003,5.787219e+001
1.458792e+003,5.189282e+001
1.459757e+003,4.504724e+001
1.460721e+003,3.986707e+001
1.461685e+003,3.675159e+001
1.462649e+003,3.692310e+001
1.463614e+003,4.057080e+001
1.464578e+003,4.485498e+001
1.465542e+003,4.715991e+001
1.466506e+003,4.766968e+001
1.467471e+003,4.723389e+001
1.468435e+003,4.597437e+001
1.469399e+003,4.654163e+001
1.470363e+003,4.911279e+001
1.471328e+003,5.215576e+001
1.472292e+003,5.613770e+001
1.473256e+003,5.857263e+001
1.474220e+003,5.782813e+001
1.475184e+003,5.545215e+001
1.476149e+003,5.345557e+001
1.477113e+003,5.237280e+001
1.478077e+003,5.205566e+001
1.479041e+003,5.285986e+001
1.480006e+003,5.486267e+001
1.480970e+003,5.714404e+001
1.481934e+003,5.930017e+001
1.482898e+003,6.074438e+001
1.483863e+003,6.009265e+001
1.484827e+003,6.046643e+001
1.485791e+003,6.403674e+001
1.486755e+003,6.877051e+001
1.487719e+003,7.292126e+001
1.488684e+003,7.594324e+001
1.489648e+003,7.717468e+001
1.490612e+003,7.680688e+001
1.491576e+003,7.773755e+001
1.492541e+003,8.223535e+001
1.493505e+003,8.893921e+001
1.494469e+003,9.507898e+001
1.495433e+003,1.002681e+002
1.496398e+003,1.063740e+002
1.497362e+003,1.148844e+002
1.498326e+003,1.234066e+002
1.499290e+003,1.295516e+002
1.500255e+003,1.355989e+002
1.501219e+003,1.445868e+002
1.502183e+003,1.560482e+002
1.503147e+003,1.674604e+002
1.504111e+003,1.778461e+002
1.505076e+003,1.903779e+002
1.506040e+003,2.076437e+002
1.507004e+003,2.275023e+002
1.507968e+003,2.459337e+002
1.508933e+003,2.655507e+002
1.509897e+003,2.924495e+002
1.510861e+003,3.284194e+002
1.511825e+003,3.688116e+002
1.512790e+003,4.100220e+002
1.513754e+003,4.524205e+002
1.514718e+003,4.977325e+002
1.515682e+003,5.453328e+002
1.516646e+003,5.948986e+002
1.517611e+003,6.505883e+002
1.518575e+003,6.998082e+002
1.519539e+003,7.384478e+002
1.520503e+003,7.710682e+002
1.521468e+003,8.016840e+002
1.522432e+003,8.262272e+002
1.523396e+003,8.384310e+002
1.524360e+003,8.381282e+002
1.525325e+003,8.307336e+002
1.526289e+003,8.200096e+002
1.527253e+003,8.046282e+002
1.528217e+003,7.819734e+002
1.529182e+003,7.525634e+002
1.530146e+003,7.158615e+002
1.531110e+003,6.697588e+002
1.532074e+003,6.185673e+002
1.533039e+003,5.599110e+002
1.534003e+003,4.974010e+002
1.534967e+003,4.297695e+002
1.535931e+003,3.636777e+002
1.536896e+003,3.037772e+002
1.537860e+003,2.524697e+002
1.538824e+003,2.127137e+002
1.539788e+003,1.852820e+002
1.540752e+003,1.647554e+002
1.541717e+003,1.444219e+002
1.542681e+003,1.252893e+002
1.543645e+003,1.114275e+002
1.544609e+003,1.059724e+002
1.545573e+003,9.976294e+001
1.546538e+003,9.032178e+001
1.547502e+003,8.167236e+001
1.548466e+003,7.565454e+001
1.549430e+003,7.229871e+001
1.550395e+003,7.245032e+001
1.551359e+003,7.430591e+001
1.552323e+003,7.386230e+001
1.553287e+003,6.989380e+001
1.554252e+003,6.477136e+001
1.555216e+003,6.025525e+001
1.556180e+003,5.655078e+001
1.557144e+003,5.447034e+001
1.558109e+003,5.431494e+001
1.559073e+003,5.392261e+001
1.560037e+003,5.213330e+001
1.561001e+003,5.053699e+001
1.561966e+003,5.202637e+001
1.562930e+003,5.333862e+001
1.563894e+003,4.893945e+001
1.564858e+003,4.179785e+001
1.565823e+003,4.100525e+001
1.566787e+003,4.775964e+001
1.567751e+003,5.194617e+001
1.568715e+003,4.702576e+001
1.569679e+003,4.074426e+001
1.570644e+003,4.404663e+001
1.571608e+003,5.261218e+001
1.572572e+003,5.427405e+001
1.573536e+003,4.890942e+001
1.574500e+003,4.526904e+001
1.575465e+003,4.691553e+001
1.576429e+003,4.948315e+001
1.577393e+003,4.874377e+001
1.578357e+003,4.641040e+001
1.579322e+003,4.617566e+001
1.580286e+003,4.843091e+001
1.581250e+003,5.245190e+001
1.582214e+003,5.888428e+001
1.583179e+003,6.364246e+001
1.584143e+003,6.189233e+001
1.585107e+003,5.782642e+001
1.586071e+003,5.859070e+001
1.587036e+003,6.302051e+001
1.588000e+003,6.521460e+001
1.588964e+003,6.337793e+001
1.589928e+003,6.093677e+001
1.590893e+003,6.027246e+001
1.591857e+003,6.037549e+001
1.592821e+003,5.949329e+001
1.593785e+003,5.805078e+001
1.594750e+003,5.812219e+001
1.595714e+003,5.997546e+001
1.596678e+003,6.131616e+001
1.597642e+003,6.042896e+001
1.598606e+003,6.012219e+001
1.599571e+003,6.387170e+001
1.600535e+003,6.911475e+001
1.601499e+003,7.236035e+001
1.602463e+003,7.344873e+001
1.603427e+003,7.404834e+001
1.604392e+003,7.489465e+001
1.605356e+003,7.540344e+001
1.606320e+003,7.559485e+001
1.607284e+003,7.486584e+001
1.608249e+003,7.051135e+001
1.609213e+003,6.236584e+001
1.610177e+003,5.656848e+001
1.611141e+003,5.501929e+001
1.612106e+003,5.368591e+001
1.613070e+003,4.987329e+001
1.614034e+003,4.616699e+001
1.614998e+003,4.469788e+001
1.615963e+003,4.459631e+001
1.616927e+003,4.412598e+001
1.617891e+003,4.294250e+001
1.618855e+003,4.192908e+001
1.619820e+003,4.148987e+001
1.620784e+003,4.033533e+001
1.621748e+003,3.681885e+001
1.622712e+003,3.236914e+001
1.623677e+003,3.163135e+001
1.624641e+003,3.549402e+001
1.625605e+003,3.828894e+001
1.626569e+003,3.627307e+001
1.627533e+003,3.444739e+001
1.628498e+003,3.755481e+001
1.629462e+003,4.114771e+001
1.630426e+003,3.984827e+001
1.631390e+003,3.612292e+001
1.632354e+003,3.664612e+001
1.633319e+003,4.252808e+001
1.634283e+003,4.777136e+001
1.635247e+003,4.769812e+001
1.636211e+003,4.486633e+001
1.637176e+003,4.423828e+001
1.638140e+003,4.587085e+001
1.639104e+003,4.690735e+001
1.640068e+003,4.728735e+001
1.641033e+003,4.580664e+001
1.641997e+003,4.015845e+001
1.642961e+003,3.605408e+001
1.643925e+003,3.712976e+001
1.644890e+003,4.014636e+001
1.645854e+003,4.156226e+001
1.646818e+003,4.199683e+001
1.647782e+003,4.480334e+001
1.648747e+003,5.065356e+001
1.649711e+003,5.478748e+001
1.650675e+003,5.318469e+001
1.651639e+003,4.877014e+001
1.652604e+003,4.682605e+001
1.653568e+003,4.695081e+001
1.654532e+003,4.682166e+001
1.655496e+003,4.661475e+001
1.656460e+003,4.505701e+001
1.657425e+003,3.994983e+001
1.658389e+003,3.639478e+001
1.659353e+003,3.942603e+001
1.660317e+003,4.347925e+001
1.661281e+003,4.181531e+001
1.662246e+003,3.564404e+001
1.663210e+003,3.038965e+001
1.664174e+003,2.805383e+001
1.665138e+003,2.712036e+001
1.666103e+003,2.620996e+001
1.667067e+003,2.524463e+001
1.668031e+003,2.427063e+001
1.668995e+003,2.347693e+001
1.669960e+003,2.395679e+001
1.670924e+003,2.640442e+001
1.671888e+003,2.807312e+001
1.672852e+003,2.676172e+001
1.673817e+003,2.585059e+001
1.674781e+003,2.902576e+001
1.675745e+003,3.247839e+001
1.676709e+003,3.106738e+001
1.677674e+003,2.615015e+001
1.678638e+003,2.301941e+001
1.679602e+003,2.333142e+001
1.680566e+003,2.414331e+001
1.681531e+003,2.331421e+001
1.682495e+003,2.220081e+001
1.683459e+003,2.276038e+001
1.684423e+003,2.439160e+001
1.685387e+003,2.514063e+001
1.686352e+003,2.486499e+001
1.687316e+003,2.512280e+001
1.688280e+003,2.695007e+001
1.689244e+003,2.836035e+001
1.690208e+003,2.669373e+001
1.691173e+003,2.434595e+001
1.692137e+003,2.484412e+001
1.693101e+003,2.754541e+001
1.694065e+003,2.847546e+001
1.695030e+003,2.610925e+001
1.695994e+003,2.382312e+001
1.696958e+003,2.413281e+001
1.697922e+003,2.565295e+001
1.698887e+003,2.701794e+001
1.699851e+003,2.825500e+001
1.700815e+003,2.906104e+001
1.701779e+003,2.913611e+001
1.702744e+003,2.792529e+001
1.703708e+003,2.550793e+001
1.704672e+003,2.333630e+001
1.705636e+003,2.179272e+001
1.706601e+003,2.021460e+001
1.707565e+003,1.864661e+001
1.708529e+003,1.736584e+001
1.709493e+003,1.577649e+001
1.710458e+003,1.358289e+001
1.711422e+003,1.239648e+001
1.712386e+003,1.405542e+001
1.713350e+003,1.639783e+001
1.714314e+003,1.770703e+001
1.715279e+003,1.758472e+001
1.716243e+003,1.488074e+001
1.717207e+003,1.051782e+001
1.718171e+003,8.807129e+000
1.719135e+003,1.104797e+001
1.720100e+003,1.377209e+001
1.721064e+003,1.464368e+001
1.722028e+003,1.406702e+001
1.722992e+003,1.252539e+001
1.723957e+003,1.103357e+001
1.724921e+003,1.280994e+001
1.725885e+003,1.805103e+001
1.726849e+003,1.929224e+001
1.727814e+003,1.277490e+001
1.728778e+003,7.619995e+000
1.729742e+003,8.482300e+000
1.730706e+003,1.137305e+001
1.731671e+003,1.223059e+001
1.732635e+003,1.104529e+001
1.733599e+003,9.338379e+000
1.734563e+003,8.203125e+000
1.735528e+003,8.814087e+000
1.736492e+003,1.152966e+001
1.737456e+003,1.405725e+001
1.738420e+003,1.362659e+001
1.739385e+003,1.063794e+001
1.740349e+003,8.190674e+000
1.741313e+003,6.958496e+000
1.742277e+003,4.911987e+000
1.743241e+003,1.502686e-001
1.744206e+003,-1.557129e+000
1.745170e+003,3.051025e+000
1.746134e+003,7.375122e+000
1.747098e+003,7.900146e+000
1.748063e+003,6.014648e+000
1.749027e+003,2.767090e+000
1.749991e+003,-8.211670e-001
1.750955e+003,-3.560791e+000
1.751919e+003,-5.083130e+000
1.752884e+003,-5.479614e+000
1.753848e+003,-4.790405e+000
1.754812e+003,-4.016113e+000
1.755776e+003,-5.087891e+000
1.756741e+003,-7.410889e+000
1.757705e+003,-6.473267e+000
1.758669e+003,-1.236816e+000
1.759633e+003,2.925903e+000
1.760598e+003,5.215820e+000
1.761562e+003,5.845337e+000
1.762526e+003,4.044312e+000
1.763490e+003,2.512329e+000
1.764455e+003,3.780884e+000
1.765419e+003,6.412842e+000
1.766383e+003,7.974487e+000
1.767347e+003,7.780396e+000
1.768312e+003,5.825806e+000
1.769276e+003,1.897461e+000
1.770240e+003,-1.519165e+000
1.771204e+003,-8.283691e-001
1.772168e+003,2.808105e+000
1.773133e+003,6.258545e+000
1.774097e+003,9.307983e+000
1.775061e+003,9.518799e+000
1.776025e+003,5.691284e+000
1.776990e+003,1.892822e+000
1.777954e+003,-3.199463e-001
1.778918e+003,-8.211670e-001
1.779882e+003,1.227051e+000
1.780846e+003,3.426147e+000
1.781811e+003,2.478882e+000
1.782775e+003,-3.671875e-001
1.783739e+003,-1.112793e+000
1.784703e+003,1.195068e+000
1.785668e+003,3.071167e+000
1.786632e+003,2.033936e+000
1.787596e+003,2.119141e-001
1.788560e+003,-2.008057e-001
1.789525e+003,5.080566e-001
1.790489e+003,1.124268e+000
1.791453e+003,1.556519e+000
1.792417e+003,2.596436e+000
1.793382e+003,4.421997e+000
1.794346e+003,6.904907e+000
1.795310e+003,1.006299e+001
1.796274e+003,1.178333e+001
1.797239e+003,9.718140e+000
1.798203e+003,5.656738e+000
1.799167e+003,3.004395e+000
1.800131e+003,4.467773e-001
1.801095e+003,4.761963e-001
1.802060e+003,8.497559e+000
1.803024e+003,1.233655e+001
1.803988e+003,6.499756e+000
1.804952e+003,8.214111e-001
1.805917e+003,6.129150e-001
1.806881e+003,2.197510e+000
1.807845e+003,1.548218e+000
1.808809e+003,-1.405029e-001
1.809773e+003,8.925781e-001
1.810738e+003,4.805786e+000
1.811702e+003,7.405762e+000
1.812666e+003,6.072266e+000
1.813630e+003,3.732910e+000
1.814595e+003,4.553467e+000
1.815559e+003,7.229248e+000
1.816523e+003,6.499634e+000
1.817487e+003,1.973267e+000
1.818452e+003,1.660156e-001
1.819416e+003,2.779175e+000
1.820380e+003,5.654785e+000
1.821344e+003,8.149414e+000
1.822309e+003,8.854370e+000
1.823273e+003,5.687378e+000
1.824237e+003,2.188599e+000
1.825201e+003,2.087402e+000
1.826166e+003,4.132324e+000
1.827130e+003,4.957031e+000
1.828094e+003,3.797852e+000
1.829058e+003,2.348389e+000
1.830022e+003,2.005005e+000
1.830987e+003,1.261230e+000
1.831951e+003,-1.872070e+000
1.832915e+003,-5.604004e+000
1.833879e+003,-7.379639e+000
1.834844e+003,-7.535522e+000
1.835808e+003,-7.278320e+000
1.836772e+003,-6.819092e+000
1.837736e+003,-6.482788e+000
1.838700e+003,-6.680420e+000
1.839665e+003,-6.817139e+000
1.840629e+003,-5.998413e+000
1.841593e+003,-4.750977e+000
1.842557e+003,-4.570068e+000
1.843522e+003,-5.476196e+000
1.844486e+003,-6.928467e+000
1.845450e+003,-9.977173e+000
1.846414e+003,-1.008606e+001
1.847379e+003,-4.985474e+000
1.848343e+003,-1.877563e+000
1.849307e+003,-3.853271e+000
1.850271e+003,-6.866089e+000
1.851236e+003,-8.168091e+000
1.852200e+003,-7.992432e+000
1.853164e+003,-7.760742e+000
1.854128e+003,-7.785522e+000
1.855093e+003,-6.400146e+000
1.856057e+003,-2.887451e+000
1.857021e+003,-4.274902e-001
1.857985e+003,-2.186890e+000
1.858949e+003,-5.774414e+000
1.859914e+003,-6.825928e+000
1.860878e+003,-5.667480e+000
1.861842e+003,-5.201050e+000
1.862806e+003,-5.667236e+000
1.863771e+003,-4.715942e+000
1.864735e+003,-1.726074e+000
1.865699e+003,5.229492e-001
1.866663e+003,1.052979e+000
1.867627e+003,1.045288e+000
1.868592e+003,1.265381e+000
1.869556e+003,7.757568e-001
1.870520e+003,-2.017700e+000
1.871484e+003,-6.565552e+000
1.872449e+003,-8.422974e+000
1.873413e+003,-4.794434e+000
1.874377e+003,-1.573486e+000
1.875341e+003,-3.394775e+000
1.876306e+003,-4.838745e+000
1.877270e+003,-1.759399e+000
1.878234e+003,1.586060e+000
1.879198e+003,-9.729004e-002
1.880163e+003,-3.916138e+000
1.881127e+003,-3.067017e+000
1.882091e+003,1.931152e+000
1.883055e+003,3.724854e+000
1.884020e+003,-3.750000e-001
1.884984e+003,-4.111572e+000
1.885948e+003,-1.650757e+000
1.886912e+003,3.340698e+000
1.887876e+003,3.228394e+000
1.888841e+003,-1.323364e+000
1.889805e+003,-2.681396e+000
1.890769e+003,-2.646484e-001
1.891733e+003,2.339966e+000
1.892698e+003,4.830200e+000
1.893662e+003,6.402588e+000
1.894626e+003,7.180908e+000
1.895590e+003,6.807129e+000
1.896554e+003,3.893311e+000
1.897519e+003,1.066772e+000
1.898483e+003,2.265869e+000
1.899447e+003,5.456421e+000
1.900411e+003,4.154907e+000
1.901376e+003,-2.856445e+000
1.902340e+003,-7.567871e+000
1.903304e+003,-6.446899e+000
1.904268e+003,-3.375610e+000
1.905233e+003,1.196899e+000
1.906197e+003,5.183838e+000
1.907161e+003,6.042847e+000
1.908125e+003,5.150513e+000
1.909090e+003,4.665283e+000
1.910054e+003,4.408081e+000
1.911018e+003,3.222900e+000
1.911982e+003,1.047363e+000
1.912947e+003,-1.425049e+000
1.913911e+003,-3.857178e+000
1.914875e+003,-4.731323e+000
1.915839e+003,-1.566650e+000
1.916803e+003,4.249023e+000
1.917768e+003,7.992676e+000
1.918732e+003,1.013147e+001
1.919696e+003,9.293579e+000
1.920660e+003,4.123413e+000
1.921625e+003,7.873535e-001
1.922589e+003,8.092041e-001
1.923553e+003,1.790894e+000
1.924517e+003,3.228149e+000
1.925481e+003,4.583008e+000
1.926446e+003,5.790771e+000
1.927410e+003,6.476440e+000
1.928374e+003,5.041138e+000
1.929338e+003,1.439453e+000
1.930303e+003,-1.253662e-001
1.931267e+003,2.962280e+000
1.932231e+003,5.736572e+000
1.933195e+003,4.982910e+000
1.934160e+003,3.156616e+000
1.935124e+003,1.733154e+000
1.936088e+003,1.971436e-001
1.937052e+003,-1.710815e+000
1.938017e+003,-3.575684e+000
1.938981e+003,-5.079834e+000
1.939945e+003,-6.208130e+000
1.940909e+003,-6.930420e+000
1.941874e+003,-7.376465e+000
1.942838e+003,-7.794556e+000
1.943802e+003,-7.994019e+000
1.944766e+003,-7.409302e+000
1.945730e+003,-5.743286e+000
1.946695e+003,-3.575317e+000
1.947659e+003,-2.816040e+000
1.948623e+003,-3.720947e+000
1.949587e+003,-4.770386e+000
1.950552e+003,-5.749023e+000
1.951516e+003,-5.808594e+000
1.952480e+003,-4.128906e+000
1.953444e+003,-2.749390e+000
1.954408e+003,-4.066772e+000
1.955373e+003,-6.146729e+000
1.956337e+003,-4.938599e+000
1.957301e+003,-1.182251e+000
1.958265e+003,1.776123e-001
1.959230e+003,-1.364624e+000
1.960194e+003,-1.200439e+000
1.961158e+003,1.848999e+000
1.962122e+003,4.024902e+000
1.963087e+003,5.441162e+000
1.964051e+003,4.717896e+000
1.965015e+003,-1.550781e+000
1.965979e+003,-7.049927e+000
1.966944e+003,-4.645752e+000
1.967908e+003,2.005981e+000
1.968872e+003,6.502686e+000
1.969836e+003,7.609131e+000
1.970801e+003,6.529297e+000
1.971765e+003,4.003906e+000
1.972729e+003,1.244873e+000
1.973693e+003,-1.083862e+000
1.974657e+003,-2.238403e+000
1.975622e+003,-5.594482e-001
1.976586e+003,2.614746e+000
1.977550e+003,4.392090e+000
1.978514e+003,4.985107e+000
1.979479e+003,4.675537e+000
1.980443e+003,3.515137e+000
1.981407e+003,3.654419e+000
1.982371e+003,6.221191e+000
1.983335e+003,7.863892e+000
1.984300e+003,5.526611e+000
1.985264e+003,1.665039e+000
1.986228e+003,5.076904e-001
1.987192e+003,1.367310e+000
1.988157e+003,6.380615e-001
1.989121e+003,-2.117554e+000
1.990085e+003,-2.987183e+000
1.991049e+003,-2.221680e-002
1.992014e+003,1.492920e+000
1.992978e+003,-1.168091e+000
1.993942e+003,-3.079346e+000
1.994906e+003,-1.861328e+000
1.995871e+003,8.544922e-003
1.996835e+003,8.659668e-001
1.997799e+003,1.478882e+000
1.998763e+003,2.843140e+000
1.999728e+003,4.602661e+000
