5.003444e+002,5.108800e+001
5.013087e+002,5.015497e+001
5.022729e+002,4.670366e+001
5.032371e+002,4.198682e+001
5.042014e+002,3.961604e+001
5.051656e+002,3.931427e+001
5.061298e+002,3.985097e+001
5.070941e+002,4.013315e+001
5.080583e+002,4.001349e+001
5.090225e+002,3.999214e+001
5.099868e+002,3.979095e+001
5.109510e+002,3.990132e+001
5.119152e+002,4.107993e+001
5.128795e+002,4.349565e+001
5.138437e+002,4.452826e+001
5.148079e+002,4.144206e+001
5.157722e+002,3.855777e+001
5.167364e+002,3.805803e+001
5.177006e+002,3.984924e+001
5.186649e+002,4.173337e+001
5.196291e+002,4.100710e+001
5.205933e+002,3.914651e+001
5.215576e+002,3.727122e+001
5.225218e+002,3.555141e+001
5.234860e+002,3.417628e+001
5.244503e+002,3.366109e+001
5.254145e+002,3.457227e+001
5.263787e+002,3.486263e+001
5.273430e+002,3.423045e+001
5.283072e+002,3.318980e+001
5.292714e+002,3.239050e+001
5.302357e+002,3.178673e+001
5.311999e+002,3.107130e+001
5.321641e+002,3.011279e+001
5.331284e+002,2.941708e+001
5.340926e+002,2.945082e+001
5.350568e+002,3.036267e+001
5.360211e+002,3.117264e+001
5.369853e+002,3.159642e+001
5.379495e+002,3.147366e+001
5.389138e+002,3.019423e+001
5.398780e+002,2.766956e+001
5.408422e+002,2.458575e+001
5.418065e+002,2.280490e+001
5.427707e+002,2.221207e+001
5.437349e+002,2.252989e+001
5.446992e+002,2.397705e+001
5.456634e+002,2.609213e+001
5.466276e+002,2.730794e+001
5.475919e+002,2.704724e+001
5.485561e+002,2.651434e+001
5.495203e+002,2.564136e+001
5.504846e+002,2.445520e+001
5.514488e+002,2.282057e+001
5.524130e+002,2.014540e+001
5.533773e+002,1.861232e+001
5.543415e+002,2.031168e+001
5.553057e+002,2.293678e+001
5.562700e+002,2.394698e+001
5.572342e+002,2.178233e+001
5.581984e+002,1.796007e+001
5.591627e+002,1.611389e+001
5.601269e+002,1.569196e+001
5.610911e+002,1.557178e+001
5.620554e+002,1.513205e+001
5.630196e+002,1.443045e+001
5.639838e+002,1.451099e+001
5.649481e+002,1.636320e+001
5.659123e+002,1.757680e+001
5.668765e+002,1.765167e+001
5.678408e+002,1.698343e+001
5.688050e+002,1.648022e+001
5.697692e+002,1.631938e+001
5.707335e+002,1.594321e+001
5.716977e+002,1.511163e+001
5.726619e+002,1.411166e+001
5.736262e+002,1.339767e+001
5.745904e+002,1.337076e+001
5.755546e+002,1.346397e+001
5.765189e+002,1.221785e+001
5.774831e+002,1.030324e+001
5.784473e+002,9.224594e+000
5.794116e+002,1.005482e+001
5.803758e+002,1.263821e+001
5.813400e+002,1.378526e+001
5.823043e+002,1.302008e+001
5.832685e+002,1.209276e+001
5.842327e+002,1.152826e+001
5.851970e+002,1.141663e+001
5.861612e+002,1.179739e+001
5.871254e+002,1.321913e+001
5.880897e+002,1.437833e+001
5.890539e+002,1.524670e+001
5.900181e+002,1.556927e+001
5.909824e+002,1.488446e+001
5.919466e+002,1.255130e+001
5.929108e+002,1.002946e+001
5.938751e+002,8.754761e+000
5.948393e+002,8.355530e+000
5.958035e+002,8.340042e+000
5.967678e+002,8.357758e+000
5.977320e+002,8.483032e+000
5.986962e+002,9.002884e+000
5.996605e+002,9.777283e+000
6.006247e+002,1.042314e+001
6.015889e+002,1.072276e+001
6.025532e+002,1.071997e+001
6.035174e+002,1.085330e+001
6.044816e+002,1.122180e+001
6.054459e+002,1.169487e+001
6.064101e+002,1.262083e+001
6.073743e+002,1.356680e+001
6.083386e+002,1.376149e+001
6.093028e+002,1.261301e+001
6.102670e+002,1.102487e+001
6.112313e+002,9.280426e+000
6.121955e+002,7.751724e+000
6.131597e+002,7.006638e+000
6.141240e+002,7.413116e+000
6.150882e+002,8.619980e+000
6.160524e+002,9.222290e+000
6.170167e+002,9.389526e+000
6.179809e+002,9.597168e+000
6.189451e+002,1.005312e+001
6.199094e+002,1.062399e+001
6.208736e+002,1.075780e+001
6.218378e+002,9.762634e+000
6.228021e+002,9.418335e+000
6.237663e+002,1.052565e+001
6.247305e+002,1.225827e+001
6.256948e+002,1.327158e+001
6.266590e+002,1.293394e+001
6.276232e+002,1.163519e+001
6.285875e+002,9.238770e+000
6.295517e+002,6.711075e+000
6.305159e+002,4.896759e+000
6.314802e+002,4.251434e+000
6.324444e+002,4.605316e+000
6.334086e+002,6.702988e+000
6.343729e+002,9.873337e+000
6.353371e+002,1.146121e+001
6.363013e+002,1.017805e+001
6.372656e+002,7.028091e+000
6.382298e+002,5.759537e+000
6.391940e+002,9.166611e+000
6.401583e+002,1.071176e+001
6.411225e+002,9.661026e+000
6.420867e+002,7.347321e+000
6.430510e+002,4.942093e+000
6.440152e+002,2.269012e+000
6.449794e+002,6.946869e-001
6.459437e+002,1.992645e+000
6.469079e+002,3.704544e+000
6.478721e+002,3.593567e+000
6.488364e+002,1.118179e+000
6.498006e+002,-1.856125e+000
6.507648e+002,-1.681976e+000
6.517291e+002,4.365540e-001
6.526933e+002,1.640381e+000
6.536575e+002,1.355789e+000
6.546218e+002,3.204346e-001
6.555860e+002,-3.034973e-002
6.565502e+002,7.640533e-001
6.575145e+002,1.275986e+000
6.584787e+002,1.326462e+000
6.594429e+002,1.296692e+000
6.604072e+002,1.450134e+000
6.613714e+002,1.826614e+000
6.623356e+002,2.404480e+000
6.632999e+002,3.573746e+000
6.642641e+002,4.440872e+000
6.652283e+002,4.360306e+000
6.661926e+002,3.532822e+000
6.671568e+002,2.842392e+000
6.681210e+002,3.501923e+000
6.690853e+002,4.714310e+000
6.700495e+002,4.299744e+000
6.710137e+002,2.346497e+000
6.719780e+002,5.099640e-001
6.729422e+002,6.257324e-001
6.739064e+002,3.194366e+000
6.748707e+002,4.448074e+000
6.758349e+002,3.769638e+000
6.767991e+002,2.864090e+000
6.777634e+002,2.712540e+000
6.787276e+002,3.239304e+000
6.796918e+002,3.170654e+000
6.806561e+002,7.781677e-001
6.816203e+002,-1.111298e+000
6.825845e+002,-9.044037e-001
6.835488e+002,4.672394e-001
6.845130e+002,1.416611e+000
6.854772e+002,7.639008e-001
6.864415e+002,-7.335358e-001
6.874057e+002,-1.772964e+000
6.883699e+002,-2.486679e+000
6.893342e+002,-2.741440e+000
6.902984e+002,-2.398499e+000
6.912626e+002,-1.496735e+000
6.922269e+002,-5.549927e-001
6.931911e+002,1.367355e+000
6.941553e+002,2.341293e+000
6.951196e+002,9.116974e-001
6.960838e+002,-1.336273e+000
6.970480e+002,-1.443344e+000
6.980123e+002,2.481934e+000
6.989765e+002,5.391998e+000
6.999407e+002,4.658386e+000
7.009050e+002,2.681686e+000
7.018692e+002,1.215332e+000
7.028334e+002,8.924103e-001
7.037977e+002,1.058624e+000
7.047619e+002,8.989716e-001
7.057261e+002,5.520325e-001
7.066904e+002,-1.646118e-001
7.076546e+002,-1.279907e+000
7.086188e+002,-1.961761e+000
7.095831e+002,-7.108612e-001
7.105473e+002,3.725891e+000
7.115115e+002,5.725708e+000
7.124758e+002,3.749298e+000
7.134400e+002,1.334808e+000
7.144042e+002,8.302917e-001
7.153685e+002,2.328583e+000
7.163327e+002,3.407745e+000
7.172969e+002,2.480652e+000
7.182612e+002,1.353226e+000
7.192254e+002,5.042725e-001
7.201896e+002,-8.605957e-003
7.211539e+002,-3.102112e-001
7.221181e+002,-5.194092e-001
7.230823e+002,-3.997345e-001
7.240466e+002,9.147186e-001
7.250108e+002,3.196152e+000
7.259750e+002,5.122711e+000
7.269393e+002,5.790878e+000
7.279035e+002,5.225357e+000
7.288677e+002,4.707581e+000
7.298320e+002,4.192047e+000
7.307962e+002,4.337250e+000
7.317604e+002,5.595657e+000
7.327247e+002,7.415588e+000
7.336889e+002,9.252106e+000
7.346531e+002,1.122803e+001
7.356174e+002,1.138124e+001
7.365816e+002,7.566940e+000
7.375458e+002,3.074615e+000
7.385101e+002,3.188629e-001
7.394743e+002,-7.633972e-002
7.404385e+002,7.720032e-001
7.414028e+002,1.284073e+000
7.423670e+002,1.349960e+000
7.433312e+002,1.577393e+000
7.442955e+002,2.177933e+000
7.452597e+002,3.214935e+000
7.462239e+002,4.919952e+000
7.471882e+002,7.742172e+000
7.481524e+002,8.848877e+000
7.491166e+002,6.983292e+000
7.500809e+002,4.834473e+000
7.510451e+002,3.152527e+000
7.520093e+002,2.012604e+000
7.529736e+002,1.308105e+000
7.539378e+002,1.189621e+000
7.549020e+002,1.602264e+000
7.558663e+002,3.071411e+000
7.568306e+002,4.731140e+000
7.577948e+002,5.182724e+000
7.587590e+002,3.625000e+000
7.597233e+002,8.608246e-001
7.606875e+002,-5.144196e-001
7.616517e+002,-5.621033e-001
7.626160e+002,9.609985e-002
7.635802e+002,1.712738e+000
7.645444e+002,3.621414e+000
7.655087e+002,4.211746e+000
7.664729e+002,2.280060e+000
7.674371e+002,1.630661e+000
7.684014e+002,3.413040e+000
7.693656e+002,5.440781e+000
7.703298e+002,6.273575e+000
7.712941e+002,5.806610e+000
7.722583e+002,5.217606e+000
7.732225e+002,5.238342e+000
7.741868e+002,5.598022e+000
7.751510e+002,6.544205e+000
7.761152e+002,7.658035e+000
7.770795e+002,7.957520e+000
7.780437e+002,6.540787e+000
7.790079e+002,3.673584e+000
7.799722e+002,1.797028e+000
7.809364e+002,7.451019e-001
7.819006e+002,5.164185e-001
7.828649e+002,1.521545e+000
7.838291e+002,3.489517e+000
7.847933e+002,5.407501e+000
7.857576e+002,7.549164e+000
7.867218e+002,8.608047e+000
7.876860e+002,7.833481e+000
7.886503e+002,6.674683e+000
7.896145e+002,6.254425e+000
7.905787e+002,6.881073e+000
7.915430e+002,8.055634e+000
7.925072e+002,9.836487e+000
7.934714e+002,1.124948e+001
7.944357e+002,1.118321e+001
7.953999e+002,9.773056e+000
7.963641e+002,7.796371e+000
7.973284e+002,6.025909e+000
7.982926e+002,4.451492e+000
7.992568e+002,3.619797e+000
8.002211e+002,3.099854e+000
8.011853e+002,3.173996e+000
8.021495e+002,4.907303e+000
8.031138e+002,7.758347e+000
8.040780e+002,9.118561e+000
8.050422e+002,7.243439e+000
8.060065e+002,5.513260e+000
8.069707e+002,4.852646e+000
8.079349e+002,4.798737e+000
8.088992e+002,4.995087e+000
8.098634e+002,5.330444e+000
8.108276e+002,5.906082e+000
8.117919e+002,6.945129e+000
8.127561e+002,7.991806e+000
8.137203e+002,8.637238e+000
8.146846e+002,8.945847e+000
8.156488e+002,8.761414e+000
8.166130e+002,7.697983e+000
8.175773e+002,5.433624e+000
8.185415e+002,4.013290e+000
8.195057e+002,3.727905e+000
8.204700e+002,3.516006e+000
8.214342e+002,2.813156e+000
8.223984e+002,1.930023e+000
8.233627e+002,1.823151e+000
8.243269e+002,3.313629e+000
8.252911e+002,4.731049e+000
8.262554e+002,4.585159e+000
8.272196e+002,4.135300e+000
8.281838e+002,4.735046e+000
8.291481e+002,6.816177e+000
8.301123e+002,9.801804e+000
8.310765e+002,1.313203e+001
8.320408e+002,1.633168e+001
8.330050e+002,1.611984e+001
8.339692e+002,1.156711e+001
8.349335e+002,6.027496e+000
8.358977e+002,2.754028e+000
8.368619e+002,1.953812e+000
8.378262e+002,2.362289e+000
8.387904e+002,5.714813e+000
8.397546e+002,8.001007e+000
8.407189e+002,7.210968e+000
8.416831e+002,4.951279e+000
8.426473e+002,4.250381e+000
8.436116e+002,6.749542e+000
8.445758e+002,9.873505e+000
8.455400e+002,1.082452e+001
8.465043e+002,1.058099e+001
8.474685e+002,1.019543e+001
8.484327e+002,1.011992e+001
8.493970e+002,1.031407e+001
8.503612e+002,1.057590e+001
8.513254e+002,1.088864e+001
8.522897e+002,1.081834e+001
8.532539e+002,1.004892e+001
8.542181e+002,9.202881e+000
8.551824e+002,8.581955e+000
8.561466e+002,8.346954e+000
8.571108e+002,8.908615e+000
8.580751e+002,1.080127e+001
8.590393e+002,1.232990e+001
8.600035e+002,1.315851e+001
8.609678e+002,1.346988e+001
8.619320e+002,1.326587e+001
8.628962e+002,1.260478e+001
8.638605e+002,1.199820e+001
8.648247e+002,1.238539e+001
8.657889e+002,1.337698e+001
8.667532e+002,1.436964e+001
8.677174e+002,1.527748e+001
8.686816e+002,1.571294e+001
8.696459e+002,1.511293e+001
8.706101e+002,1.329131e+001
8.715743e+002,1.238033e+001
8.725386e+002,1.228172e+001
8.735028e+002,1.310176e+001
8.744670e+002,1.599783e+001
8.754313e+002,1.941595e+001
8.763955e+002,2.024423e+001
8.773597e+002,1.673338e+001
8.783240e+002,1.338774e+001
8.792882e+002,1.301334e+001
8.802524e+002,1.440443e+001
8.812167e+002,1.749554e+001
8.821809e+002,2.165207e+001
8.831451e+002,2.531190e+001
8.841094e+002,2.639218e+001
8.850736e+002,2.504726e+001
8.860378e+002,2.450571e+001
8.870021e+002,2.496648e+001
8.879663e+002,2.518651e+001
8.889305e+002,2.377440e+001
8.898948e+002,2.128163e+001
8.908590e+002,2.095253e+001
8.918232e+002,2.499951e+001
8.927875e+002,2.815710e+001
8.937517e+002,2.901709e+001
8.947159e+002,2.889061e+001
8.956802e+002,2.855858e+001
8.966444e+002,2.827660e+001
8.976086e+002,2.816664e+001
8.985729e+002,2.855322e+001
8.995371e+002,2.930928e+001
9.005013e+002,3.026767e+001
9.014656e+002,3.133749e+001
9.024298e+002,3.183977e+001
9.033940e+002,3.107532e+001
9.043583e+002,2.923083e+001
9.053225e+002,2.858305e+001
9.062867e+002,3.109329e+001
9.072510e+002,3.204167e+001
9.082152e+002,3.000104e+001
9.091794e+002,2.750577e+001
9.101437e+002,2.724686e+001
9.111079e+002,2.965627e+001
9.120721e+002,3.212325e+001
9.130364e+002,3.354561e+001
9.140006e+002,3.391197e+001
9.149648e+002,3.247589e+001
9.159291e+002,3.018961e+001
9.168933e+002,2.877203e+001
9.178575e+002,2.935658e+001
9.188218e+002,3.125482e+001
9.197860e+002,3.248312e+001
9.207502e+002,3.303415e+001
9.217145e+002,3.253249e+001
9.226787e+002,3.011996e+001
9.236429e+002,2.763034e+001
9.246072e+002,2.805252e+001
9.255714e+002,3.227528e+001
9.265356e+002,3.415854e+001
9.274999e+002,3.037317e+001
9.284641e+002,2.654285e+001
9.294283e+002,2.449043e+001
9.303926e+002,2.389267e+001
9.313568e+002,2.366479e+001
9.323210e+002,2.322919e+001
9.332853e+002,2.306345e+001
9.342495e+002,2.456320e+001
9.352137e+002,2.670695e+001
9.361780e+002,2.813992e+001
9.371422e+002,2.864075e+001
9.381064e+002,2.822258e+001
9.390707e+002,2.658649e+001
9.400349e+002,2.319514e+001
9.409991e+002,2.139154e+001
9.419634e+002,2.238167e+001
9.429276e+002,2.311792e+001
9.438918e+002,2.249290e+001
9.448561e+002,2.126633e+001
9.458203e+002,2.082751e+001
9.467845e+002,2.170639e+001
9.477488e+002,2.281975e+001
9.487130e+002,2.370497e+001
9.496772e+002,2.418314e+001
9.506415e+002,2.378488e+001
9.516057e+002,2.271429e+001
9.525699e+002,2.179996e+001
9.535342e+002,2.185507e+001
9.544984e+002,2.262170e+001
9.554626e+002,2.200941e+001
9.564269e+002,1.969887e+001
9.573911e+002,1.847272e+001
9.583553e+002,1.997476e+001
9.593196e+002,2.252260e+001
9.602838e+002,2.325789e+001
9.612480e+002,2.160400e+001
9.622123e+002,1.991969e+001
9.631765e+002,1.871297e+001
9.641407e+002,1.787006e+001
9.651050e+002,1.760194e+001
9.660692e+002,1.755063e+001
9.670334e+002,1.701958e+001
9.679977e+002,1.561909e+001
9.689619e+002,1.409700e+001
9.699261e+002,1.361391e+001
9.708904e+002,1.403931e+001
9.718546e+002,1.594807e+001
9.728188e+002,1.968294e+001
9.737831e+002,2.386797e+001
9.747473e+002,2.661040e+001
9.757115e+002,2.755359e+001
9.766758e+002,2.921707e+001
9.776400e+002,3.362904e+001
9.786042e+002,3.648938e+001
9.795685e+002,3.621289e+001
9.805327e+002,3.384727e+001
9.814969e+002,3.060475e+001
9.824612e+002,2.695435e+001
9.834254e+002,2.369806e+001
9.843896e+002,2.181375e+001
9.853539e+002,2.042032e+001
9.863181e+002,1.844739e+001
9.872823e+002,1.594148e+001
9.882466e+002,1.380640e+001
9.892108e+002,1.294148e+001
9.901750e+002,1.330782e+001
9.911393e+002,1.352275e+001
9.921035e+002,1.289307e+001
9.930677e+002,1.262738e+001
9.940320e+002,1.323232e+001
9.949962e+002,1.408844e+001
9.959604e+002,1.435886e+001
9.969247e+002,1.407703e+001
9.978889e+002,1.479903e+001
9.988531e+002,1.851465e+001
9.998174e+002,2.146039e+001
1.000782e+003,2.054878e+001
1.001746e+003,1.792390e+001
1.002710e+003,1.711676e+001
1.003674e+003,1.941895e+001
1.004639e+003,2.241603e+001
1.005603e+003,2.163612e+001
1.006567e+003,1.659256e+001
1.007531e+003,1.439128e+001
1.008495e+003,1.607005e+001
1.009460e+003,1.833876e+001
1.010424e+003,1.949588e+001
1.011388e+003,1.973212e+001
1.012352e+003,1.969710e+001
1.013317e+003,1.947226e+001
1.014281e+003,1.875032e+001
1.015245e+003,1.719502e+001
1.016209e+003,1.535428e+001
1.017174e+003,1.356931e+001
1.018138e+003,1.194536e+001
1.019102e+003,1.035619e+001
1.020066e+003,8.656555e+000
1.021031e+003,7.231400e+000
1.021995e+003,7.270554e+000
1.022959e+003,8.363449e+000
1.023923e+003,9.244614e+000
1.024887e+003,9.635849e+000
1.025852e+003,9.352112e+000
1.026816e+003,7.864853e+000
1.027780e+003,4.794632e+000
1.028744e+003,2.754791e+000
1.029709e+003,2.182358e+000
1.030673e+003,2.309143e+000
1.031637e+003,3.608276e+000
1.032601e+003,5.132233e+000
1.033566e+003,5.574341e+000
1.034530e+003,4.535110e+000
1.035494e+003,3.113083e+000
1.036458e+003,2.362213e+000
1.037422e+003,2.020767e+000
1.038387e+003,1.614975e+000
1.039351e+003,1.138306e+000
1.040315e+003,9.506378e-001
1.041279e+003,1.386490e+000
1.042244e+003,2.365433e+000
1.043208e+003,3.300034e+000
1.044172e+003,4.282059e+000
1.045136e+003,4.773453e+000
1.046101e+003,4.302200e+000
1.047065e+003,3.929840e+000
1.048029e+003,4.618454e+000
1.048993e+003,6.009064e+000
1.049958e+003,6.570709e+000
1.050922e+003,5.224869e+000
1.051886e+003,4.011734e+000
1.052850e+003,5.641327e+000
1.053814e+003,8.307281e+000
1.054779e+003,9.656693e+000
1.055743e+003,9.190582e+000
1.056707e+003,7.920395e+000
1.057671e+003,7.044525e+000
1.058636e+003,6.542908e+000
1.059600e+003,6.084915e+000
1.060564e+003,5.972382e+000
1.061528e+003,5.737991e+000
1.062493e+003,5.025116e+000
1.063457e+003,4.148468e+000
1.064421e+003,3.442017e+000
1.065385e+003,2.999039e+000
1.066349e+003,2.998627e+000
1.067314e+003,3.860794e+000
1.068278e+003,4.836838e+000
1.069242e+003,5.398758e+000
1.070206e+003,5.759674e+000
1.071171e+003,6.345047e+000
1.072135e+003,7.224670e+000
1.073099e+003,7.879410e+000
1.074063e+003,7.485641e+000
1.075028e+003,5.958389e+000
1.075992e+003,4.873901e+000
1.076956e+003,4.215286e+000
1.077920e+003,3.734619e+000
1.078885e+003,3.488281e+000
1.079849e+003,3.452499e+000
1.080813e+003,3.576035e+000
1.081777e+003,3.928329e+000
1.082741e+003,4.120682e+000
1.083706e+003,3.042282e+000
1.084670e+003,2.343979e+000
1.085634e+003,3.666092e+000
1.086598e+003,5.982773e+000
1.087563e+003,7.119507e+000
1.088527e+003,5.995255e+000
1.089491e+003,3.963623e+000
1.090455e+003,3.606171e+000
1.091420e+003,5.071732e+000
1.092384e+003,5.445816e+000
1.093348e+003,4.161514e+000
1.094312e+003,2.695786e+000
1.095276e+003,1.872742e+000
1.096241e+003,1.651154e+000
1.097205e+003,1.773514e+000
1.098169e+003,2.229980e+000
1.099133e+003,2.740036e+000
1.100098e+003,3.412827e+000
1.101062e+003,4.003265e+000
1.102026e+003,4.231506e+000
1.102990e+003,4.268265e+000
1.103955e+003,4.596451e+000
1.104919e+003,5.474426e+000
1.105883e+003,6.373123e+000
1.106847e+003,6.107834e+000
1.107812e+003,4.638260e+000
1.108776e+003,3.591751e+000
1.109740e+003,2.968735e+000
1.110704e+003,2.908020e+000
1.111668e+003,4.007553e+000
1.112633e+003,5.953003e+000
1.113597e+003,7.000763e+000
1.114561e+003,6.582916e+000
1.115525e+003,5.978439e+000
1.116490e+003,5.441849e+000
1.117454e+003,4.992447e+000
1.118418e+003,4.708282e+000
1.119382e+003,4.634293e+000
1.120347e+003,4.719650e+000
1.121311e+003,4.850616e+000
1.122275e+003,4.983368e+000
1.123239e+003,5.420670e+000
1.124203e+003,6.220520e+000
1.125168e+003,6.435471e+000
1.126132e+003,5.755234e+000
1.127096e+003,5.203476e+000
1.128060e+003,5.587830e+000
1.129025e+003,6.690887e+000
1.129989e+003,7.645950e+000
1.130953e+003,8.271515e+000
1.131917e+003,8.933014e+000
1.132882e+003,9.958069e+000
1.133846e+003,1.091566e+001
1.134810e+003,1.156142e+001
1.135774e+003,1.192805e+001
1.136739e+003,1.210994e+001
1.137703e+003,1.215765e+001
1.138667e+003,1.214641e+001
1.139631e+003,1.209164e+001
1.140595e+003,1.210576e+001
1.141560e+003,1.309839e+001
1.142524e+003,1.543309e+001
1.143488e+003,1.790640e+001
1.144452e+003,1.860417e+001
1.145417e+003,1.871056e+001
1.146381e+003,2.331154e+001
1.147345e+003,3.517746e+001
1.148309e+003,4.424023e+001
1.149274e+003,4.631926e+001
1.150238e+003,4.710686e+001
1.151202e+003,4.911786e+001
1.152166e+003,5.222679e+001
1.153130e+003,5.572406e+001
1.154095e+003,5.907542e+001
1.155059e+003,6.144650e+001
1.156023e+003,6.160371e+001
1.156987e+003,5.985735e+001
1.157952e+003,5.875749e+001
1.158916e+003,5.871423e+001
1.159880e+003,5.815500e+001
1.160844e+003,5.635022e+001
1.161809e+003,5.309167e+001
1.162773e+003,4.753735e+001
1.163737e+003,3.868933e+001
1.164701e+003,3.216945e+001
1.165666e+003,3.155597e+001
1.166630e+003,3.148187e+001
1.167594e+003,3.028754e+001
1.168558e+003,2.827715e+001
1.169522e+003,2.583109e+001
1.170487e+003,2.327248e+001
1.171451e+003,2.128352e+001
1.172415e+003,2.070193e+001
1.173379e+003,2.118529e+001
1.174344e+003,2.099850e+001
1.175308e+003,2.015456e+001
1.176272e+003,1.940202e+001
1.177236e+003,1.928371e+001
1.178201e+003,1.921040e+001
1.179165e+003,1.801056e+001
1.180129e+003,1.558357e+001
1.181093e+003,1.435320e+001
1.182057e+003,1.622577e+001
1.183022e+003,1.733072e+001
1.183986e+003,1.554704e+001
1.184950e+003,1.291591e+001
1.185914e+003,1.124461e+001
1.186879e+003,1.085602e+001
1.187843e+003,1.113257e+001
1.188807e+003,1.154477e+001
1.189771e+003,1.215689e+001
1.190736e+003,1.353181e+001
1.191700e+003,1.585646e+001
1.192664e+003,1.657330e+001
1.193628e+003,1.435762e+001
1.194593e+003,1.206352e+001
1.195557e+003,1.232465e+001
1.196521e+003,1.415184e+001
1.197485e+003,1.372575e+001
1.198449e+003,9.546280e+000
1.199414e+003,6.160797e+000
1.200378e+003,6.966324e+000
1.201342e+003,8.038940e+000
1.202306e+003,6.305298e+000
1.203271e+003,2.897568e+000
1.204235e+003,8.032837e-001
1.205199e+003,1.424072e+000
1.206163e+003,3.197189e+000
1.207128e+003,3.496094e+000
1.208092e+003,2.240646e+000
1.209056e+003,1.042679e+000
1.210020e+003,-8.181763e-002
1.210984e+003,-1.175034e+000
1.211949e+003,-2.242294e+000
1.212913e+003,-3.334671e+000
1.213877e+003,-4.587509e+000
1.214841e+003,-5.962189e+000
1.215806e+003,-6.898483e+000
1.216770e+003,-6.855865e+000
1.217734e+003,-6.887939e+000
1.218698e+003,-8.304428e+000
1.219663e+003,-9.957428e+000
1.220627e+003,-1.023100e+001
1.221591e+003,-9.010635e+000
1.222555e+003,-7.444046e+000
1.223520e+003,-6.556168e+000
1.224484e+003,-6.280731e+000
1.225448e+003,-6.472427e+000
1.226412e+003,-7.323471e+000
1.227376e+003,-8.330521e+000
1.228341e+003,-1.030798e+001
1.229305e+003,-1.159720e+001
1.230269e+003,-1.064021e+001
1.231233e+003,-8.545181e+000
1.232198e+003,-7.734222e+000
1.233162e+003,-8.858887e+000
1.234126e+003,-9.766357e+000
1.235090e+003,-8.253174e+000
1.236055e+003,-6.568695e+000
1.237019e+003,-7.739304e+000
1.237983e+003,-1.070595e+001
1.238947e+003,-1.232478e+001
1.239911e+003,-1.125667e+001
1.240876e+003,-9.183395e+000
1.241840e+003,-8.653809e+000
1.242804e+003,-9.755920e+000
1.243768e+003,-1.063879e+001
1.244733e+003,-1.126555e+001
1.245697e+003,-1.167606e+001
1.246661e+003,-1.208650e+001
1.247625e+003,-1.225806e+001
1.248590e+003,-1.177870e+001
1.249554e+003,-1.079478e+001
1.250518e+003,-9.885803e+000
1.251482e+003,-9.356049e+000
1.252447e+003,-9.027161e+000
1.253411e+003,-8.498520e+000
1.254375e+003,-7.991699e+000
1.255339e+003,-8.281601e+000
1.256303e+003,-9.296722e+000
1.257268e+003,-9.749786e+000
1.258232e+003,-8.773346e+000
1.259196e+003,-7.208588e+000
1.260160e+003,-6.854187e+000
1.261125e+003,-8.011230e+000
1.262089e+003,-7.987030e+000
1.263053e+003,-4.710205e+000
1.264017e+003,-2.690018e+000
1.264982e+003,-4.342438e+000
1.265946e+003,-6.636063e+000
1.266910e+003,-6.297516e+000
1.267874e+003,-3.620636e+000
1.268839e+003,-1.339020e+000
1.269803e+003,-1.251801e+000
1.270767e+003,-2.661789e+000
1.271731e+003,-4.590576e+000
1.272695e+003,-6.887466e+000
1.273660e+003,-7.707291e+000
1.274624e+003,-6.658310e+000
1.275588e+003,-5.440750e+000
1.276552e+003,-4.508804e+000
1.277517e+003,-4.039764e+000
1.278481e+003,-4.732742e+000
1.279445e+003,-6.764603e+000
1.280409e+003,-8.353226e+000
1.281374e+003,-8.719238e+000
1.282338e+003,-8.733521e+000
1.283302e+003,-9.207657e+000
1.284266e+003,-9.431976e+000
1.285230e+003,-8.083817e+000
1.286195e+003,-5.453659e+000
1.287159e+003,-3.363068e+000
1.288123e+003,-3.279816e+000
1.289087e+003,-4.715469e+000
1.290052e+003,-6.447128e+000
1.291016e+003,-9.132950e+000
1.291980e+003,-9.730484e+000
1.292944e+003,-6.217285e+000
1.293909e+003,-3.573212e+000
1.294873e+003,-4.184540e+000
1.295837e+003,-6.351883e+000
1.296801e+003,-7.758865e+000
1.297766e+003,-8.109985e+000
1.298730e+003,-8.690613e+000
1.299694e+003,-1.062473e+001
1.300658e+003,-1.229488e+001
1.301622e+003,-1.121031e+001
1.302587e+003,-8.898438e+000
1.303551e+003,-8.028488e+000
1.304515e+003,-8.917343e+000
1.305479e+003,-9.632050e+000
1.306444e+003,-8.556549e+000
1.307408e+003,-6.371552e+000
1.308372e+003,-5.336166e+000
1.309336e+003,-5.929840e+000
1.310301e+003,-6.227493e+000
1.311265e+003,-5.278259e+000
1.312229e+003,-4.987244e+000
1.313193e+003,-7.062744e+000
1.314157e+003,-9.343521e+000
1.315122e+003,-8.859299e+000
1.316086e+003,-5.990234e+000
1.317050e+003,-4.248535e+000
1.318014e+003,-5.995102e+000
1.318979e+003,-9.149918e+000
1.319943e+003,-1.006233e+001
1.320907e+003,-8.907410e+000
1.321871e+003,-8.019150e+000
1.322836e+003,-7.645706e+000
1.323800e+003,-7.365417e+000
1.324764e+003,-6.938599e+000
1.325728e+003,-6.441040e+000
1.326693e+003,-5.751678e+000
1.327657e+003,-4.894989e+000
1.328621e+003,-5.548569e+000
1.329585e+003,-9.518433e+000
1.330549e+003,-1.224423e+001
1.331514e+003,-1.052484e+001
1.332478e+003,-7.686447e+000
1.333442e+003,-7.016937e+000
1.334406e+003,-8.273834e+000
1.335371e+003,-9.023148e+000
1.336335e+003,-7.826172e+000
1.337299e+003,-6.022751e+000
1.338263e+003,-6.302460e+000
1.339228e+003,-9.060715e+000
1.340192e+003,-1.011922e+001
1.341156e+003,-8.335587e+000
1.342120e+003,-6.677612e+000
1.343084e+003,-5.362808e+000
1.344049e+003,-4.643341e+000
1.345013e+003,-4.935486e+000
1.345977e+003,-5.875107e+000
1.346941e+003,-6.605087e+000
1.347906e+003,-6.838867e+000
1.348870e+003,-6.674042e+000
1.349834e+003,-6.162613e+000
1.350798e+003,-5.378433e+000
1.351763e+003,-3.990005e+000
1.352727e+003,-2.252319e+000
1.353691e+003,-1.972443e+000
1.354655e+003,-4.157593e+000
1.355620e+003,-6.713440e+000
1.356584e+003,-6.732864e+000
1.357548e+003,-4.600159e+000
1.358512e+003,-4.291550e+000
1.359476e+003,-7.113693e+000
1.360441e+003,-8.955826e+000
1.361405e+003,-7.660141e+000
1.362369e+003,-6.289841e+000
1.363333e+003,-6.646774e+000
1.364298e+003,-7.719116e+000
1.365262e+003,-7.770554e+000
1.366226e+003,-6.543274e+000
1.367190e+003,-5.309570e+000
1.368155e+003,-5.199554e+000
1.369119e+003,-5.993240e+000
1.370083e+003,-7.067444e+000
1.371047e+003,-8.683899e+000
1.372011e+003,-9.088120e+000
1.372976e+003,-7.506470e+000
1.373940e+003,-5.981705e+000
1.374904e+003,-5.426331e+000
1.375868e+003,-5.155579e+000
1.376833e+003,-4.006195e+000
1.377797e+003,-2.153900e+000
1.378761e+003,-1.372467e+000
1.379725e+003,-2.583099e+000
1.380690e+003,-4.433624e+000
1.381654e+003,-5.969925e+000
1.382618e+003,-7.016815e+000
1.383582e+003,-7.082077e+000
1.384547e+003,-6.292282e+000
1.385511e+003,-5.673813e+000
1.386475e+003,-5.855850e+000
1.387439e+003,-6.187820e+000
1.388403e+003,-5.372116e+000
1.389368e+003,-3.425186e+000
1.390332e+003,-2.759109e+000
1.391296e+003,-4.178391e+000
1.392260e+003,-5.277634e+000
1.393225e+003,-5.627914e+000
1.394189e+003,-5.486450e+000
1.395153e+003,-4.396301e+000
1.396117e+003,-3.161011e+000
1.397082e+003,-3.196426e+000
1.398046e+003,-4.608643e+000
1.399010e+003,-5.865860e+000
1.399974e+003,-5.596313e+000
1.400938e+003,-4.411850e+000
1.401903e+003,-3.965607e+000
1.402867e+003,-4.226685e+000
1.403831e+003,-4.436127e+000
1.404795e+003,-5.329742e+000
1.405760e+003,-5.417877e+000
1.406724e+003,-3.381027e+000
1.407688e+003,-1.114029e+000
1.408652e+003,-9.721832e-001
1.409617e+003,-2.642258e+000
1.410581e+003,-3.843643e+000
1.411545e+003,-3.650421e+000
1.412509e+003,-2.987350e+000
1.413474e+003,-2.815109e+000
1.414438e+003,-2.811478e+000
1.415402e+003,-1.859406e+000
1.416366e+003,-1.903229e-001
1.417330e+003,1.306152e-001
1.418295e+003,-2.014587e+000
1.419259e+003,-4.559692e+000
1.420223e+003,-4.981781e+000
1.421187e+003,-3.695877e+000
1.422152e+003,-3.042282e+000
1.423116e+003,-3.225830e+000
1.424080e+003,-3.212585e+000
1.425044e+003,-2.523361e+000
1.426009e+003,-1.975250e+000
1.426973e+003,-1.840240e+000
1.427937e+003,-2.084198e+000
1.428901e+003,-2.878845e+000
1.429865e+003,-3.957062e+000
1.430830e+003,-4.601135e+000
1.431794e+003,-4.376373e+000
1.432758e+003,-3.495361e+000
1.433722e+003,-2.214233e+000
1.434687e+003,-3.272705e-001
1.435651e+003,9.901581e-001
1.436615e+003,1.650742e+000
1.437579e+003,1.286514e+000
1.438544e+003,-1.408737e+000
1.439508e+003,-3.766418e+000
1.440472e+003,-3.292526e+000
1.441436e+003,-1.324677e+000
1.442401e+003,-1.102921e+000
1.443365e+003,-3.179474e+000
1.444329e+003,-4.176788e+000
1.445293e+003,-1.231644e+000
1.446257e+003,3.269592e+000
1.447222e+003,4.646545e+000
1.448186e+003,3.425613e+000
1.449150e+003,2.257660e+000
1.450114e+003,1.215454e+000
1.451079e+003,6.887054e-001
1.452043e+003,1.413254e+000
1.453007e+003,2.508392e+000
1.453971e+003,2.580292e+000
1.454936e+003,1.727676e+000
1.455900e+003,1.126266e+000
1.456864e+003,1.121124e+000
1.457828e+003,1.190750e+000
1.458792e+003,1.139114e+000
1.459757e+003,8.225555e-001
1.460721e+003,-2.797394e-001
1.461685e+003,-1.624176e+000
1.462649e+003,-2.002914e+000
1.463614e+003,-1.132980e+000
1.464578e+003,8.465576e-002
1.465542e+003,8.964844e-001
1.466506e+003,1.275055e+000
1.467471e+003,1.079620e+000
1.468435e+003,1.429749e-001
1.469399e+003,-9.170532e-003
1.470363e+003,1.432419e+000
1.471328e+003,2.413406e+000
1.472292e+003,1.668076e+000
1.473256e+003,9.244385e-001
1.474220e+003,2.272354e+000
1.475184e+003,4.528412e+000
1.476149e+003,4.756424e+000
1.477113e+003,2.286789e+000
1.478077e+003,-1.909027e-001
1.479041e+003,3.897095e-002
1.480006e+003,2.035828e+000
1.480970e+003,2.434372e+000
1.481934e+003,4.000244e-001
1.482898e+003,-1.232910e-002
1.483863e+003,2.416977e+000
1.484827e+003,4.518494e+000
1.485791e+003,5.861176e+000
1.486755e+003,6.334839e+000
1.487719e+003,5.184937e+000
1.488684e+003,3.091232e+000
1.489648e+003,1.767380e+000
1.490612e+003,1.811279e+000
1.491576e+003,2.814651e+000
1.492541e+003,4.598755e+000
1.493505e+003,6.750580e+000
1.494469e+003,8.427292e+000
1.495433e+003,9.599518e+000
1.496398e+003,1.062460e+001
1.497362e+003,1.180069e+001
1.498326e+003,1.247304e+001
1.499290e+003,1.150325e+001
1.500255e+003,1.037125e+001
1.501219e+003,1.122003e+001
1.502183e+003,1.377876e+001
1.503147e+003,1.628471e+001
1.504111e+003,1.827980e+001
1.505076e+003,2.061905e+001
1.506040e+003,2.421817e+001
1.507004e+003,2.797420e+001
1.507968e+003,3.019142e+001
1.508933e+003,3.190802e+001
1.509897e+003,3.557809e+001
1.510861e+003,4.167976e+001
1.511825e+003,4.802063e+001
1.512790e+003,5.295503e+001
1.513754e+003,5.712878e+001
1.514718e+003,6.188814e+001
1.515682e+003,6.715176e+001
1.516646e+003,7.249103e+001
1.517611e+003,7.845079e+001
1.518575e+003,8.336475e+001
1.519539e+003,8.646048e+001
1.520503e+003,8.881245e+001
1.521468e+003,9.124150e+001
1.522432e+003,9.302496e+001
1.523396e+003,9.282199e+001
1.524360e+003,9.077170e+001
1.525325e+003,8.850961e+001
1.526289e+003,8.715089e+001
1.527253e+003,8.596365e+001
1.528217e+003,8.368118e+001
1.529182e+003,8.037656e+001
1.530146e+003,7.543684e+001
1.531110e+003,6.749097e+001
1.532074e+003,6.028789e+001
1.533039e+003,5.465535e+001
1.534003e+003,4.872124e+001
1.534967e+003,4.093286e+001
1.535931e+003,3.324538e+001
1.536896e+003,2.803557e+001
1.537860e+003,2.516919e+001
1.538824e+003,2.291559e+001
1.539788e+003,2.031113e+001
1.540752e+003,1.770126e+001
1.541717e+003,1.559293e+001
1.542681e+003,1.397780e+001
1.543645e+003,1.246672e+001
1.544609e+003,1.103847e+001
1.545573e+003,1.006496e+001
1.546538e+003,9.464447e+000
1.547502e+003,9.155060e+000
1.548466e+003,8.926590e+000
1.549430e+003,9.336243e+000
1.550395e+003,1.192621e+001
1.551359e+003,1.544344e+001
1.552323e+003,1.596812e+001
1.553287e+003,1.237149e+001
1.554252e+003,8.747070e+000
1.555216e+003,8.783585e+000
1.556180e+003,1.088733e+001
1.557144e+003,1.147173e+001
1.558109e+003,1.049509e+001
1.559073e+003,9.218735e+000
1.560037e+003,7.199326e+000
1.561001e+003,5.601074e+000
1.561966e+003,5.295868e+000
1.562930e+003,5.336685e+000
1.563894e+003,4.480347e+000
1.564858e+003,3.242416e+000
1.565823e+003,3.380371e+000
1.566787e+003,5.092926e+000
1.567751e+003,5.829819e+000
1.568715e+003,3.736603e+000
1.569679e+003,1.504257e+000
1.570644e+003,2.966904e+000
1.571608e+003,6.747513e+000
1.572572e+003,8.910385e+000
1.573536e+003,9.369064e+000
1.574500e+003,9.823837e+000
1.575465e+003,1.097810e+001
1.576429e+003,1.196674e+001
1.577393e+003,1.203929e+001
1.578357e+003,1.141782e+001
1.579322e+003,1.025636e+001
1.580286e+003,8.727448e+000
1.581250e+003,8.424957e+000
1.582214e+003,1.027159e+001
1.583179e+003,1.170134e+001
1.584143e+003,9.972733e+000
1.585107e+003,7.494186e+000
1.586071e+003,7.950455e+000
1.587036e+003,1.051410e+001
1.588000e+003,1.243153e+001
1.588964e+003,1.308366e+001
1.589928e+003,1.264198e+001
1.590893e+003,1.021211e+001
1.591857e+003,7.751678e+000
1.592821e+003,8.897003e+000
1.593785e+003,1.290559e+001
1.594750e+003,1.519807e+001
1.595714e+003,1.493759e+001
1.596678e+003,1.456445e+001
1.597642e+003,1.512210e+001
1.598606e+003,1.577309e+001
1.599571e+003,1.571582e+001
1.600535e+003,1.547935e+001
1.601499e+003,1.574521e+001
1.602463e+003,1.647571e+001
1.603427e+003,1.730820e+001
1.604392e+003,1.814354e+001
1.605356e+003,1.873265e+001
1.606320e+003,1.853410e+001
1.607284e+003,1.799759e+001
1.608249e+003,1.878755e+001
1.609213e+003,2.098839e+001
1.610177e+003,2.154195e+001
1.611141e+003,1.917416e+001
1.612106e+003,1.706764e+001
1.613070e+003,1.660771e+001
1.614034e+003,1.713268e+001
1.614998e+003,1.923505e+001
1.615963e+003,2.158510e+001
1.616927e+003,2.148404e+001
1.617891e+003,1.889090e+001
1.618855e+003,1.679695e+001
1.619820e+003,1.697878e+001
1.620784e+003,1.816229e+001
1.621748e+003,1.885278e+001
1.622712e+003,1.921097e+001
1.623677e+003,1.938554e+001
1.624641e+003,1.929771e+001
1.625605e+003,1.962596e+001
1.626569e+003,2.083521e+001
1.627533e+003,2.147917e+001
1.628498e+003,2.035979e+001
1.629462e+003,1.905130e+001
1.630426e+003,1.894089e+001
1.631390e+003,1.965579e+001
1.632354e+003,2.032356e+001
1.633319e+003,2.066138e+001
1.634283e+003,2.054579e+001
1.635247e+003,1.973215e+001
1.636211e+003,1.883588e+001
1.637176e+003,1.927000e+001
1.638140e+003,2.093690e+001
1.639104e+003,2.166034e+001
1.640068e+003,2.110629e+001
1.641033e+003,2.050563e+001
1.641997e+003,2.025790e+001
1.642961e+003,1.996286e+001
1.643925e+003,1.911003e+001
1.644890e+003,1.834235e+001
1.645854e+003,1.849757e+001
1.646818e+003,1.922768e+001
1.647782e+003,1.949399e+001
1.648747e+003,1.899858e+001
1.649711e+003,1.853227e+001
1.650675e+003,1.892372e+001
1.651639e+003,1.954517e+001
1.652604e+003,1.860686e+001
1.653568e+003,1.616451e+001
1.654532e+003,1.538522e+001
1.655496e+003,1.695854e+001
1.656460e+003,1.831358e+001
1.657425e+003,1.874200e+001
1.658389e+003,1.883128e+001
1.659353e+003,1.881267e+001
1.660317e+003,1.870845e+001
1.661281e+003,1.880928e+001
1.662246e+003,1.879118e+001
1.663210e+003,1.746289e+001
1.664174e+003,1.455357e+001
1.665138e+003,1.225740e+001
1.666103e+003,1.253938e+001
1.667067e+003,1.430583e+001
1.668031e+003,1.576781e+001
1.668995e+003,1.688130e+001
1.669960e+003,1.647029e+001
1.670924e+003,1.391850e+001
1.671888e+003,1.223093e+001
1.672852e+003,1.273839e+001
1.673817e+003,1.365115e+001
1.674781e+003,1.385268e+001
1.675745e+003,1.380716e+001
1.676709e+003,1.428882e+001
1.677674e+003,1.496405e+001
1.678638e+003,1.455623e+001
1.679602e+003,1.268723e+001
1.680566e+003,1.068781e+001
1.681531e+003,9.436493e+000
1.682495e+003,8.968918e+000
1.683459e+003,9.731842e+000
1.684423e+003,1.134492e+001
1.685387e+003,1.134421e+001
1.686352e+003,9.241470e+000
1.687316e+003,8.099350e+000
1.688280e+003,9.485992e+000
1.689244e+003,1.092265e+001
1.690208e+003,1.041548e+001
1.691173e+003,9.046600e+000
1.692137e+003,7.712967e+000
1.693101e+003,6.622665e+000
1.694065e+003,6.074371e+000
1.695030e+003,6.086426e+000
1.695994e+003,6.354156e+000
1.696958e+003,6.829285e+000
1.697922e+003,7.380447e+000
1.698887e+003,7.944046e+000
1.699851e+003,8.456924e+000
1.700815e+003,8.720230e+000
1.701779e+003,8.669815e+000
1.702744e+003,7.906815e+000
1.703708e+003,6.122131e+000
1.704672e+003,4.728195e+000
1.705636e+003,4.900558e+000
1.706601e+003,5.669235e+000
1.707565e+003,5.724304e+000
1.708529e+003,5.317978e+000
1.709493e+003,5.079895e+000
1.710458e+003,5.097992e+000
1.711422e+003,4.998459e+000
1.712386e+003,4.118942e+000
1.713350e+003,3.798279e+000
1.714314e+003,5.876328e+000
1.715279e+003,8.639862e+000
1.716243e+003,9.092026e+000
1.717207e+003,7.460281e+000
1.718171e+003,6.065933e+000
1.719135e+003,5.572617e+000
1.720100e+003,4.504654e+000
1.721064e+003,1.491760e+000
1.722028e+003,-1.484039e+000
1.722992e+003,-1.095291e+000
1.723957e+003,1.973068e+000
1.724921e+003,3.155472e+000
1.725885e+003,1.987564e+000
1.726849e+003,1.276810e+000
1.727814e+003,1.889618e+000
1.728778e+003,2.717880e+000
1.729742e+003,3.602356e+000
1.730706e+003,4.154816e+000
1.731671e+003,3.234436e+000
1.732635e+003,1.827057e+000
1.733599e+003,2.590469e+000
1.734563e+003,5.596405e+000
1.735528e+003,8.094009e+000
1.736492e+003,8.597015e+000
1.737456e+003,7.335861e+000
1.738420e+003,4.266556e+000
1.739385e+003,3.234863e-001
1.740349e+003,-6.548615e-001
1.741313e+003,2.282349e+000
1.742277e+003,3.634720e+000
1.743241e+003,2.460999e+000
1.744206e+003,1.424988e+000
1.745170e+003,7.272339e-001
1.746134e+003,3.074799e-001
1.747098e+003,3.036499e-001
1.748063e+003,4.140167e-001
1.749027e+003,1.547699e-001
1.749991e+003,-2.489929e-001
1.750955e+003,7.812500e-003
1.751919e+003,1.051712e+000
1.752884e+003,1.907852e+000
1.753848e+003,1.761673e+000
1.754812e+003,1.080719e+000
1.755776e+003,8.556976e-001
1.756741e+003,1.134018e+000
1.757705e+003,1.331680e+000
1.758669e+003,1.298492e+000
1.759633e+003,1.462494e+000
1.760598e+003,2.302353e+000
1.761562e+003,2.582565e+000
1.762526e+003,1.750702e+000
1.763490e+003,5.930939e-001
1.764455e+003,-9.190063e-001
1.765419e+003,-2.072266e+000
1.766383e+003,-1.620804e+000
1.767347e+003,2.224884e-001
1.768312e+003,1.939468e+000
1.769276e+003,2.803848e+000
1.770240e+003,3.135483e+000
1.771204e+003,3.444992e+000
1.772168e+003,3.512894e+000
1.773133e+003,2.244141e+000
1.774097e+003,-1.239319e-001
1.775061e+003,-8.884125e-001
1.776025e+003,4.034271e-001
1.776990e+003,1.242554e+000
1.777954e+003,6.715393e-001
1.778918e+003,-1.094055e-002
1.779882e+003,-1.311646e-001
1.780846e+003,2.474670e-001
1.781811e+003,1.628586e+000
1.782775e+003,3.474167e+000
1.783739e+003,3.755768e+000
1.784703e+003,2.082184e+000
1.785668e+003,4.327698e-001
1.786632e+003,-6.621246e-001
1.787596e+003,-1.287903e+000
1.788560e+003,-1.107086e+000
1.789525e+003,-5.892487e-001
1.790489e+003,-5.013123e-001
1.791453e+003,-7.925720e-001
1.792417e+003,-1.096710e+000
1.793382e+003,-1.297729e+000
1.794346e+003,-1.347504e+000
1.795310e+003,-1.250702e+000
1.796274e+003,-6.477814e-001
1.797239e+003,1.118988e+000
1.798203e+003,3.463440e+000
1.799167e+003,4.076950e+000
1.800131e+003,2.358276e+000
1.801095e+003,1.945938e+000
1.802060e+003,4.794266e+000
1.803024e+003,5.988983e+000
1.803988e+003,3.233261e+000
1.804952e+003,8.818207e-001
1.805917e+003,1.799561e+000
1.806881e+003,3.422577e+000
1.807845e+003,2.840515e+000
1.808809e+003,9.278107e-001
1.809773e+003,-7.124329e-002
1.810738e+003,3.873901e-001
1.811702e+003,1.700531e+000
1.812666e+003,3.434158e+000
1.813630e+003,4.544189e+000
1.814595e+003,3.337738e+000
1.815559e+003,6.907349e-001
1.816523e+003,6.774445e-001
1.817487e+003,3.687897e+000
1.818452e+003,4.980194e+000
1.819416e+003,3.688156e+000
1.820380e+003,2.779099e+000
1.821344e+003,3.444595e+000
1.822309e+003,3.967606e+000
1.823273e+003,2.999161e+000
1.824237e+003,1.773621e+000
1.825201e+003,1.663849e+000
1.826166e+003,2.259003e+000
1.827130e+003,2.405472e+000
1.828094e+003,1.874817e+000
1.829058e+003,9.973145e-001
1.830022e+003,-3.699341e-001
1.830987e+003,-1.273972e+000
1.831951e+003,-4.190063e-001
1.832915e+003,1.012573e+000
1.833879e+003,9.430237e-001
1.834844e+003,-1.185608e-002
1.835808e+003,6.498566e-001
1.836772e+003,3.050674e+000
1.837736e+003,4.235245e+000
1.838700e+003,2.840118e+000
1.839665e+003,1.037018e+000
1.840629e+003,8.383789e-001
1.841593e+003,1.574905e+000
1.842557e+003,1.788406e+000
1.843522e+003,1.483261e+000
1.844486e+003,1.301010e+000
1.845450e+003,1.185257e+000
1.846414e+003,1.504196e+000
1.847379e+003,2.907455e+000
1.848343e+003,3.606339e+000
1.849307e+003,2.634171e+000
1.850271e+003,1.331131e+000
1.851236e+003,4.953613e-001
1.852200e+003,1.178436e-001
1.853164e+003,4.663086e-002
1.854128e+003,1.394653e-001
1.855093e+003,3.148041e-001
1.856057e+003,5.870819e-001
1.857021e+003,9.196472e-001
1.857985e+003,1.246628e+000
1.858949e+003,1.554184e+000
1.859914e+003,1.887375e+000
1.860878e+003,2.230194e+000
1.861842e+003,2.233246e+000
1.862806e+003,1.849991e+000
1.863771e+003,2.410385e+000
1.864735e+003,4.610535e+000
1.865699e+003,5.240585e+000
1.866663e+003,1.997910e+000
1.867627e+003,-1.362000e+000
1.868592e+003,-1.361374e+000
1.869556e+003,4.771271e-001
1.870520e+003,1.428085e+000
1.871484e+003,1.627060e+000
1.872449e+003,2.056717e+000
1.873413e+003,3.069748e+000
1.874377e+003,4.125778e+000
1.875341e+003,5.305771e+000
1.876306e+003,5.845520e+000
1.877270e+003,4.563980e+000
1.878234e+003,3.102905e+000
1.879198e+003,3.434677e+000
1.880163e+003,4.739822e+000
1.881127e+003,5.297516e+000
1.882091e+003,4.996658e+000
1.883055e+003,4.827515e+000
1.884020e+003,5.175995e+000
1.884984e+003,5.444336e+000
1.885948e+003,5.087646e+000
1.886912e+003,4.383636e+000
1.887876e+003,3.895981e+000
1.888841e+003,3.607285e+000
1.889805e+003,3.096252e+000
1.890769e+003,2.130508e+000
1.891733e+003,2.383392e+000
1.892698e+003,4.898315e+000
1.893662e+003,6.278976e+000
1.894626e+003,4.325577e+000
1.895590e+003,2.340088e+000
1.896554e+003,3.113602e+000
1.897519e+003,4.803391e+000
1.898483e+003,5.047256e+000
1.899447e+003,4.168625e+000
1.900411e+003,3.816010e+000
1.901376e+003,4.304993e+000
1.902340e+003,4.839233e+000
1.903304e+003,5.129883e+000
1.904268e+003,5.351929e+000
1.905233e+003,5.838821e+000
1.906197e+003,6.150574e+000
1.907161e+003,5.517471e+000
1.908125e+003,4.563919e+000
1.909090e+003,4.388489e+000
1.910054e+003,4.963959e+000
1.911018e+003,5.931671e+000
1.911982e+003,7.021744e+000
1.912947e+003,7.068878e+000
1.913911e+003,5.192307e+000
1.914875e+003,3.232559e+000
1.915839e+003,4.222290e+000
1.916803e+003,7.285431e+000
1.917768e+003,7.985657e+000
1.918732e+003,5.812927e+000
1.919696e+003,5.082977e+000
1.920660e+003,6.626709e+000
1.921625e+003,7.502609e+000
1.922589e+003,6.490555e+000
1.923553e+003,5.569077e+000
1.924517e+003,5.953171e+000
1.925481e+003,6.741745e+000
1.926446e+003,7.409164e+000
1.927410e+003,7.814926e+000
1.928374e+003,7.431259e+000
1.929338e+003,6.315506e+000
1.930303e+003,5.952972e+000
1.931267e+003,7.037827e+000
1.932231e+003,8.189560e+000
1.933195e+003,9.073395e+000
1.934160e+003,9.333984e+000
1.935124e+003,8.345383e+000
1.936088e+003,6.845718e+000
1.937052e+003,5.524277e+000
1.938017e+003,4.629608e+000
1.938981e+003,4.445770e+000
1.939945e+003,4.922958e+000
1.940909e+003,5.785370e+000
1.941874e+003,6.845001e+000
1.942838e+003,7.877518e+000
1.943802e+003,8.758606e+000
1.944766e+003,9.427170e+000
1.945730e+003,9.614822e+000
1.946695e+003,9.303757e+000
1.947659e+003,8.540085e+000
1.948623e+003,7.172958e+000
1.949587e+003,7.038193e+000
1.950552e+003,8.792801e+000
1.951516e+003,1.002483e+001
1.952480e+003,9.845444e+000
1.953444e+003,9.118729e+000
1.954408e+003,7.947647e+000
1.955373e+003,6.961960e+000
1.956337e+003,7.361237e+000
1.957301e+003,8.818314e+000
1.958265e+003,1.011168e+001
1.959230e+003,1.131917e+001
1.960194e+003,1.149574e+001
1.961158e+003,9.505157e+000
1.962122e+003,7.778549e+000
1.963087e+003,6.547318e+000
1.964051e+003,6.252823e+000
1.965015e+003,8.314194e+000
1.965979e+003,1.053343e+001
1.966944e+003,1.020416e+001
1.967908e+003,8.442093e+000
1.968872e+003,7.795013e+000
1.969836e+003,8.453766e+000
1.970801e+003,8.803940e+000
1.971765e+003,8.172501e+000
1.972729e+003,7.318420e+000
1.973693e+003,6.728821e+000
1.974657e+003,6.694275e+000
1.975622e+003,8.136246e+000
1.976586e+003,1.025858e+001
1.977550e+003,1.078508e+001
1.978514e+003,9.998901e+000
1.979479e+003,9.657516e+000
1.980443e+003,9.990250e+000
1.981407e+003,1.041988e+001
1.982371e+003,1.078528e+001
1.983335e+003,1.069664e+001
1.984300e+003,9.748016e+000
1.985264e+003,8.462128e+000
1.986228e+003,7.631042e+000
1.987192e+003,7.287979e+000
1.988157e+003,7.679016e+000
1.989121e+003,9.051987e+000
1.990085e+003,1.001556e+001
1.991049e+003,1.050427e+001
1.992014e+003,1.080168e+001
1.992978e+003,1.107112e+001
1.993942e+003,1.088492e+001
1.994906e+003,9.397293e+000
1.995871e+003,8.129303e+000
1.996835e+003,8.274673e+000
1.997799e+003,9.345932e+000
1.998763e+003,1.089841e+001
1.999728e+003,1.259349e+001
