5.003444e+002,3.179480e+001
5.013087e+002,3.522864e+001
5.022729e+002,3.833752e+001
5.032371e+002,4.054279e+001
5.042014e+002,3.897534e+001
5.051656e+002,3.434290e+001
5.061298e+002,2.976495e+001
5.070941e+002,2.806335e+001
5.080583e+002,2.980548e+001
5.090225e+002,3.028210e+001
5.099868e+002,2.879187e+001
5.109510e+002,2.718616e+001
5.119152e+002,2.599585e+001
5.128795e+002,2.522253e+001
5.138437e+002,2.617517e+001
5.148079e+002,3.222357e+001
5.157722e+002,3.758948e+001
5.167364e+002,3.931775e+001
5.177006e+002,3.726526e+001
5.186649e+002,3.390735e+001
5.196291e+002,3.236365e+001
5.205933e+002,3.172363e+001
5.215576e+002,3.030060e+001
5.225218e+002,2.777319e+001
5.234860e+002,2.482013e+001
5.244503e+002,2.302106e+001
5.254145e+002,2.332062e+001
5.263787e+002,2.274347e+001
5.273430e+002,2.046301e+001
5.283072e+002,1.786243e+001
5.292714e+002,1.670917e+001
5.302357e+002,1.700195e+001
5.311999e+002,1.802802e+001
5.321641e+002,2.138959e+001
5.331284e+002,2.481079e+001
5.340926e+002,2.623492e+001
5.350568e+002,2.465881e+001
5.360211e+002,2.184473e+001
5.369853e+002,1.895697e+001
5.379495e+002,1.666711e+001
5.389138e+002,1.561774e+001
5.398780e+002,1.592535e+001
5.408422e+002,1.709204e+001
5.418065e+002,1.810547e+001
5.427707e+002,1.895245e+001
5.437349e+002,1.950824e+001
5.446992e+002,1.969098e+001
5.456634e+002,1.947266e+001
5.466276e+002,1.889410e+001
5.475919e+002,1.855603e+001
5.485561e+002,1.713171e+001
5.495203e+002,1.246906e+001
5.504846e+002,7.128296e+000
5.514488e+002,5.332092e+000
5.524130e+002,1.049524e+001
5.533773e+002,1.550891e+001
5.543415e+002,1.656653e+001
5.553057e+002,1.567480e+001
5.562700e+002,1.471393e+001
5.572342e+002,1.479614e+001
5.581984e+002,1.527240e+001
5.591627e+002,1.471265e+001
5.601269e+002,1.369562e+001
5.610911e+002,1.311633e+001
5.620554e+002,1.340314e+001
5.630196e+002,1.420758e+001
5.639838e+002,1.345099e+001
5.649481e+002,9.604248e+000
5.659123e+002,6.469543e+000
5.668765e+002,5.324829e+000
5.678408e+002,5.793701e+000
5.688050e+002,6.249634e+000
5.697692e+002,5.351379e+000
5.707335e+002,4.821777e+000
5.716977e+002,6.082825e+000
5.726619e+002,7.957886e+000
5.736262e+002,8.647583e+000
5.745904e+002,6.725586e+000
5.755546e+002,4.369507e+000
5.765189e+002,5.109314e+000
5.774831e+002,7.392273e+000
5.784473e+002,8.874390e+000
5.794116e+002,8.103271e+000
5.803758e+002,5.568176e+000
5.813400e+002,4.811096e+000
5.823043e+002,6.206177e+000
5.832685e+002,6.574463e+000
5.842327e+002,4.300171e+000
5.851970e+002,1.671143e-001
5.861612e+002,-2.053101e+000
5.871254e+002,-5.533447e-001
5.880897e+002,1.163025e+000
5.890539e+002,2.549744e+000
5.900181e+002,3.507629e+000
5.909824e+002,4.136780e+000
5.919466e+002,4.557617e+000
5.929108e+002,4.835022e+000
5.938751e+002,5.282898e+000
5.948393e+002,5.618774e+000
5.958035e+002,5.188721e+000
5.967678e+002,3.595703e+000
5.977320e+002,1.344482e+000
5.986962e+002,2.012939e+000
5.996605e+002,5.332031e+000
6.006247e+002,7.706665e+000
6.015889e+002,6.765930e+000
6.025532e+002,2.886169e+000
6.035174e+002,1.108154e+000
6.044816e+002,4.195435e+000
6.054459e+002,6.691284e+000
6.064101e+002,7.887695e+000
6.073743e+002,7.924805e+000
6.083386e+002,7.206909e+000
6.093028e+002,5.751526e+000
6.102670e+002,4.079163e+000
6.112313e+002,1.875793e+000
6.121955e+002,-1.192627e-001
6.131597e+002,-6.543579e-001
6.141240e+002,1.066528e+000
6.150882e+002,4.141663e+000
6.160524e+002,4.707031e+000
6.170167e+002,3.375671e+000
6.179809e+002,1.923218e+000
6.189451e+002,6.240845e-001
6.199094e+002,-4.971313e-001
6.208736e+002,-4.602051e-002
6.218378e+002,5.836487e+000
6.228021e+002,9.479370e+000
6.237663e+002,9.447876e+000
6.247305e+002,7.079285e+000
6.256948e+002,4.188721e+000
6.266590e+002,6.036377e-001
6.276232e+002,-2.238342e+000
6.285875e+002,-3.091248e+000
6.295517e+002,-2.745117e+000
6.305159e+002,-1.954651e+000
6.314802e+002,-1.270508e+000
6.324444e+002,-8.864746e-001
6.334086e+002,-9.144287e-001
6.343729e+002,-1.053528e+000
6.353371e+002,-1.476990e+000
6.363013e+002,-2.467468e+000
6.372656e+002,-3.767212e+000
6.382298e+002,-4.149719e+000
6.391940e+002,-2.471069e+000
6.401583e+002,-1.574829e+000
6.411225e+002,-1.567383e+000
6.420867e+002,-1.644409e+000
6.430510e+002,-9.763794e-001
6.440152e+002,6.524048e-001
6.449794e+002,1.787720e+000
6.459437e+002,2.015991e+000
6.469079e+002,1.410706e+000
6.478721e+002,-4.667969e-001
6.488364e+002,-3.402771e+000
6.498006e+002,-6.003845e+000
6.507648e+002,-5.275269e+000
6.517291e+002,-2.610413e+000
6.526933e+002,-1.240112e+000
6.536575e+002,-1.837524e+000
6.546218e+002,-3.457458e+000
6.555860e+002,-4.296692e+000
6.565502e+002,-4.207886e+000
6.575145e+002,-3.489014e+000
6.584787e+002,-1.123901e+000
6.594429e+002,1.044128e+000
6.604072e+002,1.175293e+000
6.613714e+002,-1.222229e+000
6.623356e+002,-2.961792e+000
6.632999e+002,-1.915833e+000
6.642641e+002,-7.852173e-001
6.652283e+002,-1.116394e+000
6.661926e+002,-2.579285e+000
6.671568e+002,-3.352966e+000
6.681210e+002,-9.107666e-001
6.690853e+002,3.007446e+000
6.700495e+002,4.058533e+000
6.710137e+002,2.310059e+000
6.719780e+002,-1.772461e-001
6.729422e+002,-1.230530e+000
6.739064e+002,-5.421143e-001
6.748707e+002,-9.722290e-001
6.758349e+002,-3.548767e+000
6.767991e+002,-5.860352e+000
6.777634e+002,-6.533691e+000
6.787276e+002,-5.521729e+000
6.796918e+002,-4.158630e+000
6.806561e+002,-3.136169e+000
6.816203e+002,-2.205322e+000
6.825845e+002,-7.105713e-001
6.835488e+002,6.810303e-001
6.845130e+002,6.519775e-001
6.854772e+002,-1.916016e+000
6.864415e+002,-5.135986e+000
6.874057e+002,-4.936401e+000
6.883699e+002,-2.708923e+000
6.893342e+002,-1.108887e+000
6.902984e+002,-1.575867e+000
6.912626e+002,-3.620605e+000
6.922269e+002,-4.523132e+000
6.931911e+002,-2.191101e+000
6.941553e+002,-6.473389e-001
6.951196e+002,-9.479370e-001
6.960838e+002,-2.518860e+000
6.970480e+002,-4.537781e+000
6.980123e+002,-7.490967e+000
6.989765e+002,-8.564514e+000
6.999407e+002,-5.397278e+000
7.009050e+002,-1.365051e+000
7.018692e+002,8.524780e-001
7.028334e+002,3.259888e-001
7.037977e+002,-1.727356e+000
7.047619e+002,-3.853455e+000
7.057261e+002,-5.490784e+000
7.066904e+002,-5.632751e+000
7.076546e+002,-4.137512e+000
7.086188e+002,-2.270752e+000
7.095831e+002,-2.130859e+000
7.105473e+002,-4.806152e+000
7.115115e+002,-6.350891e+000
7.124758e+002,-6.698975e+000
7.134400e+002,-6.481323e+000
7.144042e+002,-5.645508e+000
7.153685e+002,-4.134521e+000
7.163327e+002,-2.866943e+000
7.172969e+002,-2.480347e+000
7.182612e+002,-2.171570e+000
7.192254e+002,-1.512634e+000
7.201896e+002,-8.600464e-001
7.211539e+002,-1.106506e+000
7.221181e+002,-3.155457e+000
7.230823e+002,-5.742371e+000
7.240466e+002,-5.088501e+000
7.250108e+002,-1.701294e+000
7.259750e+002,1.568481e+000
7.269393e+002,2.770264e+000
7.279035e+002,1.814453e+000
7.288677e+002,8.333740e-001
7.298320e+002,1.592407e+000
7.307962e+002,1.376160e+000
7.317604e+002,-1.452087e+000
7.327247e+002,-4.701660e+000
7.336889e+002,-5.283508e+000
7.346531e+002,-2.159912e+000
7.356174e+002,6.928101e-001
7.365816e+002,3.003418e+000
7.375458e+002,4.043945e+000
7.385101e+002,1.705200e+000
7.394743e+002,-3.608276e+000
7.404385e+002,-8.144104e+000
7.414028e+002,-5.364197e+000
7.423670e+002,2.244446e+000
7.433312e+002,5.332764e+000
7.442955e+002,3.500122e+000
7.452597e+002,5.084229e-001
7.462239e+002,6.779785e-001
7.471882e+002,5.219055e+000
7.481524e+002,6.850769e+000
7.491166e+002,1.886780e+000
7.500809e+002,-2.220703e+000
7.510451e+002,-1.657776e+000
7.520093e+002,2.342163e+000
7.529736e+002,4.858154e+000
7.539378e+002,3.349548e+000
7.549020e+002,9.652710e-001
7.558663e+002,-8.673096e-001
7.568306e+002,-2.043274e+000
7.577948e+002,-2.544495e+000
7.587590e+002,-2.484863e+000
7.597233e+002,-2.158142e+000
7.606875e+002,-1.351929e+000
7.616517e+002,4.241943e-002
7.626160e+002,4.876709e-002
7.635802e+002,-2.458801e+000
7.645444e+002,-5.851074e+000
7.655087e+002,-6.698730e+000
7.664729e+002,-3.813599e+000
7.674371e+002,-9.919434e-001
7.684014e+002,2.553467e+000
7.693656e+002,5.016663e+000
7.703298e+002,4.483948e+000
7.712941e+002,1.185608e+000
7.722583e+002,-1.422424e+000
7.732225e+002,-1.173096e-001
7.741868e+002,2.251343e+000
7.751510e+002,3.673706e+000
7.761152e+002,4.208435e+000
7.770795e+002,4.444763e+000
7.780437e+002,4.853821e+000
7.790079e+002,5.295837e+000
7.799722e+002,5.393066e+000
7.809364e+002,5.216614e+000
7.819006e+002,4.610779e+000
7.828649e+002,3.447632e+000
7.838291e+002,2.142212e+000
7.847933e+002,1.697998e+000
7.857576e+002,3.112183e+000
7.867218e+002,2.522095e+000
7.876860e+002,-2.463135e+000
7.886503e+002,-7.569519e+000
7.896145e+002,-8.836670e+000
7.905787e+002,-5.426147e+000
7.915430e+002,-9.507446e-001
7.925072e+002,5.892944e-001
7.934714e+002,5.278931e-001
7.944357e+002,9.124146e-001
7.953999e+002,1.908264e+000
7.963641e+002,2.179504e+000
7.973284e+002,-4.949951e-002
7.982926e+002,-5.070923e+000
7.992568e+002,-6.329590e+000
8.002211e+002,-2.655762e+000
8.011853e+002,1.588135e-001
8.021495e+002,2.201538e-001
8.031138e+002,-1.356140e+000
8.040780e+002,-2.122498e+000
8.050422e+002,-2.188232e+000
8.060065e+002,-1.375488e+000
8.069707e+002,6.413574e-001
8.079349e+002,2.841797e+000
8.088992e+002,4.642883e+000
8.098634e+002,5.872559e+000
8.108276e+002,6.329529e+000
8.117919e+002,4.353210e+000
8.127561e+002,1.076538e+000
8.137203e+002,5.651245e-001
8.146846e+002,3.554077e+000
8.156488e+002,7.150391e+000
8.166130e+002,7.429016e+000
8.175773e+002,3.504456e+000
8.185415e+002,9.735718e-001
8.195057e+002,-1.078308e+000
8.204700e+002,-1.646851e+000
8.214342e+002,8.397217e-001
8.223984e+002,5.094666e+000
8.233627e+002,7.655457e+000
8.243269e+002,6.662476e+000
8.252911e+002,5.466187e+000
8.262554e+002,6.248779e+000
8.272196e+002,7.698486e+000
8.281838e+002,8.318237e+000
8.291481e+002,7.628113e+000
8.301123e+002,6.478394e+000
8.310765e+002,6.376770e+000
8.320408e+002,7.193176e+000
8.330050e+002,8.104248e+000
8.339692e+002,9.494019e+000
8.349335e+002,9.958069e+000
8.358977e+002,7.212830e+000
8.368619e+002,5.119629e-001
8.378262e+002,-2.352112e+000
8.387904e+002,2.043274e+000
8.397546e+002,6.037537e+000
8.407189e+002,7.726563e+000
8.416831e+002,7.828979e+000
8.426473e+002,7.896423e+000
8.436116e+002,8.646606e+000
8.445758e+002,9.592468e+000
8.455400e+002,9.473816e+000
8.465043e+002,8.865662e+000
8.474685e+002,9.254150e+000
8.484327e+002,1.109753e+001
8.493970e+002,1.327161e+001
8.503612e+002,1.341339e+001
8.513254e+002,1.091034e+001
8.522897e+002,9.239258e+000
8.532539e+002,7.689819e+000
8.542181e+002,7.242676e+000
8.551824e+002,9.488464e+000
8.561466e+002,1.438123e+001
8.571108e+002,1.877173e+001
8.580751e+002,2.149420e+001
8.590393e+002,2.236908e+001
8.600035e+002,2.122675e+001
8.609678e+002,1.903033e+001
8.619320e+002,1.624933e+001
8.628962e+002,1.319141e+001
8.638605e+002,1.075812e+001
8.648247e+002,1.074316e+001
8.657889e+002,1.235577e+001
8.667532e+002,1.442615e+001
8.677174e+002,1.678998e+001
8.686816e+002,1.870447e+001
8.696459e+002,1.930634e+001
8.706101e+002,1.855426e+001
8.715743e+002,1.813293e+001
8.725386e+002,1.793262e+001
8.735028e+002,1.822101e+001
8.744670e+002,1.913135e+001
8.754313e+002,2.007672e+001
8.763955e+002,2.015698e+001
8.773597e+002,1.895905e+001
8.783240e+002,1.801312e+001
8.792882e+002,1.867029e+001
8.802524e+002,1.959753e+001
8.812167e+002,1.936255e+001
8.821809e+002,1.796527e+001
8.831451e+002,1.688904e+001
8.841094e+002,1.823450e+001
8.850736e+002,2.206720e+001
8.860378e+002,2.388678e+001
8.870021e+002,2.294684e+001
8.879663e+002,2.217151e+001
8.889305e+002,2.349866e+001
8.898948e+002,2.626288e+001
8.908590e+002,2.741711e+001
8.918232e+002,2.544446e+001
8.927875e+002,2.466418e+001
8.937517e+002,2.680750e+001
8.947159e+002,2.978064e+001
8.956802e+002,3.209155e+001
8.966444e+002,3.299298e+001
8.976086e+002,3.187836e+001
8.985729e+002,2.699438e+001
8.995371e+002,2.158142e+001
9.005013e+002,2.082935e+001
9.014656e+002,2.437500e+001
9.024298e+002,2.927631e+001
9.033940e+002,3.326318e+001
9.043583e+002,3.607440e+001
9.053225e+002,3.781818e+001
9.062867e+002,3.698529e+001
9.072510e+002,3.648431e+001
9.082152e+002,3.804755e+001
9.091794e+002,3.961346e+001
9.101437e+002,3.817316e+001
9.111079e+002,3.316467e+001
9.120721e+002,2.972729e+001
9.130364e+002,3.296899e+001
9.140006e+002,3.632007e+001
9.149648e+002,3.592096e+001
9.159291e+002,3.300891e+001
9.168933e+002,3.037756e+001
9.178575e+002,2.983887e+001
9.188218e+002,3.062439e+001
9.197860e+002,3.064630e+001
9.207502e+002,2.970392e+001
9.217145e+002,2.948944e+001
9.226787e+002,3.133582e+001
9.236429e+002,3.388452e+001
9.246072e+002,3.513806e+001
9.255714e+002,3.484070e+001
9.265356e+002,3.320471e+001
9.274999e+002,2.819312e+001
9.284641e+002,2.382318e+001
9.294283e+002,2.156982e+001
9.303926e+002,2.120282e+001
9.313568e+002,2.242249e+001
9.323210e+002,2.521289e+001
9.332853e+002,2.765216e+001
9.342495e+002,2.502289e+001
9.352137e+002,2.019989e+001
9.361780e+002,1.831091e+001
9.371422e+002,2.066522e+001
9.381064e+002,2.442206e+001
9.390707e+002,2.529626e+001
9.400349e+002,2.223547e+001
9.409991e+002,2.106989e+001
9.419634e+002,2.327570e+001
9.429276e+002,2.503278e+001
9.438918e+002,2.551312e+001
9.448561e+002,2.500842e+001
9.458203e+002,2.354004e+001
9.467845e+002,2.068616e+001
9.477488e+002,1.959967e+001
9.487130e+002,2.472113e+001
9.496772e+002,3.094086e+001
9.506415e+002,3.443756e+001
9.516057e+002,3.490186e+001
9.525699e+002,3.392352e+001
9.535342e+002,3.302246e+001
9.544984e+002,3.195050e+001
9.554626e+002,2.938959e+001
9.564269e+002,2.527747e+001
9.573911e+002,2.253717e+001
9.583553e+002,2.222534e+001
9.593196e+002,2.340533e+001
9.602838e+002,2.484003e+001
9.612480e+002,2.658984e+001
9.622123e+002,2.759796e+001
9.631765e+002,2.696942e+001
9.641407e+002,2.639307e+001
9.651050e+002,2.667255e+001
9.660692e+002,2.740253e+001
9.670334e+002,2.765479e+001
9.679977e+002,2.701239e+001
9.689619e+002,2.661243e+001
9.699261e+002,2.909003e+001
9.708904e+002,3.306793e+001
9.718546e+002,3.527368e+001
9.728188e+002,3.475287e+001
9.737831e+002,3.260480e+001
9.747473e+002,2.996912e+001
9.757115e+002,2.654675e+001
9.766758e+002,2.500043e+001
9.776400e+002,2.738629e+001
9.786042e+002,2.970331e+001
9.795685e+002,3.110779e+001
9.805327e+002,3.141315e+001
9.814969e+002,3.039355e+001
9.824612e+002,2.817236e+001
9.834254e+002,2.647443e+001
9.843896e+002,2.717920e+001
9.853539e+002,2.864667e+001
9.863181e+002,2.923804e+001
9.872823e+002,2.872449e+001
9.882466e+002,2.765515e+001
9.892108e+002,2.676886e+001
9.901750e+002,2.670776e+001
9.911393e+002,2.874939e+001
9.921035e+002,3.402167e+001
9.930677e+002,3.762280e+001
9.940320e+002,3.853052e+001
9.949962e+002,3.903784e+001
9.959604e+002,4.148322e+001
9.969247e+002,4.600079e+001
9.978889e+002,5.003644e+001
9.988531e+002,5.125073e+001
9.998174e+002,5.200122e+001
1.000782e+003,5.435040e+001
1.001746e+003,5.759344e+001
1.002710e+003,6.050439e+001
1.003674e+003,6.246234e+001
1.004639e+003,6.366479e+001
1.005603e+003,6.438074e+001
1.006567e+003,6.443408e+001
1.007531e+003,6.565033e+001
1.008495e+003,6.912024e+001
1.009460e+003,7.171606e+001
1.010424e+003,7.153339e+001
1.011388e+003,6.909454e+001
1.012352e+003,6.601367e+001
1.013317e+003,6.177612e+001
1.014281e+003,5.784613e+001
1.015245e+003,5.467188e+001
1.016209e+003,5.156482e+001
1.017174e+003,4.799097e+001
1.018138e+003,4.409637e+001
1.019102e+003,4.048651e+001
1.020066e+003,3.772565e+001
1.021031e+003,3.588397e+001
1.021995e+003,3.478326e+001
1.022959e+003,3.392322e+001
1.023923e+003,3.251801e+001
1.024887e+003,3.031256e+001
1.025852e+003,2.728949e+001
1.026816e+003,2.305426e+001
1.027780e+003,1.710651e+001
1.028744e+003,1.372046e+001
1.029709e+003,1.529047e+001
1.030673e+003,1.683447e+001
1.031637e+003,1.695386e+001
1.032601e+003,1.592670e+001
1.033566e+003,1.431421e+001
1.034530e+003,1.244415e+001
1.035494e+003,1.067432e+001
1.036458e+003,8.906494e+000
1.037422e+003,7.568481e+000
1.038387e+003,7.892944e+000
1.039351e+003,9.589844e+000
1.040315e+003,1.068292e+001
1.041279e+003,9.575562e+000
1.042244e+003,7.232422e+000
1.043208e+003,7.911560e+000
1.044172e+003,1.427710e+001
1.045136e+003,1.841254e+001
1.046101e+003,1.952289e+001
1.047065e+003,1.950757e+001
1.048029e+003,1.927008e+001
1.048993e+003,1.880823e+001
1.049958e+003,1.764215e+001
1.050922e+003,1.519073e+001
1.051886e+003,1.354822e+001
1.052850e+003,1.593567e+001
1.053814e+003,1.967566e+001
1.054779e+003,2.117969e+001
1.055743e+003,1.970007e+001
1.056707e+003,1.691168e+001
1.057671e+003,1.478290e+001
1.058636e+003,1.324463e+001
1.059600e+003,1.240417e+001
1.060564e+003,1.340216e+001
1.061528e+003,1.429114e+001
1.062493e+003,1.420813e+001
1.063457e+003,1.362567e+001
1.064421e+003,1.357605e+001
1.065385e+003,1.427258e+001
1.066349e+003,1.403821e+001
1.067314e+003,1.088324e+001
1.068278e+003,7.953857e+000
1.069242e+003,7.722656e+000
1.070206e+003,9.275940e+000
1.071171e+003,1.107452e+001
1.072135e+003,1.224731e+001
1.073099e+003,1.282745e+001
1.074063e+003,1.312872e+001
1.075028e+003,1.326782e+001
1.075992e+003,1.331812e+001
1.076956e+003,1.310089e+001
1.077920e+003,1.254980e+001
1.078885e+003,1.152795e+001
1.079849e+003,1.067090e+001
1.080813e+003,1.126215e+001
1.081777e+003,1.391351e+001
1.082741e+003,1.587451e+001
1.083706e+003,1.441217e+001
1.084670e+003,1.227844e+001
1.085634e+003,1.070142e+001
1.086598e+003,9.692688e+000
1.087563e+003,9.109070e+000
1.088527e+003,8.988159e+000
1.089491e+003,9.336243e+000
1.090455e+003,9.672913e+000
1.091420e+003,9.715088e+000
1.092384e+003,9.668396e+000
1.093348e+003,9.274658e+000
1.094312e+003,8.740906e+000
1.095276e+003,8.377930e+000
1.096241e+003,8.380127e+000
1.097205e+003,8.702271e+000
1.098169e+003,9.078003e+000
1.099133e+003,9.739502e+000
1.100098e+003,1.121069e+001
1.101062e+003,1.288300e+001
1.102026e+003,1.467468e+001
1.102990e+003,1.635724e+001
1.103955e+003,1.742657e+001
1.104919e+003,1.752820e+001
1.105883e+003,1.698157e+001
1.106847e+003,1.651044e+001
1.107812e+003,1.611328e+001
1.108776e+003,1.686932e+001
1.109740e+003,1.974261e+001
1.110704e+003,2.188428e+001
1.111668e+003,2.055817e+001
1.112633e+003,1.706091e+001
1.113597e+003,1.640167e+001
1.114561e+003,2.020142e+001
1.115525e+003,2.341937e+001
1.116490e+003,2.481830e+001
1.117454e+003,2.486420e+001
1.118418e+003,2.259216e+001
1.119382e+003,1.971649e+001
1.120347e+003,1.993243e+001
1.121311e+003,2.520105e+001
1.122275e+003,3.179199e+001
1.123239e+003,3.239484e+001
1.124203e+003,2.808588e+001
1.125168e+003,2.741199e+001
1.126132e+003,3.213489e+001
1.127096e+003,3.781714e+001
1.128060e+003,4.118787e+001
1.129025e+003,4.245422e+001
1.129989e+003,4.294983e+001
1.130953e+003,4.185547e+001
1.131917e+003,4.171643e+001
1.132882e+003,4.424298e+001
1.133846e+003,4.708533e+001
1.134810e+003,4.847723e+001
1.135774e+003,4.905988e+001
1.136739e+003,5.053479e+001
1.137703e+003,5.383167e+001
1.138667e+003,5.831451e+001
1.139631e+003,6.306207e+001
1.140595e+003,6.805756e+001
1.141560e+003,7.360901e+001
1.142524e+003,7.983374e+001
1.143488e+003,8.730469e+001
1.144452e+003,9.629950e+001
1.145417e+003,1.067119e+002
1.146381e+003,1.182448e+002
1.147345e+003,1.309415e+002
1.148309e+003,1.443050e+002
1.149274e+003,1.594323e+002
1.150238e+003,1.742755e+002
1.151202e+003,1.873000e+002
1.152166e+003,1.997247e+002
1.153130e+003,2.150062e+002
1.154095e+003,2.338998e+002
1.155059e+003,2.500759e+002
1.156023e+003,2.545137e+002
1.156987e+003,2.482059e+002
1.157952e+003,2.418555e+002
1.158916e+003,2.363971e+002
1.159880e+003,2.297314e+002
1.160844e+003,2.197585e+002
1.161809e+003,2.068818e+002
1.162773e+003,1.932552e+002
1.163737e+003,1.792286e+002
1.164701e+003,1.630945e+002
1.165666e+003,1.394457e+002
1.166630e+003,1.194050e+002
1.167594e+003,1.075336e+002
1.168558e+003,1.015617e+002
1.169522e+003,9.911163e+001
1.170487e+003,9.878638e+001
1.171451e+003,9.928455e+001
1.172415e+003,9.916235e+001
1.173379e+003,9.835388e+001
1.174344e+003,9.721588e+001
1.175308e+003,9.594562e+001
1.176272e+003,9.409082e+001
1.177236e+003,9.099640e+001
1.178201e+003,8.787488e+001
1.179165e+003,8.634808e+001
1.180129e+003,8.618103e+001
1.181093e+003,8.496271e+001
1.182057e+003,8.216895e+001
1.183022e+003,7.861053e+001
1.183986e+003,7.290894e+001
1.184950e+003,6.789996e+001
1.185914e+003,6.738916e+001
1.186879e+003,7.080664e+001
1.187843e+003,7.358441e+001
1.188807e+003,7.183282e+001
1.189771e+003,6.747821e+001
1.190736e+003,6.691821e+001
1.191700e+003,7.054779e+001
1.192664e+003,7.388440e+001
1.193628e+003,7.793933e+001
1.194593e+003,8.029510e+001
1.195557e+003,7.801147e+001
1.196521e+003,7.244122e+001
1.197485e+003,6.889886e+001
1.198449e+003,6.919727e+001
1.199414e+003,6.846777e+001
1.200378e+003,6.280298e+001
1.201342e+003,5.699670e+001
1.202306e+003,5.394720e+001
1.203271e+003,5.300543e+001
1.204235e+003,5.271692e+001
1.205199e+003,5.223419e+001
1.206163e+003,5.091028e+001
1.207128e+003,4.736127e+001
1.208092e+003,4.144183e+001
1.209056e+003,3.783850e+001
1.210020e+003,3.780896e+001
1.210984e+003,3.720239e+001
1.211949e+003,3.437805e+001
1.212913e+003,3.047559e+001
1.213877e+003,2.690472e+001
1.214841e+003,2.389178e+001
1.215806e+003,2.151160e+001
1.216770e+003,2.022620e+001
1.217734e+003,1.871143e+001
1.218698e+003,1.527289e+001
1.219663e+003,1.127936e+001
1.220627e+003,8.504211e+000
1.221591e+003,7.233582e+000
1.222555e+003,6.631287e+000
1.223520e+003,6.000854e+000
1.224484e+003,5.511108e+000
1.225448e+003,5.317993e+000
1.226412e+003,5.869507e+000
1.227376e+003,5.418335e+000
1.228341e+003,2.356995e+000
1.229305e+003,-1.159058e-001
1.230269e+003,7.639771e-001
1.231233e+003,3.143738e+000
1.232198e+003,2.689941e+000
1.233162e+003,-1.758911e+000
1.234126e+003,-4.979248e+000
1.235090e+003,-2.208069e+000
1.236055e+003,2.231567e+000
1.237019e+003,3.823486e+000
1.237983e+003,3.087341e+000
1.238947e+003,1.954041e+000
1.239911e+003,1.409546e+000
1.240876e+003,1.292969e+000
1.241840e+003,1.190674e+000
1.242804e+003,1.112488e+000
1.243768e+003,1.221985e+000
1.244733e+003,8.486938e-001
1.245697e+003,1.711792e+000
1.246661e+003,5.449097e+000
1.247625e+003,8.485962e+000
1.248590e+003,7.492004e+000
1.249554e+003,3.849915e+000
1.250518e+003,1.690430e+000
1.251482e+003,2.716248e+000
1.252447e+003,5.119873e+000
1.253411e+003,7.916992e+000
1.254375e+003,1.048969e+001
1.255339e+003,1.082025e+001
1.256303e+003,9.100586e+000
1.257268e+003,7.888123e+000
1.258232e+003,8.266052e+000
1.259196e+003,9.686462e+000
1.260160e+003,1.182532e+001
1.261125e+003,1.517194e+001
1.262089e+003,1.802704e+001
1.263053e+003,1.931122e+001
1.264017e+003,2.052045e+001
1.264982e+003,2.274603e+001
1.265946e+003,2.477832e+001
1.266910e+003,2.526801e+001
1.267874e+003,2.436523e+001
1.268839e+003,2.334943e+001
1.269803e+003,2.309290e+001
1.270767e+003,2.298450e+001
1.271731e+003,2.175317e+001
1.272695e+003,1.959644e+001
1.273660e+003,1.812915e+001
1.274624e+003,1.719141e+001
1.275588e+003,1.601593e+001
1.276552e+003,1.468292e+001
1.277517e+003,1.322699e+001
1.278481e+003,1.095581e+001
1.279445e+003,7.584961e+000
1.280409e+003,5.393005e+000
1.281374e+003,6.071411e+000
1.282338e+003,6.951660e+000
1.283302e+003,6.409729e+000
1.284266e+003,5.349548e+000
1.285230e+003,4.864502e+000
1.286195e+003,5.020752e+000
1.287159e+003,5.237976e+000
1.288123e+003,5.179138e+000
1.289087e+003,4.984314e+000
1.290052e+003,4.395020e+000
1.291016e+003,2.811646e+000
1.291980e+003,2.134521e+000
1.292944e+003,2.376526e+000
1.293909e+003,2.810852e+000
1.294873e+003,4.383118e+000
1.295837e+003,5.835571e+000
1.296801e+003,4.492676e+000
1.297766e+003,3.670654e-001
1.298730e+003,-2.154480e+000
1.299694e+003,-2.248535e-001
1.300658e+003,2.632080e+000
1.301622e+003,2.452026e+000
1.302587e+003,8.452148e-001
1.303551e+003,5.969238e-002
1.304515e+003,6.266479e-001
1.305479e+003,2.071777e+000
1.306444e+003,3.981384e+000
1.307408e+003,6.013794e+000
1.308372e+003,7.507813e+000
1.309336e+003,8.470642e+000
1.310301e+003,8.745544e+000
1.311265e+003,9.108398e+000
1.312229e+003,8.217529e+000
1.313193e+003,4.162964e+000
1.314157e+003,-4.948120e-001
1.315122e+003,-3.047791e+000
1.316086e+003,-3.391235e+000
1.317050e+003,-3.329956e+000
1.318014e+003,-3.936646e+000
1.318979e+003,-4.139771e+000
1.319943e+003,-1.616211e+000
1.320907e+003,3.242981e+000
1.321871e+003,5.525574e+000
1.322836e+003,4.040833e+000
1.323800e+003,1.994690e+000
1.324764e+003,6.433716e-001
1.325728e+003,1.358643e-001
1.326693e+003,1.118042e+000
1.327657e+003,3.466003e+000
1.328621e+003,4.128784e+000
1.329585e+003,2.056152e+000
1.330549e+003,4.651489e-001
1.331514e+003,-1.730347e-001
1.332478e+003,-1.425171e-001
1.333442e+003,1.082520e+000
1.334406e+003,3.191650e+000
1.335371e+003,5.054932e+000
1.336335e+003,5.961426e+000
1.337299e+003,6.065063e+000
1.338263e+003,5.461670e+000
1.339228e+003,3.988159e+000
1.340192e+003,3.501038e+000
1.341156e+003,5.541687e+000
1.342120e+003,6.213806e+000
1.343084e+003,3.297607e+000
1.344049e+003,-2.783203e-001
1.345013e+003,-1.987488e+000
1.345977e+003,-1.778076e+000
1.346941e+003,-5.054932e-001
1.347906e+003,1.570618e+000
1.348870e+003,3.461792e+000
1.349834e+003,4.076721e+000
1.350798e+003,3.750610e+000
1.351763e+003,3.463806e+000
1.352727e+003,3.323303e+000
1.353691e+003,3.542847e+000
1.354655e+003,4.474976e+000
1.355620e+003,4.989868e+000
1.356584e+003,3.280396e+000
1.357548e+003,-1.781006e-001
1.358512e+003,-1.958435e+000
1.359476e+003,-1.770935e+000
1.360441e+003,-1.527710e+000
1.361405e+003,-1.157349e+000
1.362369e+003,-1.080627e+000
1.363333e+003,-1.769653e+000
1.364298e+003,-2.727722e+000
1.365262e+003,-3.483154e+000
1.366226e+003,-3.746643e+000
1.367190e+003,-3.000793e+000
1.368155e+003,-7.444458e-001
1.369119e+003,2.285583e+000
1.370083e+003,3.781311e+000
1.371047e+003,3.491638e+000
1.372011e+003,3.318115e+000
1.372976e+003,2.331726e+000
1.373940e+003,1.935974e+000
1.374904e+003,3.597229e+000
1.375868e+003,5.809570e+000
1.376833e+003,6.329407e+000
1.377797e+003,5.110962e+000
1.378761e+003,3.939758e+000
1.379725e+003,3.527588e+000
1.380690e+003,3.812744e+000
1.381654e+003,5.221313e+000
1.382618e+003,7.210083e+000
1.383582e+003,9.308044e+000
1.384547e+003,1.130688e+001
1.385511e+003,1.229559e+001
1.386475e+003,1.159973e+001
1.387439e+003,9.842651e+000
1.388403e+003,7.663574e+000
1.389368e+003,5.034546e+000
1.390332e+003,3.931763e+000
1.391296e+003,5.693298e+000
1.392260e+003,6.845825e+000
1.393225e+003,5.846558e+000
1.394189e+003,4.744690e+000
1.395153e+003,5.200073e+000
1.396117e+003,6.132935e+000
1.397082e+003,5.094299e+000
1.398046e+003,2.104004e+000
1.399010e+003,5.981445e-001
1.399974e+003,3.624756e+000
1.400938e+003,9.001160e+000
1.401903e+003,1.086572e+001
1.402867e+003,9.113464e+000
1.403831e+003,8.065430e+000
1.404795e+003,7.067017e+000
1.405760e+003,6.729675e+000
1.406724e+003,7.199890e+000
1.407688e+003,7.353271e+000
1.408652e+003,6.112793e+000
1.409617e+003,4.142517e+000
1.410581e+003,3.695923e+000
1.411545e+003,5.951599e+000
1.412509e+003,8.260498e+000
1.413474e+003,7.462097e+000
1.414438e+003,4.855408e+000
1.415402e+003,3.264343e+000
1.416366e+003,2.898193e+000
1.417330e+003,2.624878e+000
1.418295e+003,1.793274e+000
1.419259e+003,1.751953e+000
1.420223e+003,4.735352e+000
1.421187e+003,9.800964e+000
1.422152e+003,1.197601e+001
1.423116e+003,1.040326e+001
1.424080e+003,9.754456e+000
1.425044e+003,1.190613e+001
1.426009e+003,1.387329e+001
1.426973e+003,1.469598e+001
1.427937e+003,1.445233e+001
1.428901e+003,1.302179e+001
1.429865e+003,1.092365e+001
1.430830e+003,9.223938e+000
1.431794e+003,8.473450e+000
1.432758e+003,8.308044e+000
1.433722e+003,8.394592e+000
1.434687e+003,9.135010e+000
1.435651e+003,1.158002e+001
1.436615e+003,1.681006e+001
1.437579e+003,1.978113e+001
1.438544e+003,1.838702e+001
1.439508e+003,1.660785e+001
1.440472e+003,1.804883e+001
1.441436e+003,2.116650e+001
1.442401e+003,2.219305e+001
1.443365e+003,2.025232e+001
1.444329e+003,1.786243e+001
1.445293e+003,1.696417e+001
1.446257e+003,1.686218e+001
1.447222e+003,1.558002e+001
1.448186e+003,1.357831e+001
1.449150e+003,1.430292e+001
1.450114e+003,1.891461e+001
1.451079e+003,2.221948e+001
1.452043e+003,2.073871e+001
1.453007e+003,1.753290e+001
1.453971e+003,1.685339e+001
1.454936e+003,1.817175e+001
1.455900e+003,1.760461e+001
1.456864e+003,1.346552e+001
1.457828e+003,1.122632e+001
1.458792e+003,1.659601e+001
1.459757e+003,2.240900e+001
1.460721e+003,2.207208e+001
1.461685e+003,1.787512e+001
1.462649e+003,1.496692e+001
1.463614e+003,1.483344e+001
1.464578e+003,1.551007e+001
1.465542e+003,1.521649e+001
1.466506e+003,1.408160e+001
1.467471e+003,1.273260e+001
1.468435e+003,1.133643e+001
1.469399e+003,1.089758e+001
1.470363e+003,1.106860e+001
1.471328e+003,1.200757e+001
1.472292e+003,1.424530e+001
1.473256e+003,1.607831e+001
1.474220e+003,1.630902e+001
1.475184e+003,1.597577e+001
1.476149e+003,1.710443e+001
1.477113e+003,1.985162e+001
1.478077e+003,2.187787e+001
1.479041e+003,2.112006e+001
1.480006e+003,1.898309e+001
1.480970e+003,1.953864e+001
1.481934e+003,2.362909e+001
1.482898e+003,2.513708e+001
1.483863e+003,2.078882e+001
1.484827e+003,1.857605e+001
1.485791e+003,2.208716e+001
1.486755e+003,2.789233e+001
1.487719e+003,3.461682e+001
1.488684e+003,4.025012e+001
1.489648e+003,3.980975e+001
1.490612e+003,3.217322e+001
1.491576e+003,2.566107e+001
1.492541e+003,2.714612e+001
1.493505e+003,3.344598e+001
1.494469e+003,3.826349e+001
1.495433e+003,4.147571e+001
1.496398e+003,4.463580e+001
1.497362e+003,4.874194e+001
1.498326e+003,5.208191e+001
1.499290e+003,5.232629e+001
1.500255e+003,5.219141e+001
1.501219e+003,5.532251e+001
1.502183e+003,6.133240e+001
1.503147e+003,6.799829e+001
1.504111e+003,7.482727e+001
1.505076e+003,8.232330e+001
1.506040e+003,9.075690e+001
1.507004e+003,1.002380e+002
1.507968e+003,1.102771e+002
1.508933e+003,1.214603e+002
1.509897e+003,1.352816e+002
1.510861e+003,1.524340e+002
1.511825e+003,1.717091e+002
1.512790e+003,1.921204e+002
1.513754e+003,2.132108e+002
1.514718e+003,2.350878e+002
1.515682e+003,2.574153e+002
1.516646e+003,2.780370e+002
1.517611e+003,2.978510e+002
1.518575e+003,3.144535e+002
1.519539e+003,3.261347e+002
1.520503e+003,3.361060e+002
1.521468e+003,3.466922e+002
1.522432e+003,3.558560e+002
1.523396e+003,3.611222e+002
1.524360e+003,3.618387e+002
1.525325e+003,3.584819e+002
1.526289e+003,3.514641e+002
1.527253e+003,3.411525e+002
1.528217e+003,3.279376e+002
1.529182e+003,3.120909e+002
1.530146e+003,2.940651e+002
1.531110e+003,2.735187e+002
1.532074e+003,2.506118e+002
1.533039e+003,2.238925e+002
1.534003e+003,1.953294e+002
1.534967e+003,1.633105e+002
1.535931e+003,1.330032e+002
1.536896e+003,1.099114e+002
1.537860e+003,9.408545e+001
1.538824e+003,8.245258e+001
1.539788e+003,7.309436e+001
1.540752e+003,6.571527e+001
1.541717e+003,6.043170e+001
1.542681e+003,5.680566e+001
1.543645e+003,5.072217e+001
1.544609e+003,4.034174e+001
1.545573e+003,3.339038e+001
1.546538e+003,3.033405e+001
1.547502e+003,2.890790e+001
1.548466e+003,3.014172e+001
1.549430e+003,3.204321e+001
1.550395e+003,3.215631e+001
1.551359e+003,3.071112e+001
1.552323e+003,2.953613e+001
1.553287e+003,2.930237e+001
1.554252e+003,2.906818e+001
1.555216e+003,2.804431e+001
1.556180e+003,2.616577e+001
1.557144e+003,2.278809e+001
1.558109e+003,1.801556e+001
1.559073e+003,1.620435e+001
1.560037e+003,1.875885e+001
1.561001e+003,2.029236e+001
1.561966e+003,1.860760e+001
1.562930e+003,1.657361e+001
1.563894e+003,1.645221e+001
1.564858e+003,1.773022e+001
1.565823e+003,1.937164e+001
1.566787e+003,2.105243e+001
1.567751e+003,2.223218e+001
1.568715e+003,2.271667e+001
1.569679e+003,2.270874e+001
1.570644e+003,2.211902e+001
1.571608e+003,2.089490e+001
1.572572e+003,1.945032e+001
1.573536e+003,1.801581e+001
1.574500e+003,1.736646e+001
1.575465e+003,1.788019e+001
1.576429e+003,1.876355e+001
1.577393e+003,1.925964e+001
1.578357e+003,1.949420e+001
1.579322e+003,2.022998e+001
1.580286e+003,2.151367e+001
1.581250e+003,2.180267e+001
1.582214e+003,2.026520e+001
1.583179e+003,1.895892e+001
1.584143e+003,1.935828e+001
1.585107e+003,2.049243e+001
1.586071e+003,2.188525e+001
1.587036e+003,2.357715e+001
1.588000e+003,2.411346e+001
1.588964e+003,2.279901e+001
1.589928e+003,2.223035e+001
1.590893e+003,2.545300e+001
1.591857e+003,2.923090e+001
1.592821e+003,2.745514e+001
1.593785e+003,2.152820e+001
1.594750e+003,1.968060e+001
1.595714e+003,2.335413e+001
1.596678e+003,2.712256e+001
1.597642e+003,2.929407e+001
1.598606e+003,3.028772e+001
1.599571e+003,3.040021e+001
1.600535e+003,2.990161e+001
1.601499e+003,2.847998e+001
1.602463e+003,2.643719e+001
1.603427e+003,2.555634e+001
1.604392e+003,2.667261e+001
1.605356e+003,2.840540e+001
1.606320e+003,2.992273e+001
1.607284e+003,3.083374e+001
1.608249e+003,2.961829e+001
1.609213e+003,2.619879e+001
1.610177e+003,2.298590e+001
1.611141e+003,1.969360e+001
1.612106e+003,1.836377e+001
1.613070e+003,2.231873e+001
1.614034e+003,2.640771e+001
1.614998e+003,2.688281e+001
1.615963e+003,2.494171e+001
1.616927e+003,2.196509e+001
1.617891e+003,1.860608e+001
1.618855e+003,1.687000e+001
1.619820e+003,1.799426e+001
1.620784e+003,1.994415e+001
1.621748e+003,2.055402e+001
1.622712e+003,2.043420e+001
1.623677e+003,2.011737e+001
1.624641e+003,1.943842e+001
1.625605e+003,1.994714e+001
1.626569e+003,2.224573e+001
1.627533e+003,2.350848e+001
1.628498e+003,2.225977e+001
1.629462e+003,2.037512e+001
1.630426e+003,1.885541e+001
1.631390e+003,1.794226e+001
1.632354e+003,1.823932e+001
1.633319e+003,1.967236e+001
1.634283e+003,2.070709e+001
1.635247e+003,2.006171e+001
1.636211e+003,1.860931e+001
1.637176e+003,1.838165e+001
1.638140e+003,1.937390e+001
1.639104e+003,1.879266e+001
1.640068e+003,1.573010e+001
1.641033e+003,1.362793e+001
1.641997e+003,1.362183e+001
1.642961e+003,1.472571e+001
1.643925e+003,1.720105e+001
1.644890e+003,1.976038e+001
1.645854e+003,2.071069e+001
1.646818e+003,2.060455e+001
1.647782e+003,2.156219e+001
1.648747e+003,2.406580e+001
1.649711e+003,2.568964e+001
1.650675e+003,2.438776e+001
1.651639e+003,2.176068e+001
1.652604e+003,2.074854e+001
1.653568e+003,2.108899e+001
1.654532e+003,2.101636e+001
1.655496e+003,2.076215e+001
1.656460e+003,1.885590e+001
1.657425e+003,1.255310e+001
1.658389e+003,7.982666e+000
1.659353e+003,9.937805e+000
1.660317e+003,1.395306e+001
1.661281e+003,1.541162e+001
1.662246e+003,1.444556e+001
1.663210e+003,1.298157e+001
1.664174e+003,1.184406e+001
1.665138e+003,1.152161e+001
1.666103e+003,1.267133e+001
1.667067e+003,1.403070e+001
1.668031e+003,1.281653e+001
1.668995e+003,9.367554e+000
1.669960e+003,7.396912e+000
1.670924e+003,7.364685e+000
1.671888e+003,8.512573e+000
1.672852e+003,1.166058e+001
1.673817e+003,1.402856e+001
1.674781e+003,1.307080e+001
1.675745e+003,1.099994e+001
1.676709e+003,1.037805e+001
1.677674e+003,1.080084e+001
1.678638e+003,1.028357e+001
1.679602e+003,8.233643e+000
1.680566e+003,6.039795e+000
1.681531e+003,4.815613e+000
1.682495e+003,4.480469e+000
1.683459e+003,4.595520e+000
1.684423e+003,4.965881e+000
1.685387e+003,5.750977e+000
1.686352e+003,7.182495e+000
1.687316e+003,8.235413e+000
1.688280e+003,8.730286e+000
1.689244e+003,8.472900e+000
1.690208e+003,6.285095e+000
1.691173e+003,3.782837e+000
1.692137e+003,3.087830e+000
1.693101e+003,4.005981e+000
1.694065e+003,4.965149e+000
1.695030e+003,5.299438e+000
1.695994e+003,5.162048e+000
1.696958e+003,4.816895e+000
1.697922e+003,4.213684e+000
1.698887e+003,2.767395e+000
1.699851e+003,1.171265e+000
1.700815e+003,1.730835e+000
1.701779e+003,4.401306e+000
1.702744e+003,5.630554e+000
1.703708e+003,4.155701e+000
1.704672e+003,3.304932e+000
1.705636e+003,5.746277e+000
1.706601e+003,8.882996e+000
1.707565e+003,9.322388e+000
1.708529e+003,7.963440e+000
1.709493e+003,6.565796e+000
1.710458e+003,5.177795e+000
1.711422e+003,4.654297e+000
1.712386e+003,6.477844e+000
1.713350e+003,8.473145e+000
1.714314e+003,8.721375e+000
1.715279e+003,7.492615e+000
1.716243e+003,4.869690e+000
1.717207e+003,1.477295e+000
1.718171e+003,-6.787109e-002
1.719135e+003,1.026917e+000
1.720100e+003,1.882996e+000
1.721064e+003,2.376709e-001
1.722028e+003,-2.064514e+000
1.722992e+003,-1.927429e+000
1.723957e+003,4.999390e-001
1.724921e+003,2.216003e+000
1.725885e+003,2.544006e+000
1.726849e+003,2.791748e+000
1.727814e+003,4.776550e+000
1.728778e+003,5.805603e+000
1.729742e+003,3.249451e+000
1.730706e+003,2.985840e-001
1.731671e+003,-3.356323e-001
1.732635e+003,5.982056e-001
1.733599e+003,2.843567e+000
1.734563e+003,5.828979e+000
1.735528e+003,5.869751e+000
1.736492e+003,8.884888e-001
1.737456e+003,-5.505798e+000
1.738420e+003,-9.232422e+000
1.739385e+003,-1.072919e+001
1.740349e+003,-1.044342e+001
1.741313e+003,-7.606262e+000
1.742277e+003,-5.612671e+000
1.743241e+003,-4.498596e+000
1.744206e+003,-3.545288e+000
1.745170e+003,-2.975891e+000
1.746134e+003,-2.558289e+000
1.747098e+003,-2.411987e+000
1.748063e+003,-2.224792e+000
1.749027e+003,-1.703857e+000
1.749991e+003,-7.208252e-001
1.750955e+003,1.159668e+000
1.751919e+003,3.712219e+000
1.752884e+003,5.179871e+000
1.753848e+003,4.077820e+000
1.754812e+003,1.627625e+000
1.755776e+003,4.952393e-001
1.756741e+003,9.444580e-001
1.757705e+003,2.042969e+000
1.758669e+003,4.592896e+000
1.759633e+003,4.509888e+000
1.760598e+003,-2.112427e+000
1.761562e+003,-6.858154e+000
1.762526e+003,-4.965027e+000
1.763490e+003,-2.072876e+000
1.764455e+003,-2.462280e+000
1.765419e+003,-4.302063e+000
1.766383e+003,-4.506836e+000
1.767347e+003,-2.987793e+000
1.768312e+003,-1.250854e+000
1.769276e+003,-6.817627e-002
1.770240e+003,-2.742920e-001
1.771204e+003,-3.118164e+000
1.772168e+003,-6.568726e+000
1.773133e+003,-5.918762e+000
1.774097e+003,-1.763733e+000
1.775061e+003,-4.685059e-001
1.776025e+003,-3.516052e+000
1.776990e+003,-5.383972e+000
1.777954e+003,-3.274719e+000
1.778918e+003,-5.817261e-001
1.779882e+003,1.892090e-003
1.780846e+003,-6.488037e-001
1.781811e+003,-8.880005e-001
1.782775e+003,-8.933716e-001
1.783739e+003,-1.920044e+000
1.784703e+003,-4.236145e+000
1.785668e+003,-5.072144e+000
1.786632e+003,-2.666199e+000
1.787596e+003,-1.189575e-001
1.788560e+003,1.393616e+000
1.789525e+003,1.817688e+000
1.790489e+003,-4.812622e-001
1.791453e+003,-4.414429e+000
1.792417e+003,-5.963135e+000
1.793382e+003,-4.453735e+000
1.794346e+003,-2.875610e+000
1.795310e+003,-2.863831e+000
1.796274e+003,-3.235168e+000
1.797239e+003,-2.238220e+000
1.798203e+003,-3.456421e-001
1.799167e+003,-5.387573e-001
1.800131e+003,-4.000183e+000
1.801095e+003,-6.515564e+000
1.802060e+003,-7.335205e+000
1.803024e+003,-7.160522e+000
1.803988e+003,-5.496094e+000
1.804952e+003,-4.031433e+000
1.805917e+003,-3.994385e+000
1.806881e+003,-4.199036e+000
1.807845e+003,-3.421265e+000
1.808809e+003,-1.653564e+000
1.809773e+003,1.395569e+000
1.810738e+003,5.084534e+000
1.811702e+003,6.560120e+000
1.812666e+003,4.086243e+000
1.813630e+003,6.148071e-001
1.814595e+003,1.937256e-001
1.815559e+003,1.908142e+000
1.816523e+003,2.548889e+000
1.817487e+003,2.169312e+000
1.818452e+003,7.567139e-001
1.819416e+003,-2.429626e+000
1.820380e+003,-3.341736e+000
1.821344e+003,1.313171e+000
1.822309e+003,4.639832e+000
1.823273e+003,7.162476e-001
1.824237e+003,-4.468140e+000
1.825201e+003,-5.045166e+000
1.826166e+003,-2.070679e+000
1.827130e+003,1.989746e+000
1.828094e+003,6.411255e+000
1.829058e+003,7.647034e+000
1.830022e+003,2.743835e+000
1.830987e+003,-2.526062e+000
1.831951e+003,-2.873047e+000
1.832915e+003,-1.049133e+000
1.833879e+003,-8.667603e-001
1.834844e+003,-2.096863e+000
1.835808e+003,-4.048828e+000
1.836772e+003,-6.209900e+000
1.837736e+003,-5.691040e+000
1.838700e+003,-1.261414e+000
1.839665e+003,2.621277e+000
1.840629e+003,1.967346e+000
1.841593e+003,-1.634888e+000
1.842557e+003,-5.667847e+000
1.843522e+003,-1.008752e+001
1.844486e+003,-1.005322e+001
1.845450e+003,-1.255371e+000
1.846414e+003,4.567139e+000
1.847379e+003,6.121765e+000
1.848343e+003,5.306641e+000
1.849307e+003,1.012329e+000
1.850271e+003,-3.335815e+000
1.851236e+003,-5.779968e+000
1.852200e+003,-6.156921e+000
1.853164e+003,-3.996399e+000
1.854128e+003,-6.292114e-001
1.855093e+003,1.235840e+000
1.856057e+003,9.310913e-001
1.857021e+003,4.516602e-002
1.857985e+003,-2.838135e-001
1.858949e+003,-6.852417e-001
1.859914e+003,-2.486389e+000
1.860878e+003,-5.180847e+000
1.861842e+003,-6.678711e+000
1.862806e+003,-7.096924e+000
1.863771e+003,-4.911682e+000
1.864735e+003,1.164917e+000
1.865699e+003,4.182068e+000
1.866663e+003,-8.392334e-002
1.867627e+003,-5.362000e+000
1.868592e+003,-6.188660e+000
1.869556e+003,-4.995972e+000
1.870520e+003,-6.310547e+000
1.871484e+003,-9.555115e+000
1.872449e+003,-1.029474e+001
1.873413e+003,-6.416809e+000
1.874377e+003,-2.672546e+000
1.875341e+003,-8.558960e-001
1.876306e+003,-5.996094e-001
1.877270e+003,-3.108154e+000
1.878234e+003,-6.041870e+000
1.879198e+003,-6.838379e+000
1.880163e+003,-6.128052e+000
1.881127e+003,-4.899536e+000
1.882091e+003,-3.730896e+000
1.883055e+003,-3.972595e+000
1.884020e+003,-5.977051e+000
1.884984e+003,-7.459900e+000
1.885948e+003,-6.273926e+000
1.886912e+003,-3.899048e+000
1.887876e+003,-3.341248e+000
1.888841e+003,-4.366699e+000
1.889805e+003,-4.451294e+000
1.890769e+003,-3.261047e+000
1.891733e+003,-3.137573e+000
1.892698e+003,-5.622742e+000
1.893662e+003,-6.539429e+000
1.894626e+003,-2.895447e+000
1.895590e+003,8.969116e-001
1.896554e+003,2.047546e+000
1.897519e+003,1.868103e+000
1.898483e+003,9.570313e-001
1.899447e+003,-4.614868e-001
1.900411e+003,-7.634888e-001
1.901376e+003,5.083618e-001
1.902340e+003,1.662720e+000
1.903304e+003,2.136475e+000
1.904268e+003,2.095154e+000
1.905233e+003,1.641846e+000
1.906197e+003,9.874878e-001
1.907161e+003,1.537476e-001
1.908125e+003,-4.794922e-001
1.909090e+003,-3.867188e-001
1.910054e+003,8.233643e-002
1.911018e+003,-1.376343e-001
1.911982e+003,-1.057739e+000
1.912947e+003,-8.182373e-001
1.913911e+003,1.855164e+000
1.914875e+003,4.856750e+000
1.915839e+003,4.629150e+000
1.916803e+003,1.746460e+000
1.917768e+003,7.606201e-001
1.918732e+003,2.482117e+000
1.919696e+003,2.055237e+000
1.920660e+003,-1.908142e+000
1.921625e+003,-3.539734e+000
1.922589e+003,-4.163818e-001
1.923553e+003,2.858398e+000
1.924517e+003,4.387024e+000
1.925481e+003,4.639954e+000
1.926446e+003,3.592041e+000
1.927410e+003,1.769958e+000
1.928374e+003,-5.184326e-001
1.929338e+003,-3.184692e+000
1.930303e+003,-3.703735e+000
1.931267e+003,-1.746216e-001
1.932231e+003,3.143860e+000
1.933195e+003,3.393677e+000
1.934160e+003,3.157715e+000
1.935124e+003,4.615234e+000
1.936088e+003,6.212646e+000
1.937052e+003,6.457642e+000
1.938017e+003,5.648926e+000
1.938981e+003,4.149536e+000
1.939945e+003,2.232117e+000
1.940909e+003,5.886841e-001
1.941874e+003,-5.764771e-001
1.942838e+003,-2.028625e+000
1.943802e+003,-4.331177e+000
1.944766e+003,-5.697327e+000
1.945730e+003,-2.575073e+000
1.946695e+003,3.964355e+000
1.947659e+003,6.655457e+000
1.948623e+003,5.037109e+000
1.949587e+003,3.898743e+000
1.950552e+003,4.035217e+000
1.951516e+003,4.278564e+000
1.952480e+003,4.552551e+000
1.953444e+003,4.059387e+000
1.954408e+003,1.061401e+000
1.955373e+003,-2.265198e+000
1.956337e+003,-1.680969e+000
1.957301e+003,1.800476e+000
1.958265e+003,3.066467e+000
1.959230e+003,1.679688e+000
1.960194e+003,1.325256e+000
1.961158e+003,2.839355e+000
1.962122e+003,3.749268e+000
1.963087e+003,3.348633e+000
1.964051e+003,2.459900e+000
1.965015e+003,1.107056e+000
1.965979e+003,5.289307e-001
1.966944e+003,2.507813e+000
1.967908e+003,5.246521e+000
1.968872e+003,5.320496e+000
1.969836e+003,2.968628e+000
1.970801e+003,1.651794e+000
1.971765e+003,2.796143e+000
1.972729e+003,4.012451e+000
1.973693e+003,3.126404e+000
1.974657e+003,1.554565e+000
1.975622e+003,1.243835e+000
1.976586e+003,1.742493e+000
1.977550e+003,2.373047e+000
1.978514e+003,3.158691e+000
1.979479e+003,3.778625e+000
1.980443e+003,4.089050e+000
1.981407e+003,3.810425e+000
1.982371e+003,2.942566e+000
1.983335e+003,2.119263e+000
1.984300e+003,1.598755e+000
1.985264e+003,1.212524e+000
1.986228e+003,9.543457e-001
1.987192e+003,7.957153e-001
1.988157e+003,5.708008e-001
1.989121e+003,1.422119e-001
1.990085e+003,1.192566e+000
1.991049e+003,5.510376e+000
1.992014e+003,8.096863e+000
1.992978e+003,7.358826e+000
1.993942e+003,5.761108e+000
1.994906e+003,3.106201e+000
1.995871e+003,9.878540e-001
1.996835e+003,1.244629e+000
1.997799e+003,2.609009e+000
1.998763e+003,2.557678e+000
1.999728e+003,1.408264e+000
