5.003444e+002,2.563019e+002
5.013087e+002,2.535227e+002
5.022729e+002,2.482517e+002
5.032371e+002,2.410959e+002
5.042014e+002,2.355078e+002
5.051656e+002,2.321742e+002
5.061298e+002,2.301471e+002
5.070941e+002,2.283904e+002
5.080583e+002,2.267532e+002
5.090225e+002,2.241785e+002
5.099868e+002,2.200884e+002
5.109510e+002,2.155232e+002
5.119152e+002,2.107406e+002
5.128795e+002,2.058992e+002
5.138437e+002,2.029373e+002
5.148079e+002,2.063483e+002
5.157722e+002,2.113081e+002
5.167364e+002,2.131755e+002
5.177006e+002,2.100026e+002
5.186649e+002,2.032106e+002
5.196291e+002,1.986802e+002
5.205933e+002,1.975999e+002
5.215576e+002,1.958674e+002
5.225218e+002,1.904108e+002
5.234860e+002,1.819694e+002
5.244503e+002,1.767244e+002
5.254145e+002,1.816552e+002
5.263787e+002,1.844451e+002
5.273430e+002,1.831423e+002
5.283072e+002,1.791373e+002
5.292714e+002,1.745603e+002
5.302357e+002,1.690967e+002
5.311999e+002,1.637902e+002
5.321641e+002,1.591022e+002
5.331284e+002,1.561893e+002
5.340926e+002,1.570796e+002
5.350568e+002,1.631779e+002
5.360211e+002,1.705922e+002
5.369853e+002,1.680731e+002
5.379495e+002,1.584423e+002
5.389138e+002,1.487626e+002
5.398780e+002,1.434877e+002
5.408422e+002,1.426838e+002
5.418065e+002,1.418822e+002
5.427707e+002,1.408622e+002
5.437349e+002,1.397919e+002
5.446992e+002,1.388279e+002
5.456634e+002,1.377974e+002
5.466276e+002,1.360278e+002
5.475919e+002,1.322695e+002
5.485561e+002,1.291743e+002
5.495203e+002,1.277959e+002
5.504846e+002,1.272837e+002
5.514488e+002,1.262448e+002
5.524130e+002,1.239196e+002
5.533773e+002,1.205938e+002
5.543415e+002,1.149697e+002
5.553057e+002,1.080452e+002
5.562700e+002,1.033931e+002
5.572342e+002,1.049010e+002
5.581984e+002,1.132869e+002
5.591627e+002,1.161204e+002
5.601269e+002,1.121257e+002
5.610911e+002,1.071833e+002
5.620554e+002,1.046735e+002
5.630196e+002,1.045264e+002
5.639838e+002,1.030481e+002
5.649481e+002,9.841138e+001
5.659123e+002,9.376563e+001
5.668765e+002,9.128931e+001
5.678408e+002,9.109363e+001
5.688050e+002,9.122729e+001
5.697692e+002,8.883850e+001
5.707335e+002,8.429663e+001
5.716977e+002,7.785608e+001
5.726619e+002,7.108521e+001
5.736262e+002,6.698621e+001
5.745904e+002,6.933240e+001
5.755546e+002,7.855908e+001
5.765189e+002,8.319922e+001
5.774831e+002,8.164697e+001
5.784473e+002,7.759534e+001
5.794116e+002,7.457458e+001
5.803758e+002,7.329419e+001
5.813400e+002,7.282922e+001
5.823043e+002,7.283289e+001
5.832685e+002,7.210474e+001
5.842327e+002,7.057751e+001
5.851970e+002,6.871436e+001
5.861612e+002,6.712573e+001
5.871254e+002,6.418237e+001
5.880897e+002,6.188831e+001
5.890539e+002,6.266614e+001
5.900181e+002,6.574341e+001
5.909824e+002,6.846326e+001
5.919466e+002,6.729480e+001
5.929108e+002,6.229187e+001
5.938751e+002,5.723962e+001
5.948393e+002,5.204248e+001
5.958035e+002,4.777661e+001
5.967678e+002,4.571790e+001
5.977320e+002,4.651575e+001
5.986962e+002,4.916980e+001
5.996605e+002,5.451331e+001
6.006247e+002,5.873853e+001
6.015889e+002,5.918909e+001
6.025532e+002,5.577893e+001
6.035174e+002,5.279565e+001
6.044816e+002,5.512781e+001
6.054459e+002,5.708044e+001
6.064101e+002,5.481201e+001
6.073743e+002,4.902307e+001
6.083386e+002,4.339636e+001
6.093028e+002,4.288049e+001
6.102670e+002,4.657544e+001
6.112313e+002,4.824854e+001
6.121955e+002,4.759180e+001
6.131597e+002,4.593555e+001
6.141240e+002,4.460242e+001
6.150882e+002,4.301697e+001
6.160524e+002,4.414612e+001
6.170167e+002,5.110657e+001
6.179809e+002,5.761169e+001
6.189451e+002,5.979980e+001
6.199094e+002,5.712854e+001
6.208736e+002,5.302478e+001
6.218378e+002,4.846960e+001
6.228021e+002,4.485498e+001
6.237663e+002,4.271765e+001
6.247305e+002,4.193433e+001
6.256948e+002,4.210352e+001
6.266590e+002,4.296558e+001
6.276232e+002,4.331775e+001
6.285875e+002,4.197498e+001
6.295517e+002,3.948914e+001
6.305159e+002,3.654456e+001
6.314802e+002,3.336609e+001
6.324444e+002,2.925720e+001
6.334086e+002,2.682764e+001
6.343729e+002,2.822632e+001
6.353371e+002,2.995483e+001
6.363013e+002,3.026294e+001
6.372656e+002,2.904529e+001
6.382298e+002,2.766187e+001
6.391940e+002,2.621460e+001
6.401583e+002,2.479614e+001
6.411225e+002,2.464783e+001
6.420867e+002,2.548694e+001
6.430510e+002,2.602661e+001
6.440152e+002,2.449780e+001
6.449794e+002,2.148462e+001
6.459437e+002,2.019043e+001
6.469079e+002,1.991760e+001
6.478721e+002,1.884351e+001
6.488364e+002,1.584534e+001
6.498006e+002,1.139038e+001
6.507648e+002,6.699463e+000
6.517291e+002,-1.287354e+000
6.526933e+002,-5.581787e+000
6.536575e+002,-2.603027e+000
6.546218e+002,5.535645e+000
6.555860e+002,1.227356e+001
6.565502e+002,1.690320e+001
6.575145e+002,1.835388e+001
6.584787e+002,1.378442e+001
6.594429e+002,7.507568e+000
6.604072e+002,4.907837e+000
6.613714e+002,9.102295e+000
6.623356e+002,1.520471e+001
6.632999e+002,1.497595e+001
6.642641e+002,1.085730e+001
6.652283e+002,6.210938e+000
6.661926e+002,2.923340e+000
6.671568e+002,1.413452e+000
6.681210e+002,1.679077e+000
6.690853e+002,3.886963e+000
6.700495e+002,5.956299e+000
6.710137e+002,8.094360e+000
6.719780e+002,1.002185e+001
6.729422e+002,1.108997e+001
6.739064e+002,1.048547e+001
6.748707e+002,9.806030e+000
6.758349e+002,1.035010e+001
6.767991e+002,1.035388e+001
6.777634e+002,8.199463e+000
6.787276e+002,4.140015e+000
6.796918e+002,1.264038e+000
6.806561e+002,3.888916e+000
6.816203e+002,8.235352e+000
6.825845e+002,1.059839e+001
6.835488e+002,1.062366e+001
6.845130e+002,9.604858e+000
6.854772e+002,9.528442e+000
6.864415e+002,1.128308e+001
6.874057e+002,1.354651e+001
6.883699e+002,1.637744e+001
6.893342e+002,1.746326e+001
6.902984e+002,1.427344e+001
6.912626e+002,6.676147e+000
6.922269e+002,2.197876e+000
6.931911e+002,8.187134e+000
6.941553e+002,1.387036e+001
6.951196e+002,1.361780e+001
6.960838e+002,8.658325e+000
6.970480e+002,4.088623e+000
6.980123e+002,4.472656e+000
6.989765e+002,8.039307e+000
6.999407e+002,1.110474e+001
7.009050e+002,1.330054e+001
7.018692e+002,1.384021e+001
7.028334e+002,1.208765e+001
7.037977e+002,8.238281e+000
7.047619e+002,6.635986e+000
7.057261e+002,9.839111e+000
7.066904e+002,1.205652e+001
7.076546e+002,1.155286e+001
7.086188e+002,9.130371e+000
7.095831e+002,6.597534e+000
7.105473e+002,3.035767e+000
7.115115e+002,7.779541e-001
7.124758e+002,1.356812e+000
7.134400e+002,2.613770e+000
7.144042e+002,2.506958e+000
7.153685e+002,4.595947e-001
7.163327e+002,-1.628906e+000
7.172969e+002,-1.037476e+000
7.182612e+002,1.521973e+000
7.192254e+002,6.071777e+000
7.201896e+002,1.196692e+001
7.211539e+002,1.639539e+001
7.221181e+002,1.451233e+001
7.230823e+002,3.472412e+000
7.240466e+002,-3.494751e+000
7.250108e+002,-3.742920e+000
7.259750e+002,-1.736206e+000
7.269393e+002,-1.499390e+000
7.279035e+002,-4.119751e+000
7.288677e+002,-6.319946e+000
7.298320e+002,-3.876587e+000
7.307962e+002,-7.829590e-001
7.317604e+002,8.496094e-001
7.327247e+002,1.524902e+000
7.336889e+002,2.943237e+000
7.346531e+002,6.306641e+000
7.356174e+002,8.669800e+000
7.365816e+002,7.122803e+000
7.375458e+002,3.963379e+000
7.385101e+002,1.877686e+000
7.394743e+002,2.349609e+000
7.404385e+002,4.898438e+000
7.414028e+002,6.656860e+000
7.423670e+002,4.336304e+000
7.433312e+002,1.851807e+000
7.442955e+002,1.035034e+000
7.452597e+002,1.716919e+000
7.462239e+002,2.945679e+000
7.471882e+002,4.312988e+000
7.481524e+002,5.483398e+000
7.491166e+002,4.676514e+000
7.500809e+002,3.331665e+000
7.510451e+002,3.358276e+000
7.520093e+002,4.948975e+000
7.529736e+002,6.203613e+000
7.539378e+002,4.458496e+000
7.549020e+002,1.535156e+000
7.558663e+002,7.324219e-004
7.568306e+002,-2.087402e-001
7.577948e+002,1.221069e+000
7.587590e+002,4.926025e+000
7.597233e+002,1.119788e+001
7.606875e+002,1.335156e+001
7.616517e+002,9.741211e+000
7.626160e+002,6.101196e+000
7.635802e+002,4.246826e+000
7.645444e+002,4.096680e+000
7.655087e+002,4.775879e+000
7.664729e+002,5.981323e+000
7.674371e+002,7.495972e+000
7.684014e+002,9.701416e+000
7.693656e+002,1.183850e+001
7.703298e+002,1.264233e+001
7.712941e+002,1.174622e+001
7.722583e+002,1.076196e+001
7.732225e+002,1.404138e+001
7.741868e+002,2.073120e+001
7.751510e+002,2.543945e+001
7.761152e+002,2.717920e+001
7.770795e+002,2.689392e+001
7.780437e+002,2.539673e+001
7.790079e+002,2.084460e+001
7.799722e+002,1.848572e+001
7.809364e+002,2.058948e+001
7.819006e+002,2.258618e+001
7.828649e+002,2.195325e+001
7.838291e+002,1.922546e+001
7.847933e+002,1.726819e+001
7.857576e+002,1.726343e+001
7.867218e+002,1.789771e+001
7.876860e+002,2.000403e+001
7.886503e+002,2.305042e+001
7.896145e+002,2.504639e+001
7.905787e+002,2.443774e+001
7.915430e+002,2.212427e+001
7.925072e+002,2.305872e+001
7.934714e+002,2.643372e+001
7.944357e+002,2.804004e+001
7.953999e+002,2.685693e+001
7.963641e+002,2.473376e+001
7.973284e+002,2.474927e+001
7.982926e+002,2.822156e+001
7.992568e+002,3.029639e+001
8.002211e+002,2.748328e+001
8.011853e+002,2.359192e+001
8.021495e+002,2.295715e+001
8.031138e+002,2.647961e+001
8.040780e+002,3.011414e+001
8.050422e+002,2.711597e+001
8.060065e+002,2.210474e+001
8.069707e+002,2.403833e+001
8.079349e+002,3.141199e+001
8.088992e+002,3.773486e+001
8.098634e+002,3.768616e+001
8.108276e+002,3.215979e+001
8.117919e+002,2.912476e+001
8.127561e+002,2.875500e+001
8.137203e+002,2.715564e+001
8.146846e+002,2.363062e+001
8.156488e+002,2.008191e+001
8.166130e+002,1.945654e+001
8.175773e+002,2.323889e+001
8.185415e+002,2.617346e+001
8.195057e+002,2.447668e+001
8.204700e+002,2.175171e+001
8.214342e+002,2.101282e+001
8.223984e+002,2.254529e+001
8.233627e+002,2.401978e+001
8.243269e+002,2.256226e+001
8.252911e+002,1.961389e+001
8.262554e+002,1.919946e+001
8.272196e+002,2.111731e+001
8.281838e+002,2.327673e+001
8.291481e+002,2.393176e+001
8.301123e+002,2.305457e+001
8.310765e+002,2.297559e+001
8.320408e+002,2.366406e+001
8.330050e+002,2.458020e+001
8.339692e+002,2.718140e+001
8.349335e+002,2.965332e+001
8.358977e+002,2.902527e+001
8.368619e+002,2.411865e+001
8.378262e+002,2.041077e+001
8.387904e+002,2.227307e+001
8.397546e+002,2.537878e+001
8.407189e+002,2.677356e+001
8.416831e+002,2.649756e+001
8.426473e+002,2.672949e+001
8.436116e+002,2.995874e+001
8.445758e+002,3.593237e+001
8.455400e+002,3.962097e+001
8.465043e+002,3.975452e+001
8.474685e+002,3.793311e+001
8.484327e+002,3.482117e+001
8.493970e+002,3.185962e+001
8.503612e+002,3.289661e+001
8.513254e+002,4.132715e+001
8.522897e+002,4.737292e+001
8.532539e+002,4.867126e+001
8.542181e+002,4.720398e+001
8.551824e+002,4.395728e+001
8.561466e+002,4.017834e+001
8.571108e+002,3.943250e+001
8.580751e+002,4.623499e+001
8.590393e+002,5.475049e+001
8.600035e+002,5.984583e+001
8.609678e+002,6.191504e+001
8.619320e+002,6.248401e+001
8.628962e+002,6.252637e+001
8.638605e+002,6.192810e+001
8.648247e+002,6.380408e+001
8.657889e+002,7.093091e+001
8.667532e+002,7.566260e+001
8.677174e+002,7.500952e+001
8.686816e+002,7.156616e+001
8.696459e+002,6.952783e+001
8.706101e+002,6.996155e+001
8.715743e+002,7.255713e+001
8.725386e+002,7.848132e+001
8.735028e+002,8.485364e+001
8.744670e+002,8.942126e+001
8.754313e+002,9.165515e+001
8.763955e+002,9.237756e+001
8.773597e+002,9.262244e+001
8.783240e+002,9.336084e+001
8.792882e+002,9.618811e+001
8.802524e+002,1.005272e+002
8.812167e+002,1.046766e+002
8.821809e+002,1.081033e+002
8.831451e+002,1.106744e+002
8.841094e+002,1.113698e+002
8.850736e+002,1.080747e+002
8.860378e+002,1.084769e+002
8.870021e+002,1.151857e+002
8.879663e+002,1.230969e+002
8.889305e+002,1.280449e+002
8.898948e+002,1.293872e+002
8.908590e+002,1.299867e+002
8.918232e+002,1.329152e+002
8.927875e+002,1.363662e+002
8.937517e+002,1.372745e+002
8.947159e+002,1.364093e+002
8.956802e+002,1.359882e+002
8.966444e+002,1.372052e+002
8.976086e+002,1.389541e+002
8.985729e+002,1.390822e+002
8.995371e+002,1.383417e+002
9.005013e+002,1.382556e+002
9.014656e+002,1.393215e+002
9.024298e+002,1.417311e+002
9.033940e+002,1.458143e+002
9.043583e+002,1.512056e+002
9.053225e+002,1.541736e+002
9.062867e+002,1.507007e+002
9.072510e+002,1.461626e+002
9.082152e+002,1.426974e+002
9.091794e+002,1.411616e+002
9.101437e+002,1.418397e+002
9.111079e+002,1.445824e+002
9.120721e+002,1.483683e+002
9.130364e+002,1.518354e+002
9.140006e+002,1.542953e+002
9.149648e+002,1.553528e+002
9.159291e+002,1.558513e+002
9.168933e+002,1.557784e+002
9.178575e+002,1.537568e+002
9.188218e+002,1.480187e+002
9.197860e+002,1.437129e+002
9.207502e+002,1.407611e+002
9.217145e+002,1.387601e+002
9.226787e+002,1.397609e+002
9.236429e+002,1.423853e+002
9.246072e+002,1.429226e+002
9.255714e+002,1.388010e+002
9.265356e+002,1.338569e+002
9.274999e+002,1.327660e+002
9.284641e+002,1.329360e+002
9.294283e+002,1.322784e+002
9.303926e+002,1.306331e+002
9.313568e+002,1.286361e+002
9.323210e+002,1.266016e+002
9.332853e+002,1.241174e+002
9.342495e+002,1.207563e+002
9.352137e+002,1.153486e+002
9.361780e+002,1.108304e+002
9.371422e+002,1.095880e+002
9.381064e+002,1.106528e+002
9.390707e+002,1.109026e+002
9.400349e+002,1.089243e+002
9.409991e+002,1.058271e+002
9.419634e+002,9.921130e+001
9.429276e+002,9.406885e+001
9.438918e+002,9.610095e+001
9.448561e+002,1.040979e+002
9.458203e+002,1.115214e+002
9.467845e+002,1.121708e+002
9.477488e+002,1.078671e+002
9.487130e+002,1.058398e+002
9.496772e+002,1.058188e+002
9.506415e+002,1.059844e+002
9.516057e+002,1.056661e+002
9.525699e+002,1.047469e+002
9.535342e+002,1.028016e+002
9.544984e+002,9.857092e+001
9.554626e+002,9.558777e+001
9.564269e+002,9.712622e+001
9.573911e+002,9.882471e+001
9.583553e+002,9.769470e+001
9.593196e+002,9.429163e+001
9.602838e+002,9.106897e+001
9.612480e+002,8.935364e+001
9.622123e+002,8.874951e+001
9.631765e+002,8.903552e+001
9.641407e+002,8.962720e+001
9.651050e+002,8.965405e+001
9.660692e+002,8.874561e+001
9.670334e+002,8.746045e+001
9.679977e+002,8.709839e+001
9.689619e+002,8.880212e+001
9.699261e+002,9.079199e+001
9.708904e+002,9.127917e+001
9.718546e+002,9.257422e+001
9.728188e+002,9.460828e+001
9.737831e+002,9.759680e+001
9.747473e+002,1.028444e+002
9.757115e+002,1.116752e+002
9.766758e+002,1.202417e+002
9.776400e+002,1.268406e+002
9.786042e+002,1.318109e+002
9.795685e+002,1.355267e+002
9.805327e+002,1.369307e+002
9.814969e+002,1.338394e+002
9.824612e+002,1.247664e+002
9.834254e+002,1.118005e+002
9.843896e+002,1.008262e+002
9.853539e+002,8.972449e+001
9.863181e+002,8.102747e+001
9.872823e+002,7.620691e+001
9.882466e+002,7.303186e+001
9.892108e+002,6.907556e+001
9.901750e+002,6.501624e+001
9.911393e+002,6.281213e+001
9.921035e+002,6.126697e+001
9.930677e+002,6.035278e+001
9.940320e+002,6.110645e+001
9.949962e+002,6.384924e+001
9.959604e+002,6.878772e+001
9.969247e+002,7.572742e+001
9.978889e+002,8.344568e+001
9.988531e+002,8.973950e+001
9.998174e+002,9.377515e+001
1.000782e+003,9.623816e+001
1.001746e+003,9.774390e+001
1.002710e+003,9.920764e+001
1.003674e+003,1.017257e+002
1.004639e+003,1.052753e+002
1.005603e+003,1.066790e+002
1.006567e+003,1.045125e+002
1.007531e+003,1.009365e+002
1.008495e+003,9.490466e+001
1.009460e+003,8.883899e+001
1.010424e+003,8.544275e+001
1.011388e+003,8.499011e+001
1.012352e+003,8.497131e+001
1.013317e+003,8.342383e+001
1.014281e+003,7.999048e+001
1.015245e+003,7.405859e+001
1.016209e+003,6.607776e+001
1.017174e+003,5.857166e+001
1.018138e+003,5.322229e+001
1.019102e+003,4.960132e+001
1.020066e+003,4.615247e+001
1.021031e+003,4.409729e+001
1.021995e+003,4.128674e+001
1.022959e+003,3.581067e+001
1.023923e+003,2.998303e+001
1.024887e+003,2.458301e+001
1.025852e+003,1.965491e+001
1.026816e+003,1.526599e+001
1.027780e+003,1.186023e+001
1.028744e+003,9.427856e+000
1.029709e+003,8.428345e+000
1.030673e+003,7.358521e+000
1.031637e+003,3.462769e+000
1.032601e+003,-2.854126e+000
1.033566e+003,-7.085693e+000
1.034530e+003,-4.110596e+000
1.035494e+003,5.573364e+000
1.036458e+003,9.224487e+000
1.037422e+003,1.122681e+000
1.038387e+003,-3.098999e+000
1.039351e+003,1.572144e+000
1.040315e+003,8.608276e+000
1.041279e+003,1.076819e+001
1.042244e+003,7.764038e+000
1.043208e+003,5.828491e+000
1.044172e+003,8.190063e+000
1.045136e+003,1.055847e+001
1.046101e+003,1.004724e+001
1.047065e+003,8.567993e+000
1.048029e+003,9.471069e+000
1.048993e+003,1.360718e+001
1.049958e+003,1.791418e+001
1.050922e+003,1.766089e+001
1.051886e+003,1.295410e+001
1.052850e+003,9.513306e+000
1.053814e+003,6.925781e+000
1.054779e+003,6.633057e+000
1.055743e+003,1.084180e+001
1.056707e+003,1.695789e+001
1.057671e+003,1.827563e+001
1.058636e+003,1.190833e+001
1.059600e+003,8.058350e+000
1.060564e+003,1.452393e+001
1.061528e+003,2.141516e+001
1.062493e+003,2.182092e+001
1.063457e+003,1.707617e+001
1.064421e+003,1.214124e+001
1.065385e+003,1.032825e+001
1.066349e+003,1.087000e+001
1.067314e+003,1.262061e+001
1.068278e+003,1.558337e+001
1.069242e+003,1.631079e+001
1.070206e+003,1.374170e+001
1.071171e+003,1.077856e+001
1.072135e+003,9.499146e+000
1.073099e+003,9.463623e+000
1.074063e+003,9.589600e+000
1.075028e+003,1.014111e+001
1.075992e+003,1.089282e+001
1.076956e+003,1.142542e+001
1.077920e+003,1.165454e+001
1.078885e+003,1.193225e+001
1.079849e+003,1.272717e+001
1.080813e+003,1.465613e+001
1.081777e+003,1.820947e+001
1.082741e+003,2.214636e+001
1.083706e+003,2.223926e+001
1.084670e+003,1.875720e+001
1.085634e+003,1.503748e+001
1.086598e+003,1.195398e+001
1.087563e+003,9.063354e+000
1.088527e+003,5.997925e+000
1.089491e+003,3.422974e+000
1.090455e+003,3.078613e+000
1.091420e+003,7.327881e+000
1.092384e+003,9.131592e+000
1.093348e+003,4.384888e+000
1.094312e+003,-1.760010e+000
1.095276e+003,-3.731934e+000
1.096241e+003,-6.437988e-001
1.097205e+003,4.011597e+000
1.098169e+003,7.454468e+000
1.099133e+003,9.335815e+000
1.100098e+003,1.006555e+001
1.101062e+003,1.028540e+001
1.102026e+003,1.067188e+001
1.102990e+003,1.147693e+001
1.103955e+003,1.252258e+001
1.104919e+003,1.350012e+001
1.105883e+003,1.420166e+001
1.106847e+003,1.409839e+001
1.107812e+003,1.212158e+001
1.108776e+003,1.017859e+001
1.109740e+003,8.577393e+000
1.110704e+003,7.314209e+000
1.111668e+003,6.379272e+000
1.112633e+003,6.292236e+000
1.113597e+003,8.479858e+000
1.114561e+003,1.475232e+001
1.115525e+003,2.086682e+001
1.116490e+003,1.992334e+001
1.117454e+003,1.450415e+001
1.118418e+003,1.132422e+001
1.119382e+003,1.340125e+001
1.120347e+003,1.902698e+001
1.121311e+003,2.518201e+001
1.122275e+003,3.131030e+001
1.123239e+003,3.373572e+001
1.124203e+003,3.007251e+001
1.125168e+003,2.826025e+001
1.126132e+003,3.153943e+001
1.127096e+003,3.675781e+001
1.128060e+003,4.018530e+001
1.129025e+003,4.086182e+001
1.129989e+003,3.989331e+001
1.130953e+003,3.683240e+001
1.131917e+003,3.448511e+001
1.132882e+003,3.909277e+001
1.133846e+003,4.808240e+001
1.134810e+003,5.333521e+001
1.135774e+003,5.161829e+001
1.136739e+003,4.805542e+001
1.137703e+003,5.070264e+001
1.138667e+003,6.029639e+001
1.139631e+003,6.886096e+001
1.140595e+003,7.437720e+001
1.141560e+003,8.123853e+001
1.142524e+003,9.017212e+001
1.143488e+003,1.016216e+002
1.144452e+003,1.157263e+002
1.145417e+003,1.323553e+002
1.146381e+003,1.512543e+002
1.147345e+003,1.728895e+002
1.148309e+003,1.953832e+002
1.149274e+003,2.169709e+002
1.150238e+003,2.383699e+002
1.151202e+003,2.608197e+002
1.152166e+003,2.850046e+002
1.153130e+003,3.093920e+002
1.154095e+003,3.322228e+002
1.155059e+003,3.523936e+002
1.156023e+003,3.625518e+002
1.156987e+003,3.622357e+002
1.157952e+003,3.540280e+002
1.158916e+003,3.354203e+002
1.159880e+003,3.133750e+002
1.160844e+003,2.914595e+002
1.161809e+003,2.693296e+002
1.162773e+003,2.453918e+002
1.163737e+003,2.184781e+002
1.164701e+003,1.918922e+002
1.165666e+003,1.709575e+002
1.166630e+003,1.537050e+002
1.167594e+003,1.359705e+002
1.168558e+003,1.169712e+002
1.169522e+003,1.013425e+002
1.170487e+003,9.414014e+001
1.171451e+003,9.431543e+001
1.172415e+003,9.261426e+001
1.173379e+003,8.725293e+001
1.174344e+003,8.219446e+001
1.175308e+003,7.724939e+001
1.176272e+003,7.391272e+001
1.177236e+003,7.453455e+001
1.178201e+003,7.729700e+001
1.179165e+003,7.804700e+001
1.180129e+003,7.468396e+001
1.181093e+003,6.925891e+001
1.182057e+003,6.378845e+001
1.183022e+003,5.913367e+001
1.183986e+003,5.687622e+001
1.184950e+003,5.701782e+001
1.185914e+003,5.756653e+001
1.186879e+003,5.774146e+001
1.187843e+003,5.748975e+001
1.188807e+003,5.552185e+001
1.189771e+003,4.978394e+001
1.190736e+003,4.778003e+001
1.191700e+003,5.404065e+001
1.192664e+003,5.941052e+001
1.193628e+003,6.215430e+001
1.194593e+003,6.241833e+001
1.195557e+003,5.970801e+001
1.196521e+003,5.430762e+001
1.197485e+003,4.858130e+001
1.198449e+003,4.499890e+001
1.199414e+003,4.245166e+001
1.200378e+003,3.672534e+001
1.201342e+003,2.849719e+001
1.202306e+003,2.238757e+001
1.203271e+003,2.018115e+001
1.204235e+003,1.879260e+001
1.205199e+003,1.413135e+001
1.206163e+003,6.508789e+000
1.207128e+003,2.406494e+000
1.208092e+003,6.084595e+000
1.209056e+003,6.984375e+000
1.210020e+003,1.667480e-001
1.210984e+003,-7.830444e+000
1.211949e+003,-1.184412e+001
1.212913e+003,-1.294189e+001
1.213877e+003,-1.571655e+001
1.214841e+003,-2.259460e+001
1.215806e+003,-3.049683e+001
1.216770e+003,-3.462061e+001
1.217734e+003,-3.516577e+001
1.218698e+003,-3.686768e+001
1.219663e+003,-4.063391e+001
1.220627e+003,-4.432397e+001
1.221591e+003,-4.577869e+001
1.222555e+003,-4.653845e+001
1.223520e+003,-5.064392e+001
1.224484e+003,-5.886218e+001
1.225448e+003,-6.372253e+001
1.226412e+003,-6.053955e+001
1.227376e+003,-5.641028e+001
1.228341e+003,-5.373926e+001
1.229305e+003,-5.261890e+001
1.230269e+003,-5.314917e+001
1.231233e+003,-5.500806e+001
1.232198e+003,-5.718701e+001
1.233162e+003,-5.850574e+001
1.234126e+003,-5.863904e+001
1.235090e+003,-5.841980e+001
1.236055e+003,-5.875977e+001
1.237019e+003,-5.926660e+001
1.237983e+003,-5.923193e+001
1.238947e+003,-6.030249e+001
1.239911e+003,-6.442480e+001
1.240876e+003,-6.999255e+001
1.241840e+003,-7.278796e+001
1.242804e+003,-7.166089e+001
1.243768e+003,-6.877295e+001
1.244733e+003,-6.290601e+001
1.245697e+003,-5.809070e+001
1.246661e+003,-5.920459e+001
1.247625e+003,-6.384875e+001
1.248590e+003,-6.546460e+001
1.249554e+003,-6.093665e+001
1.250518e+003,-5.419604e+001
1.251482e+003,-5.230237e+001
1.252447e+003,-5.640845e+001
1.253411e+003,-5.862952e+001
1.254375e+003,-5.680188e+001
1.255339e+003,-5.437256e+001
1.256303e+003,-5.035901e+001
1.257268e+003,-4.669214e+001
1.258232e+003,-4.637085e+001
1.259196e+003,-4.877563e+001
1.260160e+003,-4.968530e+001
1.261125e+003,-4.675098e+001
1.262089e+003,-4.235718e+001
1.263053e+003,-3.927209e+001
1.264017e+003,-3.732996e+001
1.264982e+003,-3.555994e+001
1.265946e+003,-3.353210e+001
1.266910e+003,-3.112598e+001
1.267874e+003,-2.829346e+001
1.268839e+003,-2.610852e+001
1.269803e+003,-2.719299e+001
1.270767e+003,-3.278613e+001
1.271731e+003,-3.475696e+001
1.272695e+003,-2.784534e+001
1.273660e+003,-2.357153e+001
1.274624e+003,-2.615918e+001
1.275588e+003,-3.203809e+001
1.276552e+003,-3.839319e+001
1.277517e+003,-4.375195e+001
1.278481e+003,-4.705823e+001
1.279445e+003,-4.791272e+001
1.280409e+003,-4.744312e+001
1.281374e+003,-4.673621e+001
1.282338e+003,-4.568518e+001
1.283302e+003,-4.464893e+001
1.284266e+003,-4.365515e+001
1.285230e+003,-4.391956e+001
1.286195e+003,-4.748694e+001
1.287159e+003,-5.239490e+001
1.288123e+003,-5.337659e+001
1.289087e+003,-4.924744e+001
1.290052e+003,-4.752856e+001
1.291016e+003,-5.314612e+001
1.291980e+003,-5.824561e+001
1.292944e+003,-6.011487e+001
1.293909e+003,-6.027991e+001
1.294873e+003,-5.946265e+001
1.295837e+003,-5.773621e+001
1.296801e+003,-5.512573e+001
1.297766e+003,-5.191028e+001
1.298730e+003,-4.879980e+001
1.299694e+003,-4.750439e+001
1.300658e+003,-4.909790e+001
1.301622e+003,-4.934192e+001
1.302587e+003,-4.506689e+001
1.303551e+003,-4.298706e+001
1.304515e+003,-4.738318e+001
1.305479e+003,-5.342175e+001
1.306444e+003,-5.463818e+001
1.307408e+003,-5.126526e+001
1.308372e+003,-4.981909e+001
1.309336e+003,-5.427795e+001
1.310301e+003,-5.842566e+001
1.311265e+003,-5.469543e+001
1.312229e+003,-4.808972e+001
1.313193e+003,-4.480005e+001
1.314157e+003,-4.549988e+001
1.315122e+003,-4.815527e+001
1.316086e+003,-5.182886e+001
1.317050e+003,-5.587842e+001
1.318014e+003,-5.754224e+001
1.318979e+003,-5.514172e+001
1.319943e+003,-5.298853e+001
1.320907e+003,-5.135193e+001
1.321871e+003,-4.966187e+001
1.322836e+003,-4.818555e+001
1.323800e+003,-4.728113e+001
1.324764e+003,-4.771069e+001
1.325728e+003,-4.895459e+001
1.326693e+003,-4.922485e+001
1.327657e+003,-4.756494e+001
1.328621e+003,-4.549622e+001
1.329585e+003,-4.463196e+001
1.330549e+003,-4.381433e+001
1.331514e+003,-4.317932e+001
1.332478e+003,-4.434570e+001
1.333442e+003,-4.524854e+001
1.334406e+003,-4.343762e+001
1.335371e+003,-4.105994e+001
1.336335e+003,-4.181750e+001
1.337299e+003,-4.526978e+001
1.338263e+003,-4.696460e+001
1.339228e+003,-4.572815e+001
1.340192e+003,-4.326123e+001
1.341156e+003,-3.815637e+001
1.342120e+003,-3.432910e+001
1.343084e+003,-3.623877e+001
1.344049e+003,-4.215625e+001
1.345013e+003,-4.762988e+001
1.345977e+003,-4.999255e+001
1.346941e+003,-4.887610e+001
1.347906e+003,-4.409338e+001
1.348870e+003,-3.642871e+001
1.349834e+003,-3.406018e+001
1.350798e+003,-4.390759e+001
1.351763e+003,-4.880737e+001
1.352727e+003,-4.393225e+001
1.353691e+003,-3.874902e+001
1.354655e+003,-3.916382e+001
1.355620e+003,-4.291968e+001
1.356584e+003,-4.543250e+001
1.357548e+003,-4.547827e+001
1.358512e+003,-4.442786e+001
1.359476e+003,-4.349622e+001
1.360441e+003,-4.282397e+001
1.361405e+003,-4.159790e+001
1.362369e+003,-3.997241e+001
1.363333e+003,-3.898792e+001
1.364298e+003,-3.877441e+001
1.365262e+003,-3.864075e+001
1.366226e+003,-3.779224e+001
1.367190e+003,-3.693372e+001
1.368155e+003,-3.858643e+001
1.369119e+003,-4.371375e+001
1.370083e+003,-4.581165e+001
1.371047e+003,-4.021716e+001
1.372011e+003,-3.522656e+001
1.372976e+003,-3.590649e+001
1.373940e+003,-3.791797e+001
1.374904e+003,-3.519446e+001
1.375868e+003,-2.876721e+001
1.376833e+003,-2.527197e+001
1.377797e+003,-2.883093e+001
1.378761e+003,-3.579688e+001
1.379725e+003,-3.937231e+001
1.380690e+003,-3.929175e+001
1.381654e+003,-3.781653e+001
1.382618e+003,-3.329919e+001
1.383582e+003,-2.971191e+001
1.384547e+003,-2.813281e+001
1.385511e+003,-2.731274e+001
1.386475e+003,-2.717078e+001
1.387439e+003,-2.726489e+001
1.388403e+003,-2.580371e+001
1.389368e+003,-2.219824e+001
1.390332e+003,-1.948645e+001
1.391296e+003,-1.980042e+001
1.392260e+003,-2.181335e+001
1.393225e+003,-2.491296e+001
1.394189e+003,-2.871704e+001
1.395153e+003,-3.024084e+001
1.396117e+003,-2.817017e+001
1.397082e+003,-2.555139e+001
1.398046e+003,-2.568616e+001
1.399010e+003,-2.748987e+001
1.399974e+003,-2.717163e+001
1.400938e+003,-2.488867e+001
1.401903e+003,-2.355774e+001
1.402867e+003,-2.184985e+001
1.403831e+003,-1.989258e+001
1.404795e+003,-1.923584e+001
1.405760e+003,-1.913159e+001
1.406724e+003,-1.877759e+001
1.407688e+003,-1.899292e+001
1.408652e+003,-2.128906e+001
1.409617e+003,-2.549377e+001
1.410581e+003,-2.875122e+001
1.411545e+003,-2.774365e+001
1.412509e+003,-2.271704e+001
1.413474e+003,-1.888806e+001
1.414438e+003,-1.841919e+001
1.415402e+003,-1.841541e+001
1.416366e+003,-1.755371e+001
1.417330e+003,-1.652991e+001
1.418295e+003,-1.615686e+001
1.419259e+003,-1.601306e+001
1.420223e+003,-1.539612e+001
1.421187e+003,-1.442505e+001
1.422152e+003,-1.342908e+001
1.423116e+003,-1.184631e+001
1.424080e+003,-1.003174e+001
1.425044e+003,-1.075378e+001
1.426009e+003,-1.382373e+001
1.426973e+003,-1.618677e+001
1.427937e+003,-1.718652e+001
1.428901e+003,-1.571362e+001
1.429865e+003,-8.232666e+000
1.430830e+003,2.529297e-001
1.431794e+003,-1.046509e+000
1.432758e+003,-1.169604e+001
1.433722e+003,-1.487061e+001
1.434687e+003,-2.898804e+000
1.435651e+003,8.300293e+000
1.436615e+003,7.547729e+000
1.437579e+003,3.159180e+000
1.438544e+003,1.020386e+000
1.439508e+003,1.156860e+000
1.440472e+003,2.314575e+000
1.441436e+003,4.051025e+000
1.442401e+003,5.607056e+000
1.443365e+003,5.646729e+000
1.444329e+003,4.538086e+000
1.445293e+003,6.027222e+000
1.446257e+003,1.260034e+001
1.447222e+003,1.642065e+001
1.448186e+003,1.712927e+001
1.449150e+003,1.516772e+001
1.450114e+003,7.712280e+000
1.451079e+003,-1.231689e-001
1.452043e+003,-2.918579e+000
1.453007e+003,-1.509644e+000
1.453971e+003,-1.749268e-001
1.454936e+003,-1.008057e+000
1.455900e+003,-2.909668e+000
1.456864e+003,-4.543823e+000
1.457828e+003,-5.239502e+000
1.458792e+003,-3.527344e+000
1.459757e+003,3.281250e-001
1.460721e+003,2.040649e+000
1.461685e+003,-6.655273e-001
1.462649e+003,-3.242554e+000
1.463614e+003,-2.506348e+000
1.464578e+003,-5.236816e-002
1.465542e+003,1.668579e+000
1.466506e+003,2.168335e+000
1.467471e+003,1.181763e+000
1.468435e+003,-1.381226e+000
1.469399e+003,-2.915283e+000
1.470363e+003,-1.809326e+000
1.471328e+003,6.567383e-002
1.472292e+003,1.647217e+000
1.473256e+003,2.722778e+000
1.474220e+003,2.956421e+000
1.475184e+003,2.812012e+000
1.476149e+003,3.078857e+000
1.477113e+003,3.938232e+000
1.478077e+003,4.820801e+000
1.479041e+003,4.981323e+000
1.480006e+003,4.469360e+000
1.480970e+003,6.064819e+000
1.481934e+003,1.160291e+001
1.482898e+003,1.594495e+001
1.483863e+003,1.687622e+001
1.484827e+003,1.592163e+001
1.485791e+003,1.351416e+001
1.486755e+003,1.118335e+001
1.487719e+003,1.149048e+001
1.488684e+003,1.513757e+001
1.489648e+003,2.047107e+001
1.490612e+003,2.650098e+001
1.491576e+003,3.323523e+001
1.492541e+003,3.543982e+001
1.493505e+003,2.696472e+001
1.494469e+003,2.614722e+001
1.495433e+003,3.756458e+001
1.496398e+003,4.859460e+001
1.497362e+003,5.667419e+001
1.498326e+003,6.317249e+001
1.499290e+003,6.727502e+001
1.500255e+003,7.101013e+001
1.501219e+003,7.981067e+001
1.502183e+003,9.536536e+001
1.503147e+003,1.111500e+002
1.504111e+003,1.197964e+002
1.505076e+003,1.239159e+002
1.506040e+003,1.334237e+002
1.507004e+003,1.488995e+002
1.507968e+003,1.666676e+002
1.508933e+003,1.874401e+002
1.509897e+003,2.096426e+002
1.510861e+003,2.335885e+002
1.511825e+003,2.597981e+002
1.512790e+003,2.886371e+002
1.513754e+003,3.188208e+002
1.514718e+003,3.482491e+002
1.515682e+003,3.759747e+002
1.516646e+003,4.028096e+002
1.517611e+003,4.308612e+002
1.518575e+003,4.581528e+002
1.519539e+003,4.808518e+002
1.520503e+003,4.992074e+002
1.521468e+003,5.103806e+002
1.522432e+003,5.121345e+002
1.523396e+003,5.092385e+002
1.524360e+003,5.046923e+002
1.525325e+003,4.969974e+002
1.526289e+003,4.840565e+002
1.527253e+003,4.663123e+002
1.528217e+003,4.455785e+002
1.529182e+003,4.229117e+002
1.530146e+003,3.970334e+002
1.531110e+003,3.639073e+002
1.532074e+003,3.291899e+002
1.533039e+003,2.993130e+002
1.534003e+003,2.708317e+002
1.534967e+003,2.379529e+002
1.535931e+003,2.011239e+002
1.536896e+003,1.668378e+002
1.537860e+003,1.387000e+002
1.538824e+003,1.160275e+002
1.539788e+003,9.757397e+001
1.540752e+003,8.252612e+001
1.541717e+003,7.058923e+001
1.542681e+003,6.320984e+001
1.543645e+003,5.699817e+001
1.544609e+003,5.055798e+001
1.545573e+003,4.616821e+001
1.546538e+003,4.492871e+001
1.547502e+003,4.535852e+001
1.548466e+003,4.675964e+001
1.549430e+003,4.912842e+001
1.550395e+003,5.229102e+001
1.551359e+003,5.580762e+001
1.552323e+003,5.855298e+001
1.553287e+003,5.950940e+001
1.554252e+003,5.833655e+001
1.555216e+003,5.218616e+001
1.556180e+003,3.791797e+001
1.557144e+003,2.839868e+001
1.558109e+003,2.738464e+001
1.559073e+003,2.812988e+001
1.560037e+003,2.969641e+001
1.561001e+003,3.048364e+001
1.561966e+003,2.933875e+001
1.562930e+003,2.779529e+001
1.563894e+003,2.817432e+001
1.564858e+003,3.066125e+001
1.565823e+003,3.340063e+001
1.566787e+003,3.501208e+001
1.567751e+003,3.595007e+001
1.568715e+003,3.736389e+001
1.569679e+003,3.999597e+001
1.570644e+003,4.048511e+001
1.571608e+003,3.625171e+001
1.572572e+003,3.255396e+001
1.573536e+003,2.970178e+001
1.574500e+003,2.893481e+001
1.575465e+003,3.127368e+001
1.576429e+003,3.561182e+001
1.577393e+003,4.136108e+001
1.578357e+003,4.725928e+001
1.579322e+003,5.048303e+001
1.580286e+003,4.965137e+001
1.581250e+003,4.684729e+001
1.582214e+003,4.414014e+001
1.583179e+003,4.143774e+001
1.584143e+003,4.183203e+001
1.585107e+003,4.701099e+001
1.586071e+003,5.065820e+001
1.587036e+003,5.386304e+001
1.588000e+003,5.618872e+001
1.588964e+003,5.599170e+001
1.589928e+003,5.480566e+001
1.590893e+003,5.342920e+001
1.591857e+003,5.302722e+001
1.592821e+003,5.645715e+001
1.593785e+003,6.442371e+001
1.594750e+003,7.323230e+001
1.595714e+003,7.981763e+001
1.596678e+003,8.322534e+001
1.597642e+003,8.122681e+001
1.598606e+003,7.359460e+001
1.599571e+003,7.047229e+001
1.600535e+003,7.474231e+001
1.601499e+003,7.811523e+001
1.602463e+003,7.752942e+001
1.603427e+003,7.627942e+001
1.604392e+003,7.703687e+001
1.605356e+003,7.873560e+001
1.606320e+003,7.910791e+001
1.607284e+003,7.816516e+001
1.608249e+003,7.813354e+001
1.609213e+003,8.015430e+001
1.610177e+003,8.233630e+001
1.611141e+003,8.241626e+001
1.612106e+003,8.128638e+001
1.613070e+003,8.267249e+001
1.614034e+003,8.673608e+001
1.614998e+003,8.622668e+001
1.615963e+003,7.579944e+001
1.616927e+003,6.870154e+001
1.617891e+003,7.234009e+001
1.618855e+003,7.957642e+001
1.619820e+003,8.381775e+001
1.620784e+003,8.465723e+001
1.621748e+003,8.308105e+001
1.622712e+003,8.046692e+001
1.623677e+003,7.983887e+001
1.624641e+003,8.281201e+001
1.625605e+003,8.634814e+001
1.626569e+003,8.543054e+001
1.627533e+003,8.075598e+001
1.628498e+003,8.042017e+001
1.629462e+003,8.600293e+001
1.630426e+003,8.887122e+001
1.631390e+003,8.437341e+001
1.632354e+003,8.055493e+001
1.633319e+003,8.252393e+001
1.634283e+003,8.679395e+001
1.635247e+003,8.903735e+001
1.636211e+003,8.929712e+001
1.637176e+003,8.991553e+001
1.638140e+003,9.172485e+001
1.639104e+003,9.203625e+001
1.640068e+003,8.822400e+001
1.641033e+003,8.302637e+001
1.641997e+003,8.087842e+001
1.642961e+003,8.166736e+001
1.643925e+003,8.321533e+001
1.644890e+003,8.570703e+001
1.645854e+003,8.838513e+001
1.646818e+003,9.128577e+001
1.647782e+003,9.318054e+001
1.648747e+003,9.341321e+001
1.649711e+003,9.217004e+001
1.650675e+003,8.911438e+001
1.651639e+003,8.528687e+001
1.652604e+003,8.389404e+001
1.653568e+003,8.562585e+001
1.654532e+003,8.718274e+001
1.655496e+003,8.623547e+001
1.656460e+003,8.400378e+001
1.657425e+003,8.281250e+001
1.658389e+003,8.278918e+001
1.659353e+003,8.165393e+001
1.660317e+003,7.842798e+001
1.661281e+003,7.671265e+001
1.662246e+003,7.899841e+001
1.663210e+003,8.104053e+001
1.664174e+003,7.983459e+001
1.665138e+003,7.729602e+001
1.666103e+003,7.621875e+001
1.667067e+003,7.613818e+001
1.668031e+003,7.454846e+001
1.668995e+003,7.083215e+001
1.669960e+003,6.676709e+001
1.670924e+003,6.355603e+001
1.671888e+003,6.140942e+001
1.672852e+003,6.035242e+001
1.673817e+003,6.001807e+001
1.674781e+003,6.025403e+001
1.675745e+003,6.187744e+001
1.676709e+003,6.186621e+001
1.677674e+003,5.812732e+001
1.678638e+003,5.400391e+001
1.679602e+003,5.123853e+001
1.680566e+003,4.968445e+001
1.681531e+003,4.944495e+001
1.682495e+003,5.050378e+001
1.683459e+003,5.281665e+001
1.684423e+003,5.578918e+001
1.685387e+003,5.640442e+001
1.686352e+003,5.239539e+001
1.687316e+003,4.672937e+001
1.688280e+003,4.392725e+001
1.689244e+003,4.369226e+001
1.690208e+003,4.463403e+001
1.691173e+003,4.740686e+001
1.692137e+003,4.900452e+001
1.693101e+003,5.025061e+001
1.694065e+003,5.018481e+001
1.695030e+003,4.578552e+001
1.695994e+003,4.041882e+001
1.696958e+003,3.824133e+001
1.697922e+003,3.878845e+001
1.698887e+003,3.993311e+001
1.699851e+003,4.072156e+001
1.700815e+003,4.035071e+001
1.701779e+003,3.829749e+001
1.702744e+003,3.571497e+001
1.703708e+003,3.459229e+001
1.704672e+003,3.496448e+001
1.705636e+003,3.329749e+001
1.706601e+003,2.604700e+001
1.707565e+003,2.234448e+001
1.708529e+003,2.551636e+001
1.709493e+003,2.834729e+001
1.710458e+003,2.968250e+001
1.711422e+003,2.902124e+001
1.712386e+003,2.464246e+001
1.713350e+003,1.937781e+001
1.714314e+003,1.681470e+001
1.715279e+003,1.711743e+001
1.716243e+003,1.885596e+001
1.717207e+003,2.150012e+001
1.718171e+003,2.420166e+001
1.719135e+003,2.530579e+001
1.720100e+003,2.502417e+001
1.721064e+003,2.519055e+001
1.722028e+003,2.605994e+001
1.722992e+003,2.594946e+001
1.723957e+003,2.487329e+001
1.724921e+003,2.427942e+001
1.725885e+003,2.370398e+001
1.726849e+003,2.230347e+001
1.727814e+003,2.024011e+001
1.728778e+003,1.865955e+001
1.729742e+003,1.809900e+001
1.730706e+003,1.810254e+001
1.731671e+003,1.786523e+001
1.732635e+003,1.679456e+001
1.733599e+003,1.534570e+001
1.734563e+003,1.495422e+001
1.735528e+003,1.566846e+001
1.736492e+003,1.534534e+001
1.737456e+003,1.365015e+001
1.738420e+003,1.284558e+001
1.739385e+003,1.240649e+001
1.740349e+003,1.217505e+001
1.741313e+003,1.384351e+001
1.742277e+003,1.429871e+001
1.743241e+003,1.063367e+001
1.744206e+003,6.856445e+000
1.745170e+003,5.932983e+000
1.746134e+003,7.293335e+000
1.747098e+003,1.026477e+001
1.748063e+003,1.432007e+001
1.749027e+003,1.714771e+001
1.749991e+003,1.775488e+001
1.750955e+003,1.651294e+001
1.751919e+003,1.182153e+001
1.752884e+003,5.675537e+000
1.753848e+003,4.670410e+000
1.754812e+003,8.326782e+000
1.755776e+003,9.604736e+000
1.756741e+003,7.333862e+000
1.757705e+003,5.150635e+000
1.758669e+003,3.847900e+000
1.759633e+003,3.727173e+000
1.760598e+003,6.934570e+000
1.761562e+003,1.068359e+001
1.762526e+003,8.787964e+000
1.763490e+003,2.301392e+000
1.764455e+003,-2.412109e-001
1.765419e+003,4.430298e+000
1.766383e+003,9.864502e+000
1.767347e+003,1.303467e+001
1.768312e+003,1.420642e+001
1.769276e+003,1.222668e+001
1.770240e+003,8.831909e+000
1.771204e+003,8.825928e+000
1.772168e+003,1.229089e+001
1.773133e+003,1.381592e+001
1.774097e+003,1.125928e+001
1.775061e+003,8.878296e+000
1.776025e+003,1.014258e+001
1.776990e+003,1.245972e+001
1.777954e+003,1.177185e+001
1.778918e+003,9.179443e+000
1.779882e+003,8.927734e+000
1.780846e+003,1.116052e+001
1.781811e+003,1.212622e+001
1.782775e+003,1.138928e+001
1.783739e+003,1.123279e+001
1.784703e+003,1.315479e+001
1.785668e+003,1.510840e+001
1.786632e+003,1.461047e+001
1.787596e+003,1.275964e+001
1.788560e+003,1.242053e+001
1.789525e+003,1.385974e+001
1.790489e+003,1.453015e+001
1.791453e+003,1.317310e+001
1.792417e+003,1.196594e+001
1.793382e+003,1.321606e+001
1.794346e+003,1.520068e+001
1.795310e+003,1.381335e+001
1.796274e+003,9.026123e+000
1.797239e+003,6.586548e+000
1.798203e+003,7.424194e+000
1.799167e+003,1.016370e+001
1.800131e+003,1.603308e+001
1.801095e+003,1.887341e+001
1.802060e+003,1.449915e+001
1.803024e+003,9.739014e+000
1.803988e+003,9.907715e+000
1.804952e+003,1.283618e+001
1.805917e+003,1.495728e+001
1.806881e+003,1.557666e+001
1.807845e+003,1.491003e+001
1.808809e+003,1.296643e+001
1.809773e+003,1.197058e+001
1.810738e+003,1.502332e+001
1.811702e+003,1.925842e+001
1.812666e+003,1.886426e+001
1.813630e+003,1.532910e+001
1.814595e+003,1.528772e+001
1.815559e+003,1.917737e+001
1.816523e+003,2.074170e+001
1.817487e+003,1.760876e+001
1.818452e+003,1.400061e+001
1.819416e+003,1.313208e+001
1.820380e+003,1.416296e+001
1.821344e+003,1.549683e+001
1.822309e+003,1.667676e+001
1.823273e+003,1.771362e+001
1.824237e+003,1.973779e+001
1.825201e+003,1.987463e+001
1.826166e+003,1.379956e+001
1.827130e+003,1.046887e+001
1.828094e+003,1.622754e+001
1.829058e+003,2.243542e+001
1.830022e+003,2.127686e+001
1.830987e+003,1.662854e+001
1.831951e+003,1.520459e+001
1.832915e+003,1.702991e+001
1.833879e+003,1.756934e+001
1.834844e+003,1.530298e+001
1.835808e+003,1.382288e+001
1.836772e+003,1.629297e+001
1.837736e+003,2.024988e+001
1.838700e+003,2.039844e+001
1.839665e+003,1.671826e+001
1.840629e+003,1.416650e+001
1.841593e+003,1.298694e+001
1.842557e+003,1.287244e+001
1.843522e+003,1.431934e+001
1.844486e+003,1.599207e+001
1.845450e+003,1.848987e+001
1.846414e+003,2.089282e+001
1.847379e+003,2.130457e+001
1.848343e+003,2.038794e+001
1.849307e+003,2.033643e+001
1.850271e+003,2.152173e+001
1.851236e+003,2.207544e+001
1.852200e+003,2.136731e+001
1.853164e+003,2.076221e+001
1.854128e+003,2.028674e+001
1.855093e+003,1.964001e+001
1.856057e+003,2.005542e+001
1.857021e+003,2.074731e+001
1.857985e+003,1.824280e+001
1.858949e+003,1.388794e+001
1.859914e+003,1.457251e+001
1.860878e+003,2.139844e+001
1.861842e+003,2.677637e+001
1.862806e+003,2.646191e+001
1.863771e+003,2.477710e+001
1.864735e+003,2.654382e+001
1.865699e+003,2.961914e+001
1.866663e+003,2.872217e+001
1.867627e+003,2.424207e+001
1.868592e+003,2.236743e+001
1.869556e+003,2.305432e+001
1.870520e+003,2.342651e+001
1.871484e+003,2.457251e+001
1.872449e+003,2.459448e+001
1.873413e+003,2.336438e+001
1.874377e+003,2.315442e+001
1.875341e+003,2.370789e+001
1.876306e+003,2.496423e+001
1.877270e+003,2.840576e+001
1.878234e+003,3.297095e+001
1.879198e+003,3.491553e+001
1.880163e+003,3.320667e+001
1.881127e+003,3.158618e+001
1.882091e+003,3.340002e+001
1.883055e+003,3.617896e+001
1.884020e+003,3.552991e+001
1.884984e+003,3.253687e+001
1.885948e+003,3.102417e+001
1.886912e+003,3.100391e+001
1.887876e+003,3.140662e+001
1.888841e+003,3.206531e+001
1.889805e+003,3.433789e+001
1.890769e+003,3.970801e+001
1.891733e+003,4.343774e+001
1.892698e+003,3.956848e+001
1.893662e+003,3.212378e+001
1.894626e+003,3.148193e+001
1.895590e+003,3.786548e+001
1.896554e+003,4.004211e+001
1.897519e+003,3.562122e+001
1.898483e+003,3.449792e+001
1.899447e+003,3.999170e+001
1.900411e+003,4.401465e+001
1.901376e+003,4.316150e+001
1.902340e+003,4.106750e+001
1.903304e+003,3.998914e+001
1.904268e+003,3.945593e+001
1.905233e+003,3.917188e+001
1.906197e+003,3.888403e+001
1.907161e+003,3.711877e+001
1.908125e+003,3.400171e+001
1.909090e+003,3.343567e+001
1.910054e+003,3.809851e+001
1.911018e+003,4.388367e+001
1.911982e+003,4.586938e+001
1.912947e+003,4.534570e+001
1.913911e+003,4.489648e+001
1.914875e+003,4.445703e+001
1.915839e+003,4.368872e+001
1.916803e+003,4.204456e+001
1.917768e+003,4.081958e+001
1.918732e+003,4.079895e+001
1.919696e+003,4.184619e+001
1.920660e+003,4.391968e+001
1.921625e+003,4.728796e+001
1.922589e+003,5.294592e+001
1.923553e+003,5.925354e+001
1.924517e+003,5.965222e+001
1.925481e+003,5.329456e+001
1.926446e+003,4.957361e+001
1.927410e+003,5.056360e+001
1.928374e+003,5.138989e+001
1.929338e+003,5.012476e+001
1.930303e+003,4.904663e+001
1.931267e+003,5.067371e+001
1.932231e+003,5.335620e+001
1.933195e+003,5.473523e+001
1.934160e+003,5.490845e+001
1.935124e+003,5.554834e+001
1.936088e+003,5.619019e+001
1.937052e+003,5.368042e+001
1.938017e+003,4.737122e+001
1.938981e+003,4.307605e+001
1.939945e+003,4.612122e+001
1.940909e+003,5.182520e+001
1.941874e+003,5.278125e+001
1.942838e+003,5.011768e+001
1.943802e+003,4.747498e+001
1.944766e+003,4.582617e+001
1.945730e+003,4.793835e+001
1.946695e+003,5.392163e+001
1.947659e+003,5.827747e+001
1.948623e+003,5.850305e+001
1.949587e+003,5.675977e+001
1.950552e+003,5.493970e+001
1.951516e+003,5.372559e+001
1.952480e+003,5.373181e+001
1.953444e+003,5.463464e+001
1.954408e+003,5.520386e+001
1.955373e+003,5.548022e+001
1.956337e+003,5.375452e+001
1.957301e+003,4.818542e+001
1.958265e+003,4.554944e+001
1.959230e+003,4.892749e+001
1.960194e+003,5.325500e+001
1.961158e+003,5.554944e+001
1.962122e+003,5.640295e+001
1.963087e+003,5.663953e+001
1.964051e+003,5.696692e+001
1.965015e+003,5.859399e+001
1.965979e+003,6.152319e+001
1.966944e+003,6.320557e+001
1.967908e+003,6.182471e+001
1.968872e+003,6.089868e+001
1.969836e+003,6.445264e+001
1.970801e+003,6.857996e+001
1.971765e+003,6.933801e+001
1.972729e+003,6.814294e+001
1.973693e+003,6.621387e+001
1.974657e+003,6.434485e+001
1.975622e+003,6.442334e+001
1.976586e+003,6.639575e+001
1.977550e+003,6.897913e+001
1.978514e+003,7.153223e+001
1.979479e+003,7.199780e+001
1.980443e+003,6.831372e+001
1.981407e+003,6.398462e+001
1.982371e+003,6.606494e+001
1.983335e+003,7.356995e+001
1.984300e+003,7.695862e+001
1.985264e+003,7.522229e+001
1.986228e+003,7.338403e+001
1.987192e+003,7.145508e+001
1.988157e+003,7.010779e+001
1.989121e+003,6.990771e+001
1.990085e+003,7.023242e+001
1.991049e+003,7.104517e+001
1.992014e+003,7.215771e+001
1.992978e+003,7.271765e+001
1.993942e+003,7.302979e+001
1.994906e+003,7.501172e+001
1.995871e+003,7.864807e+001
1.996835e+003,7.996545e+001
1.997799e+003,7.803662e+001
1.998763e+003,7.635144e+001
1.999728e+003,7.364795e+001
