5.003444e+002,3.966943e+001
5.013087e+002,3.741803e+001
5.022729e+002,3.738068e+001
5.032371e+002,3.907751e+001
5.042014e+002,3.837720e+001
5.051656e+002,3.578754e+001
5.061298e+002,3.305927e+001
5.070941e+002,3.159637e+001
5.080583e+002,3.125671e+001
5.090225e+002,3.138483e+001
5.099868e+002,3.195685e+001
5.109510e+002,3.278699e+001
5.119152e+002,3.441333e+001
5.128795e+002,3.703870e+001
5.138437e+002,3.787225e+001
5.148079e+002,3.389807e+001
5.157722e+002,3.013696e+001
5.167364e+002,2.865637e+001
5.177006e+002,2.940399e+001
5.186649e+002,3.054730e+001
5.196291e+002,3.074396e+001
5.205933e+002,3.068134e+001
5.215576e+002,3.018060e+001
5.225218e+002,2.884186e+001
5.234860e+002,2.649567e+001
5.244503e+002,2.338794e+001
5.254145e+002,1.990790e+001
5.263787e+002,1.765875e+001
5.273430e+002,1.656268e+001
5.283072e+002,1.671838e+001
5.292714e+002,1.848450e+001
5.302357e+002,2.284747e+001
5.311999e+002,2.459808e+001
5.321641e+002,2.299426e+001
5.331284e+002,2.055878e+001
5.340926e+002,1.863464e+001
5.350568e+002,1.736871e+001
5.360211e+002,1.657599e+001
5.369853e+002,1.753345e+001
5.379495e+002,1.916425e+001
5.389138e+002,2.052783e+001
5.398780e+002,2.108099e+001
5.408422e+002,2.070050e+001
5.418065e+002,1.864990e+001
5.427707e+002,1.528986e+001
5.437349e+002,1.373132e+001
5.446992e+002,1.518756e+001
5.456634e+002,1.857117e+001
5.466276e+002,2.024976e+001
5.475919e+002,1.811261e+001
5.485561e+002,1.725385e+001
5.495203e+002,1.945587e+001
5.504846e+002,2.204254e+001
5.514488e+002,2.084674e+001
5.524130e+002,1.264569e+001
5.533773e+002,5.543884e+000
5.543415e+002,3.762024e+000
5.553057e+002,4.863037e+000
5.562700e+002,6.357605e+000
5.572342e+002,6.643677e+000
5.581984e+002,6.499146e+000
5.591627e+002,9.058411e+000
5.601269e+002,1.340637e+001
5.610911e+002,1.690814e+001
5.620554e+002,1.802435e+001
5.630196e+002,1.670636e+001
5.639838e+002,1.448120e+001
5.649481e+002,9.567322e+000
5.659123e+002,6.373047e+000
5.668765e+002,8.087219e+000
5.678408e+002,1.297058e+001
5.688050e+002,1.479785e+001
5.697692e+002,7.397888e+000
5.707335e+002,1.463562e+000
5.716977e+002,1.790955e+000
5.726619e+002,5.370667e+000
5.736262e+002,7.958008e+000
5.745904e+002,6.620911e+000
5.755546e+002,4.091614e+000
5.765189e+002,4.436584e+000
5.774831e+002,6.042480e+000
5.784473e+002,6.762756e+000
5.794116e+002,5.392456e+000
5.803758e+002,2.593262e+000
5.813400e+002,1.869263e+000
5.823043e+002,2.961975e+000
5.832685e+002,3.687012e+000
5.842327e+002,3.749023e+000
5.851970e+002,3.630371e+000
5.861612e+002,3.987915e+000
5.871254e+002,4.758606e+000
5.880897e+002,5.309570e+000
5.890539e+002,4.860535e+000
5.900181e+002,3.897766e+000
5.909824e+002,3.509583e+000
5.919466e+002,4.852783e+000
5.929108e+002,6.527405e+000
5.938751e+002,7.126770e+000
5.948393e+002,6.909058e+000
5.958035e+002,6.162964e+000
5.967678e+002,5.209778e+000
5.977320e+002,4.404175e+000
5.986962e+002,4.952820e+000
5.996605e+002,6.184692e+000
6.006247e+002,7.055298e+000
6.015889e+002,7.329346e+000
6.025532e+002,7.055481e+000
6.035174e+002,5.988342e+000
6.044816e+002,2.433594e+000
6.054459e+002,1.732178e-001
6.064101e+002,7.834473e-001
6.073743e+002,2.835876e+000
6.083386e+002,3.638245e+000
6.093028e+002,1.239746e+000
6.102670e+002,-1.132385e+000
6.112313e+002,-1.261353e+000
6.121955e+002,4.516602e-002
6.131597e+002,1.867065e+000
6.141240e+002,3.535278e+000
6.150882e+002,4.954834e+000
6.160524e+002,6.393921e+000
6.170167e+002,8.121826e+000
6.179809e+002,9.146606e+000
6.189451e+002,8.521851e+000
6.199094e+002,6.190430e+000
6.208736e+002,3.942017e+000
6.218378e+002,2.851196e+000
6.228021e+002,1.857178e+000
6.237663e+002,5.301514e-001
6.247305e+002,-4.700928e-001
6.256948e+002,-2.014160e-001
6.266590e+002,1.661865e+000
6.276232e+002,3.508789e+000
6.285875e+002,5.620483e+000
6.295517e+002,7.419312e+000
6.305159e+002,7.879639e+000
6.314802e+002,6.339600e+000
6.324444e+002,3.301025e+000
6.334086e+002,2.114258e-001
6.343729e+002,-2.269653e+000
6.353371e+002,-2.804810e+000
6.363013e+002,-7.301025e-001
6.372656e+002,2.849854e+000
6.382298e+002,4.514771e+000
6.391940e+002,3.237061e+000
6.401583e+002,4.499512e-001
6.411225e+002,-5.385132e+000
6.420867e+002,-1.071228e+001
6.430510e+002,-1.105371e+001
6.440152e+002,-4.133179e+000
6.449794e+002,1.854370e+000
6.459437e+002,3.353149e+000
6.469079e+002,2.094238e+000
6.478721e+002,-1.715942e+000
6.488364e+002,-7.238647e+000
6.498006e+002,-1.210913e+001
6.507648e+002,-1.155554e+001
6.517291e+002,-7.570923e+000
6.526933e+002,-4.174438e+000
6.536575e+002,-2.102051e+000
6.546218e+002,-1.355103e+000
6.555860e+002,-2.015137e+000
6.565502e+002,-5.585449e+000
6.575145e+002,-7.395020e+000
6.584787e+002,-6.470947e+000
6.594429e+002,-4.736694e+000
6.604072e+002,-3.250977e+000
6.613714e+002,-2.008911e+000
6.623356e+002,-2.190308e+000
6.632999e+002,-6.638062e+000
6.642641e+002,-1.144788e+001
6.652283e+002,-1.411865e+001
6.661926e+002,-1.431091e+001
6.671568e+002,-1.336499e+001
6.681210e+002,-1.311914e+001
6.690853e+002,-1.335522e+001
6.700495e+002,-1.281531e+001
6.710137e+002,-1.146570e+001
6.719780e+002,-9.664795e+000
6.729422e+002,-7.791504e+000
6.739064e+002,-5.970215e+000
6.748707e+002,-4.846191e+000
6.758349e+002,-4.623413e+000
6.767991e+002,-4.881714e+000
6.777634e+002,-5.034546e+000
6.787276e+002,-4.720093e+000
6.796918e+002,-4.070435e+000
6.806561e+002,-3.587158e+000
6.816203e+002,-3.464111e+000
6.825845e+002,-4.450684e+000
6.835488e+002,-5.663940e+000
6.845130e+002,-5.427490e+000
6.854772e+002,-2.201538e+000
6.864415e+002,2.658936e+000
6.874057e+002,5.037598e+000
6.883699e+002,5.071289e+000
6.893342e+002,4.711182e+000
6.902984e+002,5.318604e+000
6.912626e+002,6.569458e+000
6.922269e+002,4.905884e+000
6.931911e+002,-3.071655e+000
6.941553e+002,-7.532227e+000
6.951196e+002,-6.683716e+000
6.960838e+002,-3.317871e+000
6.970480e+002,-1.574585e+000
6.980123e+002,-3.010132e+000
6.989765e+002,-3.295776e+000
6.999407e+002,8.579102e-001
7.009050e+002,5.401855e+000
7.018692e+002,6.747192e+000
7.028334e+002,3.817261e+000
7.037977e+002,-1.075928e+000
7.047619e+002,-4.584473e+000
7.057261e+002,-6.397949e+000
7.066904e+002,-6.410156e+000
7.076546e+002,-4.633301e+000
7.086188e+002,-2.214600e+000
7.095831e+002,-1.007446e+000
7.105473e+002,-1.806396e+000
7.115115e+002,-2.500732e+000
7.124758e+002,-3.719971e+000
7.134400e+002,-4.658081e+000
7.144042e+002,-3.736328e+000
7.153685e+002,-8.498535e-001
7.163327e+002,1.826172e-001
7.172969e+002,-5.325562e+000
7.182612e+002,-1.025146e+001
7.192254e+002,-1.174634e+001
7.201896e+002,-1.060657e+001
7.211539e+002,-8.672119e+000
7.221181e+002,-7.211548e+000
7.230823e+002,-6.520630e+000
7.240466e+002,-7.510376e+000
7.250108e+002,-9.299316e+000
7.259750e+002,-1.044165e+001
7.269393e+002,-1.069519e+001
7.279035e+002,-1.065076e+001
7.288677e+002,-1.005505e+001
7.298320e+002,-5.319092e+000
7.307962e+002,-2.092407e+000
7.317604e+002,-1.934326e+000
7.327247e+002,-2.855347e+000
7.336889e+002,-2.361450e+000
7.346531e+002,-1.855469e-001
7.356174e+002,6.209717e-001
7.365816e+002,-8.874512e-001
7.375458e+002,-2.573364e+000
7.385101e+002,-2.968994e+000
7.394743e+002,-1.709595e+000
7.404385e+002,5.173340e-001
7.414028e+002,2.700928e+000
7.423670e+002,3.469360e+000
7.433312e+002,2.592896e+000
7.442955e+002,8.393555e-001
7.452597e+002,-4.440918e-001
7.462239e+002,-8.159180e-001
7.471882e+002,-1.569702e+000
7.481524e+002,3.646851e+000
7.491166e+002,2.234241e+001
7.500809e+002,3.569482e+001
7.510451e+002,3.421509e+001
7.520093e+002,2.101636e+001
7.529736e+002,8.310547e+000
7.539378e+002,1.954224e+000
7.549020e+002,-1.017944e+000
7.558663e+002,-2.508179e+000
7.568306e+002,-2.769531e+000
7.577948e+002,-1.747681e+000
7.587590e+002,2.618408e-001
7.597233e+002,2.079834e+000
7.606875e+002,7.957764e-001
7.616517e+002,-2.695190e+000
7.626160e+002,-4.466064e+000
7.635802e+002,-2.552734e+000
7.645444e+002,8.950195e-001
7.655087e+002,1.020386e+000
7.664729e+002,-4.322388e+000
7.674371e+002,-8.941040e+000
7.684014e+002,-1.363525e+001
7.693656e+002,-1.675769e+001
7.703298e+002,-1.650659e+001
7.712941e+002,-1.293640e+001
7.722583e+002,-8.928101e+000
7.732225e+002,-6.840332e+000
7.741868e+002,-4.906860e+000
7.751510e+002,-1.160767e+000
7.761152e+002,3.688232e+000
7.770795e+002,7.690796e+000
7.780437e+002,9.029419e+000
7.790079e+002,7.849854e+000
7.799722e+002,6.655762e+000
7.809364e+002,5.308838e+000
7.819006e+002,4.371460e+000
7.828649e+002,5.301880e+000
7.838291e+002,7.500977e+000
7.847933e+002,7.574707e+000
7.857576e+002,1.890381e+000
7.867218e+002,-1.668457e+000
7.876860e+002,8.989258e-001
7.886503e+002,5.128052e+000
7.896145e+002,7.279663e+000
7.905787e+002,6.359375e+000
7.915430e+002,4.443359e+000
7.925072e+002,2.181519e+000
7.934714e+002,6.042480e-002
7.944357e+002,1.007080e-001
7.953999e+002,2.361328e+000
7.963641e+002,4.708740e+000
7.973284e+002,4.388062e+000
7.982926e+002,1.084473e+000
7.992568e+002,1.832642e+000
8.002211e+002,8.588379e+000
8.011853e+002,1.226428e+001
8.021495e+002,8.854370e+000
8.031138e+002,1.282959e+000
8.040780e+002,-2.619263e+000
8.050422e+002,-1.253662e-001
8.060065e+002,2.151123e+000
8.069707e+002,9.692383e-002
8.079349e+002,-2.830200e+000
8.088992e+002,-2.118286e+000
8.098634e+002,3.684814e+000
8.108276e+002,1.069177e+001
8.117919e+002,1.308545e+001
8.127561e+002,1.086768e+001
8.137203e+002,4.774414e+000
8.146846e+002,-4.233032e+000
8.156488e+002,-1.140491e+001
8.166130e+002,-1.080005e+001
8.175773e+002,-5.187988e-001
8.185415e+002,4.942139e+000
8.195057e+002,1.915527e+000
8.204700e+002,-1.570313e+000
8.214342e+002,-3.295776e+000
8.223984e+002,-3.411011e+000
8.233627e+002,-2.727295e+000
8.243269e+002,-1.416626e+000
8.252911e+002,1.227051e+000
8.262554e+002,6.680176e+000
8.272196e+002,1.254602e+001
8.281838e+002,1.632886e+001
8.291481e+002,1.709204e+001
8.301123e+002,1.569507e+001
8.310765e+002,1.318115e+001
8.320408e+002,9.624390e+000
8.330050e+002,7.636963e+000
8.339692e+002,7.796021e+000
8.349335e+002,8.723633e+000
8.358977e+002,9.553467e+000
8.368619e+002,1.080981e+001
8.378262e+002,1.085010e+001
8.387904e+002,7.177490e+000
8.397546e+002,4.074829e+000
8.407189e+002,2.508789e+000
8.416831e+002,2.374023e+000
8.426473e+002,3.585205e+000
8.436116e+002,6.520264e+000
8.445758e+002,9.491089e+000
8.455400e+002,9.808105e+000
8.465043e+002,8.265381e+000
8.474685e+002,6.063965e+000
8.484327e+002,4.265869e+000
8.493970e+002,3.868286e+000
8.503612e+002,5.850830e+000
8.513254e+002,1.052429e+001
8.522897e+002,1.295581e+001
8.532539e+002,1.191016e+001
8.542181e+002,9.740112e+000
8.551824e+002,7.766968e+000
8.561466e+002,6.782959e+000
8.571108e+002,8.341553e+000
8.580751e+002,1.392883e+001
8.590393e+002,1.725488e+001
8.600035e+002,1.519702e+001
8.609678e+002,1.164478e+001
8.619320e+002,1.103076e+001
8.628962e+002,1.495447e+001
8.638605e+002,2.061182e+001
8.648247e+002,2.423389e+001
8.657889e+002,2.621289e+001
8.667532e+002,2.790039e+001
8.677174e+002,2.944348e+001
8.686816e+002,2.956592e+001
8.696459e+002,2.631519e+001
8.706101e+002,1.898767e+001
8.715743e+002,1.654932e+001
8.725386e+002,2.313989e+001
8.735028e+002,2.897253e+001
8.744670e+002,3.065454e+001
8.754313e+002,2.924915e+001
8.763955e+002,2.742493e+001
8.773597e+002,2.612097e+001
8.783240e+002,2.548193e+001
8.792882e+002,2.469897e+001
8.802524e+002,2.451538e+001
8.812167e+002,2.708325e+001
8.821809e+002,3.185120e+001
8.831451e+002,3.506860e+001
8.841094e+002,3.159534e+001
8.850736e+002,2.241248e+001
8.860378e+002,2.017834e+001
8.870021e+002,2.614795e+001
8.879663e+002,3.209351e+001
8.889305e+002,3.286755e+001
8.898948e+002,2.931567e+001
8.908590e+002,2.683350e+001
8.918232e+002,2.704773e+001
8.927875e+002,2.734082e+001
8.937517e+002,2.557458e+001
8.947159e+002,2.477417e+001
8.956802e+002,2.858752e+001
8.966444e+002,3.654749e+001
8.976086e+002,4.273352e+001
8.985729e+002,4.091223e+001
8.995371e+002,3.496387e+001
9.005013e+002,3.007764e+001
9.014656e+002,2.699207e+001
9.024298e+002,2.694690e+001
9.033940e+002,3.086316e+001
9.043583e+002,3.752356e+001
9.053225e+002,4.111816e+001
9.062867e+002,3.833960e+001
9.072510e+002,3.557092e+001
9.082152e+002,3.349756e+001
9.091794e+002,3.252576e+001
9.101437e+002,3.319348e+001
9.111079e+002,3.554150e+001
9.120721e+002,3.773999e+001
9.130364e+002,3.853711e+001
9.140006e+002,3.778967e+001
9.149648e+002,3.491956e+001
9.159291e+002,3.133569e+001
9.168933e+002,2.894507e+001
9.178575e+002,2.879895e+001
9.188218e+002,3.023804e+001
9.197860e+002,3.278296e+001
9.207502e+002,3.635107e+001
9.217145e+002,3.619653e+001
9.226787e+002,2.964722e+001
9.236429e+002,2.212671e+001
9.246072e+002,2.114026e+001
9.255714e+002,2.785571e+001
9.265356e+002,3.237354e+001
9.274999e+002,3.118237e+001
9.284641e+002,2.906396e+001
9.294283e+002,2.751318e+001
9.303926e+002,2.672498e+001
9.313568e+002,2.630359e+001
9.323210e+002,2.596765e+001
9.332853e+002,2.607678e+001
9.342495e+002,2.864246e+001
9.352137e+002,3.161743e+001
9.361780e+002,3.177954e+001
9.371422e+002,2.894971e+001
9.381064e+002,2.530933e+001
9.390707e+002,2.290393e+001
9.400349e+002,2.079370e+001
9.409991e+002,2.188574e+001
9.419634e+002,2.904028e+001
9.429276e+002,3.494568e+001
9.438918e+002,3.751819e+001
9.448561e+002,3.797498e+001
9.458203e+002,3.863379e+001
9.467845e+002,4.051465e+001
9.477488e+002,4.175635e+001
9.487130e+002,3.838147e+001
9.496772e+002,3.529919e+001
9.506415e+002,3.764819e+001
9.516057e+002,4.471899e+001
9.525699e+002,5.156726e+001
9.535342e+002,5.327551e+001
9.544984e+002,5.027283e+001
9.554626e+002,4.851379e+001
9.564269e+002,4.933716e+001
9.573911e+002,4.961108e+001
9.583553e+002,4.661255e+001
9.593196e+002,4.299854e+001
9.602838e+002,4.413318e+001
9.612480e+002,5.177637e+001
9.622123e+002,5.650452e+001
9.631765e+002,5.349634e+001
9.641407e+002,4.965515e+001
9.651050e+002,4.708179e+001
9.660692e+002,4.593970e+001
9.670334e+002,4.692371e+001
9.679977e+002,5.097925e+001
9.689619e+002,5.531836e+001
9.699261e+002,4.956714e+001
9.708904e+002,3.723853e+001
9.718546e+002,3.027478e+001
9.728188e+002,3.133215e+001
9.737831e+002,3.692407e+001
9.747473e+002,4.405957e+001
9.757115e+002,5.423108e+001
9.766758e+002,5.878174e+001
9.776400e+002,5.276257e+001
9.786042e+002,4.822864e+001
9.795685e+002,4.892310e+001
9.805327e+002,5.141895e+001
9.814969e+002,5.127869e+001
9.824612e+002,4.743860e+001
9.834254e+002,4.292688e+001
9.843896e+002,3.855591e+001
9.853539e+002,3.537988e+001
9.863181e+002,3.542126e+001
9.872823e+002,3.794067e+001
9.882466e+002,4.082190e+001
9.892108e+002,4.289795e+001
9.901750e+002,4.524414e+001
9.911393e+002,4.899500e+001
9.921035e+002,5.257080e+001
9.930677e+002,5.653503e+001
9.940320e+002,6.227234e+001
9.949962e+002,6.867871e+001
9.959604e+002,7.442554e+001
9.969247e+002,7.960718e+001
9.978889e+002,8.604773e+001
9.988531e+002,9.587817e+001
9.998174e+002,1.033141e+002
1.000782e+003,1.043839e+002
1.001746e+003,1.023234e+002
1.002710e+003,1.013173e+002
1.003674e+003,1.032017e+002
1.004639e+003,1.069564e+002
1.005603e+003,1.110612e+002
1.006567e+003,1.153170e+002
1.007531e+003,1.175828e+002
1.008495e+003,1.180920e+002
1.009460e+003,1.166759e+002
1.010424e+003,1.118381e+002
1.011388e+003,1.050311e+002
1.012352e+003,1.021288e+002
1.013317e+003,1.065576e+002
1.014281e+003,1.083469e+002
1.015245e+003,1.033611e+002
1.016209e+003,9.558252e+001
1.017174e+003,8.721301e+001
1.018138e+003,7.921497e+001
1.019102e+003,7.196472e+001
1.020066e+003,6.592200e+001
1.021031e+003,6.134827e+001
1.021995e+003,5.813171e+001
1.022959e+003,5.535107e+001
1.023923e+003,5.177026e+001
1.024887e+003,4.671472e+001
1.025852e+003,4.084546e+001
1.026816e+003,3.518152e+001
1.027780e+003,2.990063e+001
1.028744e+003,2.660693e+001
1.029709e+003,2.596069e+001
1.030673e+003,2.635608e+001
1.031637e+003,2.911670e+001
1.032601e+003,3.149707e+001
1.033566e+003,2.894495e+001
1.034530e+003,2.028784e+001
1.035494e+003,1.214099e+001
1.036458e+003,1.243726e+001
1.037422e+003,1.715613e+001
1.038387e+003,1.980566e+001
1.039351e+003,2.006519e+001
1.040315e+003,1.998853e+001
1.041279e+003,2.141650e+001
1.042244e+003,2.412085e+001
1.043208e+003,2.558398e+001
1.044172e+003,2.454724e+001
1.045136e+003,2.285168e+001
1.046101e+003,1.948560e+001
1.047065e+003,1.719104e+001
1.048029e+003,1.813965e+001
1.048993e+003,2.151257e+001
1.049958e+003,2.478101e+001
1.050922e+003,2.759424e+001
1.051886e+003,2.900769e+001
1.052850e+003,2.620325e+001
1.053814e+003,2.219373e+001
1.054779e+003,2.157788e+001
1.055743e+003,2.484741e+001
1.056707e+003,2.812073e+001
1.057671e+003,2.658582e+001
1.058636e+003,2.006189e+001
1.059600e+003,1.707007e+001
1.060564e+003,2.076404e+001
1.061528e+003,2.489844e+001
1.062493e+003,2.928125e+001
1.063457e+003,3.204944e+001
1.064421e+003,3.084680e+001
1.065385e+003,2.580908e+001
1.066349e+003,2.124133e+001
1.067314e+003,1.935657e+001
1.068278e+003,1.870203e+001
1.069242e+003,1.805444e+001
1.070206e+003,1.818103e+001
1.071171e+003,2.055725e+001
1.072135e+003,2.523157e+001
1.073099e+003,3.004395e+001
1.074063e+003,3.185754e+001
1.075028e+003,3.064893e+001
1.075992e+003,2.933191e+001
1.076956e+003,2.689319e+001
1.077920e+003,2.487292e+001
1.078885e+003,2.553149e+001
1.079849e+003,2.732190e+001
1.080813e+003,2.624890e+001
1.081777e+003,2.105627e+001
1.082741e+003,1.770618e+001
1.083706e+003,1.982971e+001
1.084670e+003,2.278271e+001
1.085634e+003,2.529382e+001
1.086598e+003,2.646521e+001
1.087563e+003,2.473145e+001
1.088527e+003,1.983704e+001
1.089491e+003,1.486865e+001
1.090455e+003,1.524512e+001
1.091420e+003,2.116138e+001
1.092384e+003,2.417847e+001
1.093348e+003,2.282507e+001
1.094312e+003,2.036926e+001
1.095276e+003,1.896667e+001
1.096241e+003,1.872375e+001
1.097205e+003,1.835669e+001
1.098169e+003,1.621484e+001
1.099133e+003,1.684949e+001
1.100098e+003,2.747180e+001
1.101062e+003,3.679126e+001
1.102026e+003,3.534192e+001
1.102990e+003,2.679541e+001
1.103955e+003,2.092053e+001
1.104919e+003,2.351062e+001
1.105883e+003,3.084314e+001
1.106847e+003,3.593250e+001
1.107812e+003,3.844397e+001
1.108776e+003,3.822791e+001
1.109740e+003,3.410083e+001
1.110704e+003,2.971313e+001
1.111668e+003,2.775562e+001
1.112633e+003,2.847058e+001
1.113597e+003,3.137268e+001
1.114561e+003,3.697229e+001
1.115525e+003,4.210901e+001
1.116490e+003,4.566663e+001
1.117454e+003,4.843640e+001
1.118418e+003,5.179297e+001
1.119382e+003,5.554407e+001
1.120347e+003,5.784534e+001
1.121311e+003,5.703674e+001
1.122275e+003,5.422253e+001
1.123239e+003,5.351477e+001
1.124203e+003,5.564648e+001
1.125168e+003,5.779395e+001
1.126132e+003,5.971497e+001
1.127096e+003,6.236487e+001
1.128060e+003,6.634985e+001
1.129025e+003,7.117053e+001
1.129989e+003,7.570374e+001
1.130953e+003,8.001807e+001
1.131917e+003,8.288733e+001
1.132882e+003,8.216248e+001
1.133846e+003,8.244849e+001
1.134810e+003,8.755444e+001
1.135774e+003,9.606262e+001
1.136739e+003,1.037302e+002
1.137703e+003,1.081472e+002
1.138667e+003,1.117524e+002
1.139631e+003,1.190579e+002
1.140595e+003,1.297416e+002
1.141560e+003,1.408978e+002
1.142524e+003,1.525781e+002
1.143488e+003,1.661965e+002
1.144452e+003,1.818456e+002
1.145417e+003,1.998989e+002
1.146381e+003,2.222881e+002
1.147345e+003,2.504974e+002
1.148309e+003,2.785009e+002
1.149274e+003,3.060133e+002
1.150238e+003,3.325043e+002
1.151202e+003,3.584122e+002
1.152166e+003,3.835818e+002
1.153130e+003,4.083245e+002
1.154095e+003,4.318024e+002
1.155059e+003,4.498517e+002
1.156023e+003,4.579957e+002
1.156987e+003,4.559309e+002
1.157952e+003,4.445643e+002
1.158916e+003,4.240267e+002
1.159880e+003,4.014501e+002
1.160844e+003,3.777047e+002
1.161809e+003,3.529355e+002
1.162773e+003,3.301647e+002
1.163737e+003,3.104252e+002
1.164701e+003,2.884491e+002
1.165666e+003,2.590887e+002
1.166630e+003,2.321968e+002
1.167594e+003,2.100297e+002
1.168558e+003,1.930313e+002
1.169522e+003,1.821055e+002
1.170487e+003,1.770490e+002
1.171451e+003,1.761569e+002
1.172415e+003,1.779449e+002
1.173379e+003,1.812915e+002
1.174344e+003,1.813567e+002
1.175308e+003,1.784376e+002
1.176272e+003,1.746343e+002
1.177236e+003,1.708680e+002
1.178201e+003,1.668265e+002
1.179165e+003,1.610902e+002
1.180129e+003,1.531025e+002
1.181093e+003,1.462656e+002
1.182057e+003,1.421074e+002
1.183022e+003,1.388075e+002
1.183986e+003,1.352107e+002
1.184950e+003,1.324373e+002
1.185914e+003,1.319099e+002
1.186879e+003,1.336865e+002
1.187843e+003,1.369469e+002
1.188807e+003,1.408823e+002
1.189771e+003,1.444181e+002
1.190736e+003,1.446976e+002
1.191700e+003,1.411572e+002
1.192664e+003,1.395643e+002
1.193628e+003,1.427509e+002
1.194593e+003,1.458065e+002
1.195557e+003,1.447056e+002
1.196521e+003,1.403749e+002
1.197485e+003,1.366041e+002
1.198449e+003,1.345422e+002
1.199414e+003,1.315608e+002
1.200378e+003,1.256168e+002
1.201342e+003,1.192611e+002
1.202306e+003,1.136638e+002
1.203271e+003,1.085745e+002
1.204235e+003,1.033568e+002
1.205199e+003,9.785657e+001
1.206163e+003,9.259644e+001
1.207128e+003,8.837341e+001
1.208092e+003,8.536401e+001
1.209056e+003,8.060852e+001
1.210020e+003,7.354382e+001
1.210984e+003,6.635254e+001
1.211949e+003,5.843701e+001
1.212913e+003,5.115564e+001
1.213877e+003,4.752368e+001
1.214841e+003,4.770740e+001
1.215806e+003,4.589905e+001
1.216770e+003,3.817883e+001
1.217734e+003,3.024561e+001
1.218698e+003,2.532129e+001
1.219663e+003,2.227759e+001
1.220627e+003,1.999048e+001
1.221591e+003,1.820557e+001
1.222555e+003,1.737659e+001
1.223520e+003,1.810168e+001
1.224484e+003,2.014038e+001
1.225448e+003,2.101294e+001
1.226412e+003,1.983752e+001
1.227376e+003,1.899915e+001
1.228341e+003,1.882178e+001
1.229305e+003,1.813330e+001
1.230269e+003,1.514514e+001
1.231233e+003,1.142810e+001
1.232198e+003,1.091602e+001
1.233162e+003,1.509595e+001
1.234126e+003,1.967004e+001
1.235090e+003,2.156982e+001
1.236055e+003,2.128455e+001
1.237019e+003,1.803491e+001
1.237983e+003,1.323596e+001
1.238947e+003,1.165759e+001
1.239911e+003,1.554785e+001
1.240876e+003,2.066821e+001
1.241840e+003,1.993738e+001
1.242804e+003,1.289270e+001
1.243768e+003,9.308594e+000
1.244733e+003,1.230115e+001
1.245697e+003,1.494165e+001
1.246661e+003,1.554968e+001
1.247625e+003,1.544250e+001
1.248590e+003,1.583826e+001
1.249554e+003,1.727881e+001
1.250518e+003,2.017310e+001
1.251482e+003,2.454041e+001
1.252447e+003,2.782349e+001
1.253411e+003,2.595605e+001
1.254375e+003,2.235547e+001
1.255339e+003,2.467297e+001
1.256303e+003,3.319519e+001
1.257268e+003,4.062305e+001
1.258232e+003,4.209729e+001
1.259196e+003,3.941772e+001
1.260160e+003,3.625073e+001
1.261125e+003,3.237402e+001
1.262089e+003,3.346289e+001
1.263053e+003,4.512708e+001
1.264017e+003,5.428064e+001
1.264982e+003,5.728357e+001
1.265946e+003,5.741858e+001
1.266910e+003,5.761279e+001
1.267874e+003,5.822021e+001
1.268839e+003,5.818665e+001
1.269803e+003,5.686560e+001
1.270767e+003,5.424463e+001
1.271731e+003,4.965820e+001
1.272695e+003,4.368774e+001
1.273660e+003,4.158032e+001
1.274624e+003,4.401843e+001
1.275588e+003,4.590845e+001
1.276552e+003,4.545874e+001
1.277517e+003,4.345105e+001
1.278481e+003,4.025354e+001
1.279445e+003,3.557642e+001
1.280409e+003,3.091345e+001
1.281374e+003,2.639563e+001
1.282338e+003,2.276575e+001
1.283302e+003,1.969019e+001
1.284266e+003,1.785144e+001
1.285230e+003,1.934424e+001
1.286195e+003,2.319238e+001
1.287159e+003,2.506091e+001
1.288123e+003,2.163635e+001
1.289087e+003,1.524451e+001
1.290052e+003,1.166553e+001
1.291016e+003,1.077039e+001
1.291980e+003,1.183557e+001
1.292944e+003,1.681677e+001
1.293909e+003,1.989197e+001
1.294873e+003,1.853381e+001
1.295837e+003,1.520007e+001
1.296801e+003,1.264282e+001
1.297766e+003,1.135498e+001
1.298730e+003,1.121826e+001
1.299694e+003,1.245520e+001
1.300658e+003,1.326575e+001
1.301622e+003,1.115552e+001
1.302587e+003,8.117676e+000
1.303551e+003,7.084961e+000
1.304515e+003,8.743774e+000
1.305479e+003,1.200427e+001
1.306444e+003,1.604968e+001
1.307408e+003,1.992212e+001
1.308372e+003,2.126392e+001
1.309336e+003,1.965295e+001
1.310301e+003,1.653784e+001
1.311265e+003,9.484985e+000
1.312229e+003,4.845093e+000
1.313193e+003,5.941650e+000
1.314157e+003,9.134888e+000
1.315122e+003,1.073523e+001
1.316086e+003,1.004309e+001
1.317050e+003,8.240356e+000
1.318014e+003,6.266235e+000
1.318979e+003,5.034790e+000
1.319943e+003,6.052002e+000
1.320907e+003,9.338135e+000
1.321871e+003,1.200513e+001
1.322836e+003,1.286511e+001
1.323800e+003,1.382837e+001
1.324764e+003,1.642493e+001
1.325728e+003,1.975281e+001
1.326693e+003,2.200488e+001
1.327657e+003,2.275562e+001
1.328621e+003,2.284839e+001
1.329585e+003,2.452209e+001
1.330549e+003,2.585852e+001
1.331514e+003,2.300610e+001
1.332478e+003,1.880713e+001
1.333442e+003,1.630151e+001
1.334406e+003,1.605286e+001
1.335371e+003,1.766760e+001
1.336335e+003,2.074866e+001
1.337299e+003,2.379834e+001
1.338263e+003,2.360962e+001
1.339228e+003,1.971533e+001
1.340192e+003,1.723486e+001
1.341156e+003,1.626477e+001
1.342120e+003,1.636279e+001
1.343084e+003,1.767395e+001
1.344049e+003,1.867078e+001
1.345013e+003,1.898071e+001
1.345977e+003,1.877405e+001
1.346941e+003,1.734790e+001
1.347906e+003,1.423132e+001
1.348870e+003,1.232190e+001
1.349834e+003,1.474854e+001
1.350798e+003,1.932239e+001
1.351763e+003,2.344336e+001
1.352727e+003,2.682861e+001
1.353691e+003,2.661523e+001
1.354655e+003,2.117383e+001
1.355620e+003,1.424475e+001
1.356584e+003,9.573486e+000
1.357548e+003,7.417847e+000
1.358512e+003,8.823730e+000
1.359476e+003,1.531958e+001
1.360441e+003,1.913538e+001
1.361405e+003,1.666956e+001
1.362369e+003,1.364502e+001
1.363333e+003,1.305933e+001
1.364298e+003,1.363708e+001
1.365262e+003,1.301709e+001
1.366226e+003,1.088062e+001
1.367190e+003,9.118652e+000
1.368155e+003,9.421997e+000
1.369119e+003,1.119849e+001
1.370083e+003,1.269214e+001
1.371047e+003,1.400293e+001
1.372011e+003,1.632397e+001
1.372976e+003,2.076599e+001
1.373940e+003,2.325464e+001
1.374904e+003,2.058411e+001
1.375868e+003,1.684180e+001
1.376833e+003,1.774951e+001
1.377797e+003,2.287292e+001
1.378761e+003,2.622583e+001
1.379725e+003,2.514282e+001
1.380690e+003,2.270728e+001
1.381654e+003,2.171094e+001
1.382618e+003,2.181970e+001
1.383582e+003,2.267456e+001
1.384547e+003,2.414087e+001
1.385511e+003,2.571802e+001
1.386475e+003,2.697705e+001
1.387439e+003,2.769055e+001
1.388403e+003,2.757202e+001
1.389368e+003,2.655359e+001
1.390332e+003,2.559717e+001
1.391296e+003,2.539832e+001
1.392260e+003,2.482068e+001
1.393225e+003,2.317346e+001
1.394189e+003,2.126794e+001
1.395153e+003,1.860559e+001
1.396117e+003,1.645728e+001
1.397082e+003,1.774646e+001
1.398046e+003,2.247937e+001
1.399010e+003,2.605591e+001
1.399974e+003,2.373120e+001
1.400938e+003,1.719495e+001
1.401903e+003,1.402185e+001
1.402867e+003,1.691809e+001
1.403831e+003,2.017297e+001
1.404795e+003,2.211304e+001
1.405760e+003,2.491492e+001
1.406724e+003,3.143030e+001
1.407688e+003,3.543848e+001
1.408652e+003,2.779773e+001
1.409617e+003,1.163086e+001
1.410581e+003,2.338867e+000
1.411545e+003,6.661499e+000
1.412509e+003,1.539453e+001
1.413474e+003,2.115283e+001
1.414438e+003,2.354443e+001
1.415402e+003,2.189783e+001
1.416366e+003,1.779639e+001
1.417330e+003,1.725464e+001
1.418295e+003,2.338684e+001
1.419259e+003,3.093958e+001
1.420223e+003,3.327246e+001
1.421187e+003,3.077966e+001
1.422152e+003,2.854309e+001
1.423116e+003,2.731860e+001
1.424080e+003,2.685583e+001
1.425044e+003,2.585767e+001
1.426009e+003,2.562354e+001
1.426973e+003,2.763550e+001
1.427937e+003,3.009827e+001
1.428901e+003,3.118518e+001
1.429865e+003,3.096558e+001
1.430830e+003,3.022888e+001
1.431794e+003,2.922412e+001
1.432758e+003,2.820837e+001
1.433722e+003,2.856787e+001
1.434687e+003,3.134863e+001
1.435651e+003,3.540967e+001
1.436615e+003,3.999500e+001
1.437579e+003,4.224524e+001
1.438544e+003,4.139539e+001
1.439508e+003,3.928406e+001
1.440472e+003,3.592175e+001
1.441436e+003,3.351062e+001
1.442401e+003,3.671826e+001
1.443365e+003,4.560498e+001
1.444329e+003,5.188123e+001
1.445293e+003,4.902551e+001
1.446257e+003,4.212170e+001
1.447222e+003,4.053345e+001
1.448186e+003,4.308472e+001
1.449150e+003,4.414246e+001
1.450114e+003,4.296912e+001
1.451079e+003,4.044104e+001
1.452043e+003,3.662634e+001
1.453007e+003,3.290881e+001
1.453971e+003,3.043237e+001
1.454936e+003,2.897852e+001
1.455900e+003,2.889709e+001
1.456864e+003,3.067664e+001
1.457828e+003,3.378210e+001
1.458792e+003,3.982251e+001
1.459757e+003,4.436487e+001
1.460721e+003,4.225183e+001
1.461685e+003,3.628369e+001
1.462649e+003,3.243091e+001
1.463614e+003,3.253162e+001
1.464578e+003,3.443640e+001
1.465542e+003,3.621863e+001
1.466506e+003,3.749524e+001
1.467471e+003,3.772131e+001
1.468435e+003,3.724146e+001
1.469399e+003,3.815674e+001
1.470363e+003,4.038416e+001
1.471328e+003,4.259619e+001
1.472292e+003,4.483789e+001
1.473256e+003,4.527710e+001
1.474220e+003,4.195752e+001
1.475184e+003,3.765869e+001
1.476149e+003,3.707019e+001
1.477113e+003,4.087744e+001
1.478077e+003,4.521289e+001
1.479041e+003,4.691321e+001
1.480006e+003,4.697131e+001
1.480970e+003,4.700391e+001
1.481934e+003,4.583240e+001
1.482898e+003,4.659424e+001
1.483863e+003,5.082654e+001
1.484827e+003,5.426099e+001
1.485791e+003,5.574658e+001
1.486755e+003,5.719104e+001
1.487719e+003,6.011157e+001
1.488684e+003,6.373523e+001
1.489648e+003,6.640967e+001
1.490612e+003,6.796887e+001
1.491576e+003,6.959973e+001
1.492541e+003,7.155005e+001
1.493505e+003,7.448718e+001
1.494469e+003,8.134937e+001
1.495433e+003,9.048608e+001
1.496398e+003,9.575427e+001
1.497362e+003,9.612415e+001
1.498326e+003,9.753198e+001
1.499290e+003,1.026633e+002
1.500255e+003,1.105616e+002
1.501219e+003,1.195967e+002
1.502183e+003,1.297697e+002
1.503147e+003,1.433601e+002
1.504111e+003,1.618799e+002
1.505076e+003,1.782203e+002
1.506040e+003,1.840436e+002
1.507004e+003,1.908306e+002
1.507968e+003,2.112345e+002
1.508933e+003,2.404647e+002
1.509897e+003,2.688328e+002
1.510861e+003,2.954666e+002
1.511825e+003,3.247395e+002
1.512790e+003,3.589781e+002
1.513754e+003,3.965145e+002
1.514718e+003,4.362067e+002
1.515682e+003,4.774048e+002
1.516646e+003,5.158690e+002
1.517611e+003,5.530790e+002
1.518575e+003,5.853542e+002
1.519539e+003,6.145507e+002
1.520503e+003,6.367256e+002
1.521468e+003,6.481533e+002
1.522432e+003,6.511682e+002
1.523396e+003,6.487181e+002
1.524360e+003,6.415726e+002
1.525325e+003,6.294146e+002
1.526289e+003,6.122709e+002
1.527253e+003,5.910388e+002
1.528217e+003,5.670093e+002
1.529182e+003,5.407418e+002
1.530146e+003,5.098904e+002
1.531110e+003,4.724138e+002
1.532074e+003,4.327472e+002
1.533039e+003,3.888102e+002
1.534003e+003,3.428429e+002
1.534967e+003,2.937213e+002
1.535931e+003,2.472560e+002
1.536896e+003,2.094915e+002
1.537860e+003,1.804705e+002
1.538824e+003,1.561837e+002
1.539788e+003,1.341986e+002
1.540752e+003,1.159147e+002
1.541717e+003,1.040101e+002
1.542681e+003,9.771509e+001
1.543645e+003,8.959009e+001
1.544609e+003,7.889343e+001
1.545573e+003,7.035388e+001
1.546538e+003,6.195251e+001
1.547502e+003,5.614539e+001
1.548466e+003,5.660339e+001
1.549430e+003,5.967725e+001
1.550395e+003,6.137720e+001
1.551359e+003,6.134656e+001
1.552323e+003,6.142346e+001
1.553287e+003,6.220471e+001
1.554252e+003,6.077246e+001
1.555216e+003,5.379126e+001
1.556180e+003,4.464148e+001
1.557144e+003,4.213562e+001
1.558109e+003,4.682654e+001
1.559073e+003,4.758618e+001
1.560037e+003,4.095996e+001
1.561001e+003,3.483643e+001
1.561966e+003,3.285046e+001
1.562930e+003,3.346069e+001
1.563894e+003,3.537732e+001
1.564858e+003,3.776855e+001
1.565823e+003,3.953284e+001
1.566787e+003,4.034851e+001
1.567751e+003,4.040173e+001
1.568715e+003,3.993848e+001
1.569679e+003,3.926062e+001
1.570644e+003,3.802954e+001
1.571608e+003,3.624878e+001
1.572572e+003,3.575525e+001
1.573536e+003,3.713745e+001
1.574500e+003,3.725427e+001
1.575465e+003,3.382080e+001
1.576429e+003,3.022644e+001
1.577393e+003,2.863989e+001
1.578357e+003,2.857715e+001
1.579322e+003,3.018457e+001
1.580286e+003,3.347021e+001
1.581250e+003,3.615112e+001
1.582214e+003,3.755872e+001
1.583179e+003,3.804321e+001
1.584143e+003,3.729102e+001
1.585107e+003,3.544897e+001
1.586071e+003,3.303296e+001
1.587036e+003,3.126892e+001
1.588000e+003,3.182935e+001
1.588964e+003,3.467065e+001
1.589928e+003,3.742969e+001
1.590893e+003,3.836682e+001
1.591857e+003,3.878406e+001
1.592821e+003,4.086108e+001
1.593785e+003,4.440198e+001
1.594750e+003,4.775330e+001
1.595714e+003,5.060327e+001
1.596678e+003,5.163513e+001
1.597642e+003,4.945337e+001
1.598606e+003,4.674707e+001
1.599571e+003,4.463770e+001
1.600535e+003,4.433179e+001
1.601499e+003,4.857043e+001
1.602463e+003,5.616284e+001
1.603427e+003,6.199622e+001
1.604392e+003,6.422046e+001
1.605356e+003,6.306616e+001
1.606320e+003,5.684460e+001
1.607284e+003,4.813416e+001
1.608249e+003,4.488708e+001
1.609213e+003,4.735022e+001
1.610177e+003,4.794080e+001
1.611141e+003,4.471033e+001
1.612106e+003,4.137146e+001
1.613070e+003,3.984888e+001
1.614034e+003,3.858337e+001
1.614998e+003,3.581824e+001
1.615963e+003,3.286548e+001
1.616927e+003,3.228235e+001
1.617891e+003,3.395947e+001
1.618855e+003,3.481848e+001
1.619820e+003,3.257825e+001
1.620784e+003,2.881567e+001
1.621748e+003,2.716406e+001
1.622712e+003,2.811560e+001
1.623677e+003,2.825415e+001
1.624641e+003,2.717358e+001
1.625605e+003,2.827515e+001
1.626569e+003,3.262085e+001
1.627533e+003,3.500549e+001
1.628498e+003,3.253845e+001
1.629462e+003,2.914307e+001
1.630426e+003,2.690344e+001
1.631390e+003,2.635767e+001
1.632354e+003,2.929529e+001
1.633319e+003,3.543774e+001
1.634283e+003,3.952405e+001
1.635247e+003,3.716675e+001
1.636211e+003,3.164612e+001
1.637176e+003,2.946240e+001
1.638140e+003,3.063196e+001
1.639104e+003,3.007776e+001
1.640068e+003,2.652673e+001
1.641033e+003,2.432971e+001
1.641997e+003,2.578918e+001
1.642961e+003,2.780798e+001
1.643925e+003,2.913672e+001
1.644890e+003,2.986890e+001
1.645854e+003,2.937231e+001
1.646818e+003,2.826038e+001
1.647782e+003,2.883740e+001
1.648747e+003,3.147803e+001
1.649711e+003,3.219434e+001
1.650675e+003,2.726013e+001
1.651639e+003,2.070825e+001
1.652604e+003,2.033289e+001
1.653568e+003,2.553235e+001
1.654532e+003,3.080212e+001
1.655496e+003,3.663855e+001
1.656460e+003,3.976709e+001
1.657425e+003,3.836731e+001
1.658389e+003,3.571741e+001
1.659353e+003,3.282642e+001
1.660317e+003,3.017041e+001
1.661281e+003,2.828394e+001
1.662246e+003,2.682629e+001
1.663210e+003,2.527991e+001
1.664174e+003,2.370337e+001
1.665138e+003,2.211121e+001
1.666103e+003,2.014050e+001
1.667067e+003,1.780542e+001
1.668031e+003,1.530591e+001
1.668995e+003,1.291162e+001
1.669960e+003,1.216650e+001
1.670924e+003,1.364417e+001
1.671888e+003,1.574353e+001
1.672852e+003,1.837793e+001
1.673817e+003,2.015356e+001
1.674781e+003,1.991919e+001
1.675745e+003,1.853125e+001
1.676709e+003,1.583606e+001
1.677674e+003,1.282361e+001
1.678638e+003,1.265894e+001
1.679602e+003,1.629944e+001
1.680566e+003,1.973096e+001
1.681531e+003,2.029895e+001
1.682495e+003,1.916638e+001
1.683459e+003,1.690747e+001
1.684423e+003,1.350610e+001
1.685387e+003,1.176196e+001
1.686352e+003,1.241663e+001
1.687316e+003,1.259668e+001
1.688280e+003,1.108325e+001
1.689244e+003,9.398682e+000
1.690208e+003,7.879517e+000
1.691173e+003,6.966187e+000
1.692137e+003,8.358765e+000
1.693101e+003,1.156982e+001
1.694065e+003,1.300537e+001
1.695030e+003,1.107312e+001
1.695994e+003,9.504761e+000
1.696958e+003,1.127417e+001
1.697922e+003,1.451978e+001
1.698887e+003,1.814551e+001
1.699851e+003,2.134619e+001
1.700815e+003,2.003845e+001
1.701779e+003,1.370862e+001
1.702744e+003,8.886841e+000
1.703708e+003,8.590942e+000
1.704672e+003,9.451294e+000
1.705636e+003,7.417480e+000
1.706601e+003,4.905762e+000
1.707565e+003,9.293335e+000
1.708529e+003,1.762500e+001
1.709493e+003,1.682483e+001
1.710458e+003,3.838989e+000
1.711422e+003,-4.405762e+000
1.712386e+003,3.405884e+000
1.713350e+003,1.419983e+001
1.714314e+003,1.701208e+001
1.715279e+003,1.503198e+001
1.716243e+003,1.384448e+001
1.717207e+003,1.386121e+001
1.718171e+003,1.411694e+001
1.719135e+003,1.449548e+001
1.720100e+003,1.420239e+001
1.721064e+003,1.247058e+001
1.722028e+003,9.302979e+000
1.722992e+003,4.637695e+000
1.723957e+003,-1.895752e-001
1.724921e+003,-1.774780e+000
1.725885e+003,-1.090088e+000
1.726849e+003,6.228027e-001
1.727814e+003,6.686401e+000
1.728778e+003,1.160754e+001
1.729742e+003,1.172058e+001
1.730706e+003,1.031982e+001
1.731671e+003,9.767700e+000
1.732635e+003,9.241577e+000
1.733599e+003,8.149292e+000
1.734563e+003,6.995972e+000
1.735528e+003,5.764648e+000
1.736492e+003,4.132568e+000
1.737456e+003,3.266357e+000
1.738420e+003,4.817383e+000
1.739385e+003,7.193481e+000
1.740349e+003,6.483521e+000
1.741313e+003,2.374146e+000
1.742277e+003,-5.327148e-001
1.743241e+003,-1.494141e+000
1.744206e+003,-1.367432e+000
1.745170e+003,-2.573242e-001
1.746134e+003,1.170898e+000
1.747098e+003,3.012695e+000
1.748063e+003,4.521240e+000
1.749027e+003,4.883667e+000
1.749991e+003,4.375977e+000
1.750955e+003,3.482300e+000
1.751919e+003,2.404175e+000
1.752884e+003,1.610596e+000
1.753848e+003,1.494263e+000
1.754812e+003,1.611450e+000
1.755776e+003,1.495483e+000
1.756741e+003,1.790649e+000
1.757705e+003,3.564087e+000
1.758669e+003,7.441284e+000
1.759633e+003,9.208130e+000
1.760598e+003,6.704224e+000
1.761562e+003,3.391846e+000
1.762526e+003,2.720947e-001
1.763490e+003,-1.916748e+000
1.764455e+003,-2.161011e+000
1.765419e+003,-1.223389e+000
1.766383e+003,-9.903564e-001
1.767347e+003,-1.690063e+000
1.768312e+003,-1.253174e+000
1.769276e+003,1.149048e+000
1.770240e+003,2.637817e+000
1.771204e+003,5.605469e-001
1.772168e+003,-2.743530e+000
1.773133e+003,-3.313599e+000
1.774097e+003,-1.434204e+000
1.775061e+003,4.107666e-001
1.776025e+003,1.313232e+000
1.776990e+003,1.849609e+000
1.777954e+003,3.423096e+000
1.778918e+003,4.353149e+000
1.779882e+003,1.508423e+000
1.780846e+003,-2.463135e+000
1.781811e+003,-2.697144e+000
1.782775e+003,-2.137451e-001
1.783739e+003,4.965820e-001
1.784703e+003,-1.283203e+000
1.785668e+003,-7.476807e-001
1.786632e+003,6.160767e+000
1.787596e+003,1.142310e+001
1.788560e+003,8.542847e+000
1.789525e+003,2.824707e+000
1.790489e+003,-9.521484e-002
1.791453e+003,-3.399658e-001
1.792417e+003,2.249634e+000
1.793382e+003,7.095703e+000
1.794346e+003,8.573853e+000
1.795310e+003,3.319946e+000
1.796274e+003,-2.812988e+000
1.797239e+003,-2.361938e+000
1.798203e+003,2.949341e+000
1.799167e+003,4.763062e+000
1.800131e+003,8.795166e-001
1.801095e+003,-1.898193e+000
1.802060e+003,-1.249878e+000
1.803024e+003,-5.159912e-001
1.803988e+003,-1.184937e+000
1.804952e+003,-1.411011e+000
1.805917e+003,1.156128e+000
1.806881e+003,3.291382e+000
1.807845e+003,1.158569e+000
1.808809e+003,-3.311646e+000
1.809773e+003,-6.609863e+000
1.810738e+003,-7.473145e+000
1.811702e+003,-5.345703e+000
1.812666e+003,-4.516602e-002
1.813630e+003,6.137939e+000
1.814595e+003,1.052478e+001
1.815559e+003,1.251306e+001
1.816523e+003,9.199707e+000
1.817487e+003,-1.072998e-001
1.818452e+003,-4.420898e+000
1.819416e+003,-8.951416e-001
1.820380e+003,2.908081e+000
1.821344e+003,5.030762e+000
1.822309e+003,5.376953e+000
1.823273e+003,3.578003e+000
1.824237e+003,1.362183e+000
1.825201e+003,-2.078857e-001
1.826166e+003,-1.296143e+000
1.827130e+003,-2.122437e+000
1.828094e+003,-2.974365e+000
1.829058e+003,-3.604858e+000
1.830022e+003,-3.103516e+000
1.830987e+003,-2.809937e+000
1.831951e+003,-3.573975e+000
1.832915e+003,-5.376831e+000
1.833879e+003,-9.436768e+000
1.834844e+003,-1.441895e+001
1.835808e+003,-1.610291e+001
1.836772e+003,-1.400085e+001
1.837736e+003,-1.135730e+001
1.838700e+003,-9.916748e+000
1.839665e+003,-8.452393e+000
1.840629e+003,-5.278564e+000
1.841593e+003,-1.650391e+000
1.842557e+003,-9.223633e-001
1.843522e+003,-3.084717e+000
1.844486e+003,-4.435059e+000
1.845450e+003,-3.880005e+000
1.846414e+003,-2.768311e+000
1.847379e+003,-1.224731e+000
1.848343e+003,-1.349609e+000
1.849307e+003,-4.580688e+000
1.850271e+003,-7.996094e+000
1.851236e+003,-1.062122e+001
1.852200e+003,-1.072595e+001
1.853164e+003,-4.416138e+000
1.854128e+003,4.836792e+000
1.855093e+003,7.089844e+000
1.856057e+003,-3.710938e-002
1.857021e+003,-7.283569e+000
1.857985e+003,-7.270386e+000
1.858949e+003,-3.791382e+000
1.859914e+003,-3.109497e+000
1.860878e+003,-4.395264e+000
1.861842e+003,-3.755249e+000
1.862806e+003,-1.354736e+000
1.863771e+003,-4.086914e-001
1.864735e+003,-2.304077e+000
1.865699e+003,-2.986938e+000
1.866663e+003,7.500000e-001
1.867627e+003,4.760376e+000
1.868592e+003,4.429565e+000
1.869556e+003,1.195313e+000
1.870520e+003,-1.053101e+000
1.871484e+003,-2.546265e+000
1.872449e+003,-4.368530e+000
1.873413e+003,-4.903076e+000
1.874377e+003,-4.243164e+000
1.875341e+003,-4.504028e+000
1.876306e+003,-4.444580e+000
1.877270e+003,-3.141846e+000
1.878234e+003,-1.890381e+000
1.879198e+003,-1.655029e+000
1.880163e+003,-2.085205e+000
1.881127e+003,-2.601563e+000
1.882091e+003,-2.846436e+000
1.883055e+003,-2.429932e+000
1.884020e+003,-1.314575e+000
1.884984e+003,4.357910e-002
1.885948e+003,1.344116e+000
1.886912e+003,1.742676e+000
1.887876e+003,-8.465576e-001
1.888841e+003,-5.889160e+000
1.889805e+003,-7.574219e+000
1.890769e+003,-5.486206e+000
1.891733e+003,-2.183105e+000
1.892698e+003,1.849487e+000
1.893662e+003,6.391846e+000
1.894626e+003,1.293555e+001
1.895590e+003,1.837769e+001
1.896554e+003,2.195190e+001
1.897519e+003,2.309119e+001
1.898483e+003,1.910352e+001
1.899447e+003,1.088806e+001
1.900411e+003,2.970215e+000
1.901376e+003,-3.799683e+000
1.902340e+003,-7.458984e+000
1.903304e+003,-5.678589e+000
1.904268e+003,-3.446289e+000
1.905233e+003,-3.468018e+000
1.906197e+003,-4.259399e+000
1.907161e+003,-4.985718e+000
1.908125e+003,-4.699097e+000
1.909090e+003,-1.582153e+000
1.910054e+003,3.058105e+000
1.911018e+003,5.293335e+000
1.911982e+003,4.343384e+000
1.912947e+003,2.829468e+000
1.913911e+003,2.464600e+000
1.914875e+003,3.563965e+000
1.915839e+003,6.648438e+000
1.916803e+003,1.047485e+001
1.917768e+003,1.162256e+001
1.918732e+003,1.049011e+001
1.919696e+003,6.874634e+000
1.920660e+003,-1.125366e+000
1.921625e+003,-4.639648e+000
1.922589e+003,7.874756e-001
1.923553e+003,5.841064e+000
1.924517e+003,4.311157e+000
1.925481e+003,1.674072e+000
1.926446e+003,3.059082e+000
1.927410e+003,6.778442e+000
1.928374e+003,9.532715e+000
1.929338e+003,1.057385e+001
1.930303e+003,9.895752e+000
1.931267e+003,8.034302e+000
1.932231e+003,6.354370e+000
1.933195e+003,4.502075e+000
1.934160e+003,2.566406e+000
1.935124e+003,4.078369e-001
1.936088e+003,-2.042603e+000
1.937052e+003,-4.419067e+000
1.938017e+003,-6.121338e+000
1.938981e+003,-6.811279e+000
1.939945e+003,-6.520508e+000
1.940909e+003,-5.104858e+000
1.941874e+003,-2.792480e+000
1.942838e+003,-7.229004e-001
1.943802e+003,6.832275e-001
1.944766e+003,2.039307e+000
1.945730e+003,3.136597e+000
1.946695e+003,3.505859e+000
1.947659e+003,3.289185e+000
1.948623e+003,2.246704e+000
1.949587e+003,1.049683e+000
1.950552e+003,-2.431641e-001
1.951516e+003,2.069092e-001
1.952480e+003,4.145996e+000
1.953444e+003,7.454590e+000
1.954408e+003,6.995972e+000
1.955373e+003,3.693970e+000
1.956337e+003,-2.011841e+000
1.957301e+003,-7.974487e+000
1.958265e+003,-8.591553e+000
1.959230e+003,-2.882935e+000
1.960194e+003,1.672852e+000
1.961158e+003,2.448486e+000
1.962122e+003,2.028442e+000
1.963087e+003,2.225342e-001
1.964051e+003,-1.211060e+000
1.965015e+003,5.784912e-001
1.965979e+003,2.947266e+000
1.966944e+003,1.295654e+000
1.967908e+003,-2.346802e+000
1.968872e+003,-2.882080e+000
1.969836e+003,4.052734e-002
1.970801e+003,3.476929e+000
1.971765e+003,6.010986e+000
1.972729e+003,5.960205e+000
1.973693e+003,1.012329e+000
1.974657e+003,-4.854004e+000
1.975622e+003,-5.176880e+000
1.976586e+003,-2.404053e+000
1.977550e+003,-3.239746e+000
1.978514e+003,-6.469482e+000
1.979479e+003,-4.680054e+000
1.980443e+003,2.580078e+000
1.981407e+003,5.851807e+000
1.982371e+003,1.687378e+000
1.983335e+003,-2.475464e+000
1.984300e+003,-1.456543e+000
1.985264e+003,1.989380e+000
1.986228e+003,4.317871e+000
1.987192e+003,5.610840e+000
1.988157e+003,6.419312e+000
1.989121e+003,7.211792e+000
1.990085e+003,6.549316e+000
1.991049e+003,4.432617e+000
1.992014e+003,1.678101e+000
1.992978e+003,-5.081177e+000
1.993942e+003,-8.505371e+000
1.994906e+003,-3.172607e+000
1.995871e+003,3.386353e+000
1.996835e+003,7.082153e+000
1.997799e+003,8.128296e+000
1.998763e+003,5.001099e+000
1.999728e+003,-9.925537e-001
