5.003444e+002,3.967729e+001
5.013087e+002,4.109795e+001
5.022729e+002,3.942697e+001
5.032371e+002,3.594633e+001
5.042014e+002,3.500185e+001
5.051656e+002,3.620334e+001
5.061298e+002,3.746033e+001
5.070941e+002,3.675710e+001
5.080583e+002,3.340433e+001
5.090225e+002,3.170795e+001
5.099868e+002,3.256036e+001
5.109510e+002,3.354785e+001
5.119152e+002,3.325826e+001
5.128795e+002,3.153560e+001
5.138437e+002,3.040277e+001
5.148079e+002,3.112674e+001
5.157722e+002,3.210060e+001
5.167364e+002,3.299593e+001
5.177006e+002,3.350470e+001
5.186649e+002,3.316209e+001
5.196291e+002,3.049147e+001
5.205933e+002,2.749438e+001
5.215576e+002,2.659416e+001
5.225218e+002,2.777756e+001
5.234860e+002,2.969974e+001
5.244503e+002,3.007222e+001
5.254145e+002,2.848334e+001
5.263787e+002,2.689824e+001
5.273430e+002,2.482430e+001
5.283072e+002,2.306590e+001
5.292714e+002,2.292633e+001
5.302357e+002,2.547961e+001
5.311999e+002,2.698244e+001
5.321641e+002,2.700267e+001
5.331284e+002,2.630322e+001
5.340926e+002,2.510837e+001
5.350568e+002,2.336624e+001
5.360211e+002,2.200809e+001
5.369853e+002,2.269107e+001
5.379495e+002,2.388567e+001
5.389138e+002,2.424303e+001
5.398780e+002,2.325127e+001
5.408422e+002,2.143829e+001
5.418065e+002,2.017928e+001
5.427707e+002,1.941849e+001
5.437349e+002,1.889331e+001
5.446992e+002,1.853722e+001
5.456634e+002,1.835141e+001
5.466276e+002,1.838644e+001
5.475919e+002,1.907610e+001
5.485561e+002,1.953523e+001
5.495203e+002,1.960983e+001
5.504846e+002,1.938995e+001
5.514488e+002,1.906425e+001
5.524130e+002,1.879781e+001
5.533773e+002,1.832913e+001
5.543415e+002,1.720834e+001
5.553057e+002,1.602246e+001
5.562700e+002,1.541339e+001
5.572342e+002,1.575443e+001
5.581984e+002,1.659079e+001
5.591627e+002,1.726059e+001
5.601269e+002,1.770665e+001
5.610911e+002,1.733910e+001
5.620554e+002,1.575818e+001
5.630196e+002,1.311433e+001
5.639838e+002,1.114641e+001
5.649481e+002,9.463135e+000
5.659123e+002,8.987656e+000
5.668765e+002,1.094260e+001
5.678408e+002,1.442926e+001
5.688050e+002,1.668602e+001
5.697692e+002,1.612914e+001
5.707335e+002,1.506714e+001
5.716977e+002,1.412904e+001
5.726619e+002,1.327400e+001
5.736262e+002,1.230043e+001
5.745904e+002,1.104114e+001
5.755546e+002,9.873459e+000
5.765189e+002,9.184357e+000
5.774831e+002,8.823425e+000
5.784473e+002,8.745056e+000
5.794116e+002,8.961121e+000
5.803758e+002,9.501694e+000
5.813400e+002,9.856644e+000
5.823043e+002,9.916351e+000
5.832685e+002,9.762772e+000
5.842327e+002,9.436188e+000
5.851970e+002,9.032974e+000
5.861612e+002,8.746109e+000
5.871254e+002,8.532730e+000
5.880897e+002,8.371262e+000
5.890539e+002,7.993958e+000
5.900181e+002,7.657990e+000
5.909824e+002,7.916855e+000
5.919466e+002,9.432877e+000
5.929108e+002,1.103831e+001
5.938751e+002,1.162547e+001
5.948393e+002,1.144614e+001
5.958035e+002,1.085316e+001
5.967678e+002,1.012268e+001
5.977320e+002,9.281265e+000
5.986962e+002,7.948593e+000
5.996605e+002,5.939774e+000
6.006247e+002,4.326599e+000
6.015889e+002,3.705765e+000
6.025532e+002,4.030945e+000
6.035174e+002,4.366806e+000
6.044816e+002,4.679352e+000
6.054459e+002,5.089096e+000
6.064101e+002,5.821991e+000
6.073743e+002,6.620316e+000
6.083386e+002,7.057022e+000
6.093028e+002,6.908157e+000
6.102670e+002,6.350357e+000
6.112313e+002,4.863495e+000
6.121955e+002,3.342148e+000
6.131597e+002,3.310593e+000
6.141240e+002,5.746262e+000
6.150882e+002,9.587921e+000
6.160524e+002,9.835648e+000
6.170167e+002,7.197327e+000
6.179809e+002,4.851013e+000
6.189451e+002,4.274704e+000
6.199094e+002,5.155045e+000
6.208736e+002,5.435059e+000
6.218378e+002,4.292740e+000
6.228021e+002,3.693344e+000
6.237663e+002,4.131210e+000
6.247305e+002,5.165344e+000
6.256948e+002,6.059952e+000
6.266590e+002,6.481567e+000
6.276232e+002,6.582016e+000
6.285875e+002,6.541138e+000
6.295517e+002,6.439987e+000
6.305159e+002,6.328430e+000
6.314802e+002,6.204376e+000
6.324444e+002,5.999222e+000
6.334086e+002,5.760452e+000
6.343729e+002,5.502701e+000
6.353371e+002,4.677261e+000
6.363013e+002,2.840118e+000
6.372656e+002,5.586395e-001
6.382298e+002,-9.078979e-003
6.391940e+002,3.410492e+000
6.401583e+002,5.568771e+000
6.411225e+002,5.952637e+000
6.420867e+002,5.498932e+000
6.430510e+002,5.228668e+000
6.440152e+002,5.381805e+000
6.449794e+002,5.366913e+000
6.459437e+002,4.714874e+000
6.469079e+002,3.928726e+000
6.478721e+002,3.675354e+000
6.488364e+002,4.066620e+000
6.498006e+002,4.280762e+000
6.507648e+002,2.018250e+000
6.517291e+002,-1.508102e+000
6.526933e+002,-2.879990e+000
6.536575e+002,-1.355667e+000
6.546218e+002,1.438309e+000
6.555860e+002,2.298523e+000
6.565502e+002,-4.959717e-001
6.575145e+002,-1.524948e+000
6.584787e+002,7.702637e-001
6.594429e+002,3.363647e+000
6.604072e+002,3.574829e+000
6.613714e+002,7.816010e-001
6.623356e+002,-1.603409e+000
6.632999e+002,-2.080215e+000
6.642641e+002,-1.777100e+000
6.652283e+002,-6.163330e-001
6.661926e+002,1.029404e+000
6.671568e+002,2.297180e+000
6.681210e+002,1.894073e+000
6.690853e+002,4.123383e-001
6.700495e+002,-3.917236e-001
6.710137e+002,-4.844666e-001
6.719780e+002,-9.848022e-002
6.729422e+002,6.121674e-001
6.739064e+002,1.868790e+000
6.748707e+002,1.719559e+000
6.758349e+002,-8.406982e-001
6.767991e+002,-3.246658e+000
6.777634e+002,-4.601334e+000
6.787276e+002,-4.813202e+000
6.796918e+002,-3.912537e+000
6.806561e+002,-1.309052e-001
6.816203e+002,2.586914e+000
6.825845e+002,1.971085e+000
6.835488e+002,-5.904236e-001
6.845130e+002,-2.749527e+000
6.854772e+002,-2.728821e+000
6.864415e+002,-1.406525e+000
6.874057e+002,-8.217010e-001
6.883699e+002,-9.059296e-001
6.893342e+002,-1.437378e+000
6.902984e+002,-2.320389e+000
6.912626e+002,-3.410370e+000
6.922269e+002,-3.907761e+000
6.931911e+002,-3.606873e+000
6.941553e+002,-2.667633e+000
6.951196e+002,-2.268219e-001
6.960838e+002,2.413940e+000
6.970480e+002,2.931473e+000
6.980123e+002,-2.447052e-001
6.989765e+002,-2.607361e+000
6.999407e+002,-2.066956e+000
7.009050e+002,-3.815918e-001
7.018692e+002,1.289917e+000
7.028334e+002,2.434937e+000
7.037977e+002,3.181168e+000
7.047619e+002,3.715134e+000
7.057261e+002,4.090515e+000
7.066904e+002,4.283844e+000
7.076546e+002,4.279449e+000
7.086188e+002,3.996048e+000
7.095831e+002,3.248322e+000
7.105473e+002,1.652267e+000
7.115115e+002,7.026062e-001
7.124758e+002,4.352570e-001
7.134400e+002,5.498505e-001
7.144042e+002,1.110962e+000
7.153685e+002,2.112503e+000
7.163327e+002,2.882645e+000
7.172969e+002,3.125153e+000
7.182612e+002,3.035828e+000
7.192254e+002,2.382629e+000
7.201896e+002,1.413528e+000
7.211539e+002,5.731659e-001
7.221181e+002,2.450867e-001
7.230823e+002,3.047180e-001
7.240466e+002,3.852844e-001
7.250108e+002,5.589447e-001
7.259750e+002,8.486481e-001
7.269393e+002,1.216599e+000
7.279035e+002,1.531265e+000
7.288677e+002,1.506561e+000
7.298320e+002,1.251022e+000
7.307962e+002,8.630829e-001
7.317604e+002,-3.763275e-001
7.327247e+002,-1.437790e+000
7.336889e+002,-4.843445e-001
7.346531e+002,3.713776e+000
7.356174e+002,6.633209e+000
7.365816e+002,5.075470e+000
7.375458e+002,2.329681e+000
7.385101e+002,6.957550e-001
7.394743e+002,8.408051e-001
7.404385e+002,1.935333e+000
7.414028e+002,2.990982e+000
7.423670e+002,3.602661e+000
7.433312e+002,2.927032e+000
7.442955e+002,9.130249e-001
7.452597e+002,-1.123413e+000
7.462239e+002,-1.659775e+000
7.471882e+002,-2.339020e-001
7.481524e+002,5.294342e-001
7.491166e+002,-4.068604e-001
7.500809e+002,-9.829559e-001
7.510451e+002,2.311859e-001
7.520093e+002,2.579605e+000
7.529736e+002,3.547852e+000
7.539378e+002,9.720764e-001
7.549020e+002,-1.471329e+000
7.558663e+002,-1.029709e+000
7.568306e+002,8.272705e-001
7.577948e+002,1.841721e+000
7.587590e+002,6.968231e-001
7.597233e+002,-1.563354e+000
7.606875e+002,-1.295898e+000
7.616517e+002,1.215103e+000
7.626160e+002,3.223343e+000
7.635802e+002,4.023132e+000
7.645444e+002,4.021484e+000
7.655087e+002,4.036789e+000
7.664729e+002,4.244308e+000
7.674371e+002,3.951721e+000
7.684014e+002,2.211884e+000
7.693656e+002,8.299713e-001
7.703298e+002,1.337204e+000
7.712941e+002,3.730804e+000
7.722583e+002,6.039200e+000
7.732225e+002,6.820175e+000
7.741868e+002,6.878265e+000
7.751510e+002,6.597412e+000
7.761152e+002,6.165482e+000
7.770795e+002,5.826004e+000
7.780437e+002,5.782928e+000
7.790079e+002,5.962952e+000
7.799722e+002,5.928955e+000
7.809364e+002,5.662842e+000
7.819006e+002,5.420441e+000
7.828649e+002,5.680893e+000
7.838291e+002,6.157318e+000
7.847933e+002,5.600784e+000
7.857576e+002,2.833359e+000
7.867218e+002,6.812744e-001
7.876860e+002,-7.366028e-001
7.886503e+002,-1.036942e+000
7.896145e+002,7.091980e-001
7.905787e+002,4.498840e+000
7.915430e+002,8.127472e+000
7.925072e+002,9.003662e+000
7.934714e+002,8.250244e+000
7.944357e+002,6.670624e+000
7.953999e+002,4.685272e+000
7.963641e+002,3.050842e+000
7.973284e+002,2.597885e+000
7.982926e+002,3.415237e+000
7.992568e+002,3.876907e+000
8.002211e+002,3.465576e+000
8.011853e+002,3.222321e+000
8.021495e+002,4.274124e+000
8.031138e+002,6.142624e+000
8.040780e+002,6.524231e+000
8.050422e+002,3.603073e+000
8.060065e+002,1.162949e+000
8.069707e+002,2.710266e-001
8.079349e+002,3.411407e-001
8.088992e+002,9.984436e-001
8.098634e+002,2.061722e+000
8.108276e+002,3.381134e+000
8.117919e+002,5.050873e+000
8.127561e+002,6.410675e+000
8.137203e+002,6.107956e+000
8.146846e+002,4.133987e+000
8.156488e+002,1.967102e+000
8.166130e+002,1.389542e+000
8.175773e+002,2.691833e+000
8.185415e+002,3.695953e+000
8.195057e+002,4.273178e+000
8.204700e+002,4.610382e+000
8.214342e+002,4.879227e+000
8.223984e+002,4.953842e+000
8.233627e+002,4.324265e+000
8.243269e+002,2.152405e+000
8.252911e+002,7.395477e-001
8.262554e+002,1.882172e+000
8.272196e+002,3.945740e+000
8.281838e+002,5.359512e+000
8.291481e+002,5.489685e+000
8.301123e+002,4.727249e+000
8.310765e+002,3.569534e+000
8.320408e+002,2.088242e+000
8.330050e+002,1.159225e+000
8.339692e+002,8.252411e-001
8.349335e+002,1.141968e+000
8.358977e+002,2.676270e+000
8.368619e+002,5.893646e+000
8.378262e+002,7.264328e+000
8.387904e+002,4.552628e+000
8.397546e+002,2.305222e+000
8.407189e+002,2.042374e+000
8.416831e+002,2.916016e+000
8.426473e+002,3.164017e+000
8.436116e+002,1.840942e+000
8.445758e+002,5.366974e-001
8.455400e+002,7.701721e-001
8.465043e+002,1.838531e+000
8.474685e+002,3.389145e+000
8.484327e+002,5.258942e+000
8.493970e+002,7.215332e+000
8.503612e+002,8.788696e+000
8.513254e+002,9.973846e+000
8.522897e+002,9.753296e+000
8.532539e+002,6.729813e+000
8.542181e+002,4.144150e+000
8.551824e+002,4.640076e+000
8.561466e+002,7.834183e+000
8.571108e+002,9.625412e+000
8.580751e+002,7.336243e+000
8.590393e+002,5.499390e+000
8.600035e+002,5.812393e+000
8.609678e+002,7.346939e+000
8.619320e+002,9.219437e+000
8.628962e+002,1.096501e+001
8.638605e+002,1.228557e+001
8.648247e+002,1.236952e+001
8.657889e+002,1.176430e+001
8.667532e+002,1.170866e+001
8.677174e+002,1.236174e+001
8.686816e+002,1.332224e+001
8.696459e+002,1.427791e+001
8.706101e+002,1.541013e+001
8.715743e+002,1.544191e+001
8.725386e+002,1.238776e+001
8.735028e+002,1.084093e+001
8.744670e+002,1.300539e+001
8.754313e+002,1.708459e+001
8.763955e+002,1.969377e+001
8.773597e+002,1.951060e+001
8.783240e+002,1.875970e+001
8.792882e+002,1.881310e+001
8.802524e+002,1.918756e+001
8.812167e+002,1.943977e+001
8.821809e+002,1.953633e+001
8.831451e+002,1.987393e+001
8.841094e+002,2.103284e+001
8.850736e+002,2.301279e+001
8.860378e+002,2.425398e+001
8.870021e+002,2.467236e+001
8.879663e+002,2.464461e+001
8.889305e+002,2.401573e+001
8.898948e+002,2.295691e+001
8.908590e+002,2.256653e+001
8.918232e+002,2.348660e+001
8.927875e+002,2.433946e+001
8.937517e+002,2.524576e+001
8.947159e+002,2.570084e+001
8.956802e+002,2.474516e+001
8.966444e+002,2.243097e+001
8.976086e+002,2.042264e+001
8.985729e+002,2.062833e+001
8.995371e+002,2.229988e+001
9.005013e+002,2.436316e+001
9.014656e+002,2.657167e+001
9.024298e+002,2.780522e+001
9.033940e+002,2.700986e+001
9.043583e+002,2.448907e+001
9.053225e+002,2.330659e+001
9.062867e+002,2.505556e+001
9.072510e+002,2.599976e+001
9.082152e+002,2.580826e+001
9.091794e+002,2.516112e+001
9.101437e+002,2.462306e+001
9.111079e+002,2.427068e+001
9.120721e+002,2.400394e+001
9.130364e+002,2.373233e+001
9.140006e+002,2.338879e+001
9.149648e+002,2.272661e+001
9.159291e+002,2.211757e+001
9.168933e+002,2.241263e+001
9.178575e+002,2.412602e+001
9.188218e+002,2.641902e+001
9.197860e+002,2.614720e+001
9.207502e+002,2.317282e+001
9.217145e+002,2.150421e+001
9.226787e+002,2.276407e+001
9.236429e+002,2.503737e+001
9.246072e+002,2.554149e+001
9.255714e+002,2.379689e+001
9.265356e+002,2.244543e+001
9.274999e+002,2.192644e+001
9.284641e+002,2.177159e+001
9.294283e+002,2.219130e+001
9.303926e+002,2.285716e+001
9.313568e+002,2.337007e+001
9.323210e+002,2.355037e+001
9.332853e+002,2.314154e+001
9.342495e+002,2.055159e+001
9.352137e+002,1.731874e+001
9.361780e+002,1.655138e+001
9.371422e+002,1.892534e+001
9.381064e+002,2.198544e+001
9.390707e+002,2.220232e+001
9.400349e+002,1.884561e+001
9.409991e+002,1.694916e+001
9.419634e+002,1.669427e+001
9.429276e+002,1.736366e+001
9.438918e+002,2.023358e+001
9.448561e+002,2.348897e+001
9.458203e+002,2.348512e+001
9.467845e+002,1.844664e+001
9.477488e+002,1.422098e+001
9.487130e+002,1.644983e+001
9.496772e+002,2.037804e+001
9.506415e+002,2.290971e+001
9.516057e+002,2.346152e+001
9.525699e+002,2.247952e+001
9.535342e+002,2.035806e+001
9.544984e+002,1.724580e+001
9.554626e+002,1.464816e+001
9.564269e+002,1.244435e+001
9.573911e+002,1.141989e+001
9.583553e+002,1.235699e+001
9.593196e+002,1.430791e+001
9.602838e+002,1.587068e+001
9.612480e+002,1.702214e+001
9.622123e+002,1.748573e+001
9.631765e+002,1.682782e+001
9.641407e+002,1.591432e+001
9.651050e+002,1.475455e+001
9.660692e+002,1.364313e+001
9.670334e+002,1.317477e+001
9.679977e+002,1.378833e+001
9.689619e+002,1.493739e+001
9.699261e+002,1.503712e+001
9.708904e+002,1.446230e+001
9.718546e+002,1.453865e+001
9.728188e+002,1.553043e+001
9.737831e+002,1.719754e+001
9.747473e+002,1.957938e+001
9.757115e+002,2.308345e+001
9.766758e+002,2.520552e+001
9.776400e+002,2.545578e+001
9.786042e+002,2.507269e+001
9.795685e+002,2.373744e+001
9.805327e+002,2.204002e+001
9.814969e+002,2.092334e+001
9.824612e+002,2.077083e+001
9.834254e+002,2.057173e+001
9.843896e+002,1.904631e+001
9.853539e+002,1.689893e+001
9.863181e+002,1.476865e+001
9.872823e+002,1.271072e+001
9.882466e+002,1.072328e+001
9.892108e+002,8.893982e+000
9.901750e+002,7.368500e+000
9.911393e+002,6.408691e+000
9.921035e+002,6.018707e+000
9.930677e+002,5.763733e+000
9.940320e+002,5.565353e+000
9.949962e+002,5.719803e+000
9.959604e+002,6.774307e+000
9.969247e+002,8.705795e+000
9.978889e+002,1.017882e+001
9.988531e+002,9.979706e+000
9.998174e+002,9.606888e+000
1.000782e+003,1.023570e+001
1.001746e+003,1.136002e+001
1.002710e+003,1.199150e+001
1.003674e+003,1.177217e+001
1.004639e+003,1.151930e+001
1.005603e+003,1.286253e+001
1.006567e+003,1.595187e+001
1.007531e+003,1.660626e+001
1.008495e+003,1.402213e+001
1.009460e+003,1.082970e+001
1.010424e+003,8.072815e+000
1.011388e+003,5.932434e+000
1.012352e+003,5.267563e+000
1.013317e+003,6.945724e+000
1.014281e+003,8.493195e+000
1.015245e+003,9.047150e+000
1.016209e+003,9.210251e+000
1.017174e+003,9.745270e+000
1.018138e+003,1.043945e+001
1.019102e+003,1.019687e+001
1.020066e+003,8.032761e+000
1.021031e+003,4.750244e+000
1.021995e+003,2.062622e+000
1.022959e+003,-1.185913e-001
1.023923e+003,-6.790314e-001
1.024887e+003,1.347397e+000
1.025852e+003,4.072998e+000
1.026816e+003,4.145538e+000
1.027780e+003,6.975708e-001
1.028744e+003,-9.497375e-001
1.029709e+003,1.709320e+000
1.030673e+003,3.682800e+000
1.031637e+003,3.066727e+000
1.032601e+003,9.984589e-001
1.033566e+003,-9.229889e-001
1.034530e+003,-2.087936e+000
1.035494e+003,-2.690506e+000
1.036458e+003,-2.763092e+000
1.037422e+003,-2.569778e+000
1.038387e+003,-2.868027e+000
1.039351e+003,-3.524948e+000
1.040315e+003,-3.048767e+000
1.041279e+003,1.664734e-002
1.042244e+003,4.775040e+000
1.043208e+003,6.433960e+000
1.044172e+003,2.004715e+000
1.045136e+003,-6.769562e-001
1.046101e+003,-6.976624e-001
1.047065e+003,2.690430e-001
1.048029e+003,2.024399e+000
1.048993e+003,3.876083e+000
1.049958e+003,3.659241e+000
1.050922e+003,-5.570679e-001
1.051886e+003,-4.577271e+000
1.052850e+003,-3.202621e+000
1.053814e+003,4.376373e-001
1.054779e+003,2.413742e+000
1.055743e+003,1.854401e+000
1.056707e+003,2.540588e-001
1.057671e+003,-6.131439e-001
1.058636e+003,-7.594452e-001
1.059600e+003,-8.958588e-001
1.060564e+003,-1.229019e+000
1.061528e+003,-1.051102e+000
1.062493e+003,-1.022339e-001
1.063457e+003,1.137848e+000
1.064421e+003,2.381729e+000
1.065385e+003,3.604553e+000
1.066349e+003,4.267624e+000
1.067314e+003,3.695221e+000
1.068278e+003,2.941147e+000
1.069242e+003,2.869080e+000
1.070206e+003,3.146042e+000
1.071171e+003,3.215820e+000
1.072135e+003,2.789658e+000
1.073099e+003,1.859955e+000
1.074063e+003,4.055634e-001
1.075028e+003,-1.672409e+000
1.075992e+003,-2.182404e+000
1.076956e+003,-3.000336e-001
1.077920e+003,1.326447e+000
1.078885e+003,1.595261e+000
1.079849e+003,1.145462e+000
1.080813e+003,1.215759e+000
1.081777e+003,2.150726e+000
1.082741e+003,2.672913e+000
1.083706e+003,8.655853e-001
1.084670e+003,-5.868073e-001
1.085634e+003,6.363831e-001
1.086598e+003,3.256226e+000
1.087563e+003,4.470688e+000
1.088527e+003,2.858292e+000
1.089491e+003,9.439087e-002
1.090455e+003,-5.570831e-001
1.091420e+003,1.133179e+000
1.092384e+003,1.440948e+000
1.093348e+003,-7.942200e-001
1.094312e+003,-2.415771e+000
1.095276e+003,-6.730194e-001
1.096241e+003,3.161133e+000
1.097205e+003,4.866638e+000
1.098169e+003,3.222275e+000
1.099133e+003,1.390152e+000
1.100098e+003,2.546387e-001
1.101062e+003,-3.285828e-001
1.102026e+003,-3.317261e-001
1.102990e+003,1.533203e-001
1.103955e+003,1.136017e+000
1.104919e+003,2.584061e+000
1.105883e+003,3.959381e+000
1.106847e+003,4.126358e+000
1.107812e+003,3.008865e+000
1.108776e+003,1.541428e+000
1.109740e+003,-5.371857e-001
1.110704e+003,-2.349167e+000
1.111668e+003,-3.246338e+000
1.112633e+003,-3.264877e+000
1.113597e+003,-2.654236e+000
1.114561e+003,-1.118607e+000
1.115525e+003,1.419983e-001
1.116490e+003,6.802826e-001
1.117454e+003,9.189911e-001
1.118418e+003,1.288986e+000
1.119382e+003,1.679764e+000
1.120347e+003,1.491821e+000
1.121311e+003,2.978821e-001
1.122275e+003,-1.287720e+000
1.123239e+003,-1.720139e+000
1.124203e+003,-9.869080e-001
1.125168e+003,-4.957886e-001
1.126132e+003,-3.570251e-001
1.127096e+003,-3.644562e-001
1.128060e+003,-6.451874e-001
1.129025e+003,-1.056274e+000
1.129989e+003,-6.119080e-001
1.130953e+003,1.441513e+000
1.131917e+003,2.656998e+000
1.132882e+003,1.780579e+000
1.133846e+003,6.585999e-001
1.134810e+003,3.605042e-001
1.135774e+003,7.918243e-001
1.136739e+003,1.281693e+000
1.137703e+003,1.453262e+000
1.138667e+003,1.800888e+000
1.139631e+003,3.495575e+000
1.140595e+003,6.257141e+000
1.141560e+003,7.649048e+000
1.142524e+003,7.140961e+000
1.143488e+003,7.005142e+000
1.144452e+003,9.180130e+000
1.145417e+003,1.293878e+001
1.146381e+003,1.541753e+001
1.147345e+003,1.563985e+001
1.148309e+003,1.696530e+001
1.149274e+003,2.106015e+001
1.150238e+003,2.558113e+001
1.151202e+003,2.967856e+001
1.152166e+003,3.328981e+001
1.153130e+003,3.677583e+001
1.154095e+003,4.015627e+001
1.155059e+003,4.247714e+001
1.156023e+003,4.235236e+001
1.156987e+003,3.997823e+001
1.157952e+003,3.742844e+001
1.158916e+003,3.483116e+001
1.159880e+003,3.218661e+001
1.160844e+003,2.924203e+001
1.161809e+003,2.606439e+001
1.162773e+003,2.291693e+001
1.163737e+003,1.965465e+001
1.164701e+003,1.714458e+001
1.165666e+003,1.643692e+001
1.166630e+003,1.577069e+001
1.167594e+003,1.458386e+001
1.168558e+003,1.298495e+001
1.169522e+003,1.090085e+001
1.170487e+003,8.520309e+000
1.171451e+003,6.830017e+000
1.172415e+003,7.117218e+000
1.173379e+003,8.765884e+000
1.174344e+003,8.365021e+000
1.175308e+003,5.849106e+000
1.176272e+003,3.770355e+000
1.177236e+003,2.899689e+000
1.178201e+003,2.944870e+000
1.179165e+003,3.846588e+000
1.180129e+003,5.574783e+000
1.181093e+003,6.390701e+000
1.182057e+003,5.628372e+000
1.183022e+003,4.386887e+000
1.183986e+003,2.353714e+000
1.184950e+003,6.134033e-001
1.185914e+003,5.195313e-001
1.186879e+003,1.904831e+000
1.187843e+003,3.342865e+000
1.188807e+003,3.647324e+000
1.189771e+003,3.196762e+000
1.190736e+003,3.318604e+000
1.191700e+003,4.142563e+000
1.192664e+003,3.894440e+000
1.193628e+003,1.173309e+000
1.194593e+003,-9.262695e-001
1.195557e+003,9.709167e-001
1.196521e+003,5.316040e+000
1.197485e+003,6.152252e+000
1.198449e+003,1.256363e+000
1.199414e+003,-2.838242e+000
1.200378e+003,-2.630661e+000
1.201342e+003,-1.152664e+000
1.202306e+003,4.472961e-001
1.203271e+003,1.654633e+000
1.204235e+003,1.811584e+000
1.205199e+003,7.304382e-001
1.206163e+003,-5.906067e-001
1.207128e+003,-3.953552e-001
1.208092e+003,1.453293e+000
1.209056e+003,1.616486e+000
1.210020e+003,-3.994904e-001
1.210984e+003,-2.717209e+000
1.211949e+003,-5.145538e+000
1.212913e+003,-7.422501e+000
1.213877e+003,-9.415604e+000
1.214841e+003,-1.105124e+001
1.215806e+003,-1.130887e+001
1.216770e+003,-8.757874e+000
1.217734e+003,-6.402206e+000
1.218698e+003,-6.428925e+000
1.219663e+003,-7.763306e+000
1.220627e+003,-9.353195e+000
1.221591e+003,-1.079849e+001
1.222555e+003,-1.195557e+001
1.223520e+003,-1.268474e+001
1.224484e+003,-1.290953e+001
1.225448e+003,-1.238237e+001
1.226412e+003,-1.030098e+001
1.227376e+003,-9.386948e+000
1.228341e+003,-1.056371e+001
1.229305e+003,-1.187337e+001
1.230269e+003,-1.216629e+001
1.231233e+003,-1.187131e+001
1.232198e+003,-1.202925e+001
1.233162e+003,-1.291202e+001
1.234126e+003,-1.350446e+001
1.235090e+003,-1.294083e+001
1.236055e+003,-1.193459e+001
1.237019e+003,-1.095148e+001
1.237983e+003,-1.021681e+001
1.238947e+003,-1.036603e+001
1.239911e+003,-1.161005e+001
1.240876e+003,-1.294006e+001
1.241840e+003,-1.271907e+001
1.242804e+003,-1.077817e+001
1.243768e+003,-1.030138e+001
1.244733e+003,-1.374606e+001
1.245697e+003,-1.534297e+001
1.246661e+003,-1.293114e+001
1.247625e+003,-1.022099e+001
1.248590e+003,-1.046819e+001
1.249554e+003,-1.282098e+001
1.250518e+003,-1.389133e+001
1.251482e+003,-1.210315e+001
1.252447e+003,-9.655609e+000
1.253411e+003,-9.088745e+000
1.254375e+003,-9.697037e+000
1.255339e+003,-1.003496e+001
1.256303e+003,-1.001396e+001
1.257268e+003,-1.005292e+001
1.258232e+003,-1.049481e+001
1.259196e+003,-1.115460e+001
1.260160e+003,-1.159979e+001
1.261125e+003,-1.178717e+001
1.262089e+003,-1.162357e+001
1.263053e+003,-1.119991e+001
1.264017e+003,-1.037660e+001
1.264982e+003,-8.578400e+000
1.265946e+003,-6.714661e+000
1.266910e+003,-5.473923e+000
1.267874e+003,-5.015686e+000
1.268839e+003,-5.409348e+000
1.269803e+003,-6.718933e+000
1.270767e+003,-8.291443e+000
1.271731e+003,-8.722961e+000
1.272695e+003,-8.037628e+000
1.273660e+003,-8.176926e+000
1.274624e+003,-9.736816e+000
1.275588e+003,-1.093912e+001
1.276552e+003,-1.038142e+001
1.277517e+003,-8.913254e+000
1.278481e+003,-8.214798e+000
1.279445e+003,-8.439621e+000
1.280409e+003,-8.795868e+000
1.281374e+003,-9.031860e+000
1.282338e+003,-9.345520e+000
1.283302e+003,-1.014435e+001
1.284266e+003,-1.090341e+001
1.285230e+003,-1.102147e+001
1.286195e+003,-1.044031e+001
1.287159e+003,-9.341995e+000
1.288123e+003,-7.842331e+000
1.289087e+003,-6.292511e+000
1.290052e+003,-5.928299e+000
1.291016e+003,-7.185516e+000
1.291980e+003,-8.374619e+000
1.292944e+003,-9.968536e+000
1.293909e+003,-1.102744e+001
1.294873e+003,-1.069980e+001
1.295837e+003,-9.795990e+000
1.296801e+003,-9.492401e+000
1.297766e+003,-9.917389e+000
1.298730e+003,-1.035701e+001
1.299694e+003,-1.053441e+001
1.300658e+003,-1.050983e+001
1.301622e+003,-1.021738e+001
1.302587e+003,-9.780579e+000
1.303551e+003,-9.420944e+000
1.304515e+003,-9.153091e+000
1.305479e+003,-8.869949e+000
1.306444e+003,-8.508438e+000
1.307408e+003,-8.139221e+000
1.308372e+003,-7.861115e+000
1.309336e+003,-7.548828e+000
1.310301e+003,-7.753860e+000
1.311265e+003,-9.294479e+000
1.312229e+003,-1.028448e+001
1.313193e+003,-9.561707e+000
1.314157e+003,-8.448013e+000
1.315122e+003,-8.598816e+000
1.316086e+003,-9.958694e+000
1.317050e+003,-1.107843e+001
1.318014e+003,-1.099301e+001
1.318979e+003,-9.976440e+000
1.319943e+003,-8.069092e+000
1.320907e+003,-5.557785e+000
1.321871e+003,-5.230667e+000
1.322836e+003,-8.039505e+000
1.323800e+003,-1.032904e+001
1.324764e+003,-9.414108e+000
1.325728e+003,-7.135376e+000
1.326693e+003,-6.826447e+000
1.327657e+003,-8.648804e+000
1.328621e+003,-1.022461e+001
1.329585e+003,-1.086290e+001
1.330549e+003,-1.089270e+001
1.331514e+003,-1.055556e+001
1.332478e+003,-1.003886e+001
1.333442e+003,-9.279831e+000
1.334406e+003,-8.420517e+000
1.335371e+003,-7.971878e+000
1.336335e+003,-8.215042e+000
1.337299e+003,-8.557648e+000
1.338263e+003,-7.806061e+000
1.339228e+003,-5.704056e+000
1.340192e+003,-4.918457e+000
1.341156e+003,-6.274384e+000
1.342120e+003,-7.632370e+000
1.343084e+003,-8.995010e+000
1.344049e+003,-1.010385e+001
1.345013e+003,-1.050818e+001
1.345977e+003,-1.038972e+001
1.346941e+003,-1.055878e+001
1.347906e+003,-1.136208e+001
1.348870e+003,-1.170539e+001
1.349834e+003,-1.031287e+001
1.350798e+003,-8.020844e+000
1.351763e+003,-6.106781e+000
1.352727e+003,-4.655731e+000
1.353691e+003,-4.351746e+000
1.354655e+003,-5.719391e+000
1.355620e+003,-7.292542e+000
1.356584e+003,-7.112198e+000
1.357548e+003,-5.404709e+000
1.358512e+003,-4.469788e+000
1.359476e+003,-4.774216e+000
1.360441e+003,-5.056747e+000
1.361405e+003,-4.581512e+000
1.362369e+003,-4.382523e+000
1.363333e+003,-5.113724e+000
1.364298e+003,-6.369110e+000
1.365262e+003,-7.651917e+000
1.366226e+003,-8.756012e+000
1.367190e+003,-9.770340e+000
1.368155e+003,-1.080694e+001
1.369119e+003,-1.140238e+001
1.370083e+003,-9.936783e+000
1.371047e+003,-5.532059e+000
1.372011e+003,-2.646805e+000
1.372976e+003,-1.983337e+000
1.373940e+003,-1.965622e+000
1.374904e+003,-2.194382e+000
1.375868e+003,-2.580032e+000
1.376833e+003,-3.105438e+000
1.377797e+003,-3.749069e+000
1.378761e+003,-4.314804e+000
1.379725e+003,-4.634460e+000
1.380690e+003,-5.067276e+000
1.381654e+003,-6.444107e+000
1.382618e+003,-7.897400e+000
1.383582e+003,-7.805954e+000
1.384547e+003,-6.383942e+000
1.385511e+003,-5.844971e+000
1.386475e+003,-7.554184e+000
1.387439e+003,-9.880028e+000
1.388403e+003,-1.009386e+001
1.389368e+003,-8.210632e+000
1.390332e+003,-7.125977e+000
1.391296e+003,-7.258987e+000
1.392260e+003,-7.422318e+000
1.393225e+003,-7.220261e+000
1.394189e+003,-7.130508e+000
1.395153e+003,-7.544235e+000
1.396117e+003,-8.194427e+000
1.397082e+003,-8.757309e+000
1.398046e+003,-9.047424e+000
1.399010e+003,-8.898026e+000
1.399974e+003,-8.184372e+000
1.400938e+003,-7.094025e+000
1.401903e+003,-5.946167e+000
1.402867e+003,-4.382431e+000
1.403831e+003,-3.717377e+000
1.404795e+003,-5.082214e+000
1.405760e+003,-5.953766e+000
1.406724e+003,-5.108612e+000
1.407688e+003,-3.793671e+000
1.408652e+003,-3.360947e+000
1.409617e+003,-3.733749e+000
1.410581e+003,-4.102631e+000
1.411545e+003,-4.175568e+000
1.412509e+003,-4.047363e+000
1.413474e+003,-3.638733e+000
1.414438e+003,-3.316422e+000
1.415402e+003,-3.705673e+000
1.416366e+003,-4.616608e+000
1.417330e+003,-5.214828e+000
1.418295e+003,-5.176880e+000
1.419259e+003,-4.714569e+000
1.420223e+003,-3.950043e+000
1.421187e+003,-3.003372e+000
1.422152e+003,-2.303162e+000
1.423116e+003,-1.660294e+000
1.424080e+003,-1.669922e+000
1.425044e+003,-3.414719e+000
1.426009e+003,-5.002655e+000
1.426973e+003,-6.048462e+000
1.427937e+003,-6.264343e+000
1.428901e+003,-4.729385e+000
1.429865e+003,-1.925385e+000
1.430830e+003,1.114655e-001
1.431794e+003,2.755737e-002
1.432758e+003,-1.095947e+000
1.433722e+003,-9.400024e-001
1.434687e+003,8.306427e-001
1.435651e+003,8.150330e-001
1.436615e+003,-3.484283e+000
1.437579e+003,-6.293488e+000
1.438544e+003,-6.523315e+000
1.439508e+003,-5.656418e+000
1.440472e+003,-4.165985e+000
1.441436e+003,-2.416000e+000
1.442401e+003,-7.236633e-001
1.443365e+003,7.240143e-001
1.444329e+003,1.278976e+000
1.445293e+003,3.257141e-001
1.446257e+003,-1.335037e+000
1.447222e+003,-2.457367e+000
1.448186e+003,-3.024734e+000
1.449150e+003,-2.567551e+000
1.450114e+003,-7.158203e-001
1.451079e+003,7.261963e-001
1.452043e+003,8.112640e-001
1.453007e+003,8.947754e-002
1.453971e+003,-1.221756e+000
1.454936e+003,-2.907120e+000
1.455900e+003,-2.994202e+000
1.456864e+003,-3.957825e-001
1.457828e+003,1.551025e+000
1.458792e+003,-1.242981e-001
1.459757e+003,-2.396332e+000
1.460721e+003,-2.881470e+000
1.461685e+003,-2.031326e+000
1.462649e+003,-6.523895e-001
1.463614e+003,9.161835e-001
1.464578e+003,1.869171e+000
1.465542e+003,1.389038e+000
1.466506e+003,-1.192932e-001
1.467471e+003,-1.406937e+000
1.468435e+003,-2.344193e+000
1.469399e+003,-3.366028e+000
1.470363e+003,-5.396805e+000
1.471328e+003,-6.321457e+000
1.472292e+003,-4.954971e+000
1.473256e+003,-3.185059e+000
1.474220e+003,-2.064682e+000
1.475184e+003,-1.561523e+000
1.476149e+003,-1.364120e+000
1.477113e+003,-1.396210e+000
1.478077e+003,-1.907196e+000
1.479041e+003,-3.134598e+000
1.480006e+003,-4.482590e+000
1.480970e+003,-3.979156e+000
1.481934e+003,-9.126587e-001
1.482898e+003,6.458893e-001
1.483863e+003,-5.188751e-001
1.484827e+003,-1.342819e+000
1.485791e+003,-8.171082e-001
1.486755e+003,3.101501e-001
1.487719e+003,1.854858e+000
1.488684e+003,3.248413e+000
1.489648e+003,2.975723e+000
1.490612e+003,6.714325e-001
1.491576e+003,-1.214355e+000
1.492541e+003,-5.805206e-001
1.493505e+003,1.476944e+000
1.494469e+003,2.739059e+000
1.495433e+003,3.244171e+000
1.496398e+003,3.518158e+000
1.497362e+003,3.641907e+000
1.498326e+003,3.829132e+000
1.499290e+003,4.026657e+000
1.500255e+003,4.441299e+000
1.501219e+003,5.498413e+000
1.502183e+003,7.045502e+000
1.503147e+003,8.114258e+000
1.504111e+003,8.262009e+000
1.505076e+003,9.163269e+000
1.506040e+003,1.240062e+001
1.507004e+003,1.622340e+001
1.507968e+003,1.877237e+001
1.508933e+003,2.058871e+001
1.509897e+003,2.274474e+001
1.510861e+003,2.556190e+001
1.511825e+003,2.897389e+001
1.512790e+003,3.304907e+001
1.513754e+003,3.724843e+001
1.514718e+003,4.058984e+001
1.515682e+003,4.302219e+001
1.516646e+003,4.540092e+001
1.517611e+003,4.796783e+001
1.518575e+003,5.026836e+001
1.519539e+003,5.203023e+001
1.520503e+003,5.375044e+001
1.521468e+003,5.636581e+001
1.522432e+003,5.867134e+001
1.523396e+003,5.870148e+001
1.524360e+003,5.653488e+001
1.525325e+003,5.407904e+001
1.526289e+003,5.262395e+001
1.527253e+003,5.170448e+001
1.528217e+003,5.059941e+001
1.529182e+003,4.937546e+001
1.530146e+003,4.642726e+001
1.531110e+003,4.041545e+001
1.532074e+003,3.503891e+001
1.533039e+003,3.046130e+001
1.534003e+003,2.635721e+001
1.534967e+003,2.297246e+001
1.535931e+003,1.996562e+001
1.536896e+003,1.665514e+001
1.537860e+003,1.332187e+001
1.538824e+003,1.121866e+001
1.539788e+003,1.085968e+001
1.540752e+003,1.075275e+001
1.541717e+003,8.899963e+000
1.542681e+003,5.820404e+000
1.543645e+003,4.661728e+000
1.544609e+003,6.846664e+000
1.545573e+003,7.484222e+000
1.546538e+003,4.922836e+000
1.547502e+003,2.838287e+000
1.548466e+003,2.974060e+000
1.549430e+003,4.047180e+000
1.550395e+003,4.711533e+000
1.551359e+003,4.989517e+000
1.552323e+003,5.751312e+000
1.553287e+003,7.232346e+000
1.554252e+003,8.198303e+000
1.555216e+003,7.514160e+000
1.556180e+003,5.683807e+000
1.557144e+003,3.627289e+000
1.558109e+003,1.378036e+000
1.559073e+003,2.158966e-001
1.560037e+003,5.621643e-001
1.561001e+003,9.422607e-001
1.561966e+003,1.076752e+000
1.562930e+003,1.039841e+000
1.563894e+003,7.275848e-001
1.564858e+003,2.539063e-001
1.565823e+003,-1.667175e-001
1.566787e+003,-4.729004e-001
1.567751e+003,-3.949585e-001
1.568715e+003,2.542877e-001
1.569679e+003,1.359665e+000
1.570644e+003,3.203476e+000
1.571608e+003,5.172974e+000
1.572572e+003,5.473541e+000
1.573536e+003,4.054031e+000
1.574500e+003,3.004715e+000
1.575465e+003,3.052277e+000
1.576429e+003,3.532867e+000
1.577393e+003,4.051041e+000
1.578357e+003,4.531219e+000
1.579322e+003,4.955627e+000
1.580286e+003,5.312897e+000
1.581250e+003,5.127365e+000
1.582214e+003,3.966354e+000
1.583179e+003,3.341293e+000
1.584143e+003,4.843292e+000
1.585107e+003,6.993668e+000
1.586071e+003,8.041702e+000
1.587036e+003,8.201294e+000
1.588000e+003,7.836548e+000
1.588964e+003,6.955551e+000
1.589928e+003,5.787094e+000
1.590893e+003,3.982819e+000
1.591857e+003,2.488556e+000
1.592821e+003,3.257095e+000
1.593785e+003,5.794632e+000
1.594750e+003,7.032394e+000
1.595714e+003,6.391678e+000
1.596678e+003,5.572220e+000
1.597642e+003,5.024490e+000
1.598606e+003,4.862411e+000
1.599571e+003,5.290421e+000
1.600535e+003,6.092941e+000
1.601499e+003,7.082230e+000
1.602463e+003,8.164154e+000
1.603427e+003,9.086456e+000
1.604392e+003,9.734161e+000
1.605356e+003,1.038971e+001
1.606320e+003,1.168658e+001
1.607284e+003,1.311366e+001
1.608249e+003,1.293063e+001
1.609213e+003,1.106790e+001
1.610177e+003,9.767838e+000
1.611141e+003,9.408356e+000
1.612106e+003,9.613037e+000
1.613070e+003,1.102711e+001
1.614034e+003,1.216112e+001
1.614998e+003,1.157791e+001
1.615963e+003,1.011084e+001
1.616927e+003,9.142670e+000
1.617891e+003,8.889099e+000
1.618855e+003,8.915604e+000
1.619820e+003,8.994690e+000
1.620784e+003,8.886429e+000
1.621748e+003,7.907135e+000
1.622712e+003,6.509720e+000
1.623677e+003,7.416916e+000
1.624641e+003,1.125052e+001
1.625605e+003,1.383846e+001
1.626569e+003,1.365245e+001
1.627533e+003,1.279555e+001
1.628498e+003,1.188947e+001
1.629462e+003,1.129643e+001
1.630426e+003,1.166020e+001
1.631390e+003,1.246170e+001
1.632354e+003,1.247304e+001
1.633319e+003,1.147116e+001
1.634283e+003,1.049084e+001
1.635247e+003,1.026410e+001
1.636211e+003,1.055093e+001
1.637176e+003,1.104378e+001
1.638140e+003,1.175294e+001
1.639104e+003,1.243158e+001
1.640068e+003,1.311716e+001
1.641033e+003,1.347730e+001
1.641997e+003,1.342535e+001
1.642961e+003,1.309471e+001
1.643925e+003,1.210847e+001
1.644890e+003,1.123964e+001
1.645854e+003,1.158437e+001
1.646818e+003,1.263042e+001
1.647782e+003,1.281498e+001
1.648747e+003,1.172014e+001
1.649711e+003,1.074844e+001
1.650675e+003,1.122097e+001
1.651639e+003,1.232596e+001
1.652604e+003,1.210306e+001
1.653568e+003,1.058797e+001
1.654532e+003,9.924667e+000
1.655496e+003,1.046803e+001
1.656460e+003,1.100826e+001
1.657425e+003,1.155979e+001
1.658389e+003,1.159392e+001
1.659353e+003,1.021040e+001
1.660317e+003,8.659660e+000
1.661281e+003,8.207733e+000
1.662246e+003,8.782532e+000
1.663210e+003,1.024481e+001
1.664174e+003,1.246239e+001
1.665138e+003,1.347188e+001
1.666103e+003,1.117458e+001
1.667067e+003,7.246422e+000
1.668031e+003,4.890152e+000
1.668995e+003,4.093185e+000
1.669960e+003,4.649864e+000
1.670924e+003,7.174576e+000
1.671888e+003,8.386978e+000
1.672852e+003,6.082695e+000
1.673817e+003,3.890694e+000
1.674781e+003,4.476440e+000
1.675745e+003,6.076950e+000
1.676709e+003,7.002312e+000
1.677674e+003,7.182343e+000
1.678638e+003,6.809647e+000
1.679602e+003,5.958900e+000
1.680566e+003,5.490242e+000
1.681531e+003,6.413788e+000
1.682495e+003,7.734619e+000
1.683459e+003,7.577538e+000
1.684423e+003,6.130676e+000
1.685387e+003,4.685577e+000
1.686352e+003,3.283134e+000
1.687316e+003,2.735649e+000
1.688280e+003,3.804733e+000
1.689244e+003,4.824516e+000
1.690208e+003,3.789818e+000
1.691173e+003,2.561371e+000
1.692137e+003,3.664993e+000
1.693101e+003,6.428490e+000
1.694065e+003,8.423309e+000
1.695030e+003,9.011780e+000
1.695994e+003,8.603874e+000
1.696958e+003,6.975945e+000
1.697922e+003,5.132797e+000
1.698887e+003,4.338997e+000
1.699851e+003,4.361671e+000
1.700815e+003,4.486389e+000
1.701779e+003,4.616806e+000
1.702744e+003,4.804329e+000
1.703708e+003,5.159035e+000
1.704672e+003,5.493958e+000
1.705636e+003,5.600624e+000
1.706601e+003,5.500694e+000
1.707565e+003,5.441040e+000
1.708529e+003,5.345779e+000
1.709493e+003,4.704674e+000
1.710458e+003,3.379822e+000
1.711422e+003,2.174995e+000
1.712386e+003,1.449165e+000
1.713350e+003,1.018051e+000
1.714314e+003,6.216965e-001
1.715279e+003,3.669510e-001
1.716243e+003,4.963684e-001
1.717207e+003,1.006317e+000
1.718171e+003,2.019722e+000
1.719135e+003,3.581383e+000
1.720100e+003,4.178787e+000
1.721064e+003,2.486572e+000
1.722028e+003,1.603851e-001
1.722992e+003,-2.210388e-001
1.723957e+003,9.658127e-001
1.724921e+003,1.039215e+000
1.725885e+003,-3.783340e-001
1.726849e+003,-1.107582e+000
1.727814e+003,1.138916e-001
1.728778e+003,1.049400e+000
1.729742e+003,2.148132e-001
1.730706e+003,-9.039001e-001
1.731671e+003,-8.071213e-001
1.732635e+003,2.588654e-002
1.733599e+003,5.960388e-001
1.734563e+003,7.348328e-001
1.735528e+003,6.039658e-001
1.736492e+003,2.650909e-001
1.737456e+003,-9.378052e-002
1.738420e+003,-2.740936e-001
1.739385e+003,-2.774200e-001
1.740349e+003,9.292603e-002
1.741313e+003,9.812393e-001
1.742277e+003,1.737915e+000
1.743241e+003,3.083519e+000
1.744206e+003,3.305832e+000
1.745170e+003,8.722229e-001
1.746134e+003,-1.281883e+000
1.747098e+003,-1.257774e+000
1.748063e+003,-3.068161e-001
1.749027e+003,1.092529e-002
1.749991e+003,-1.621399e-001
1.750955e+003,4.470978e-001
1.751919e+003,2.038803e+000
1.752884e+003,2.937683e+000
1.753848e+003,1.729485e+000
1.754812e+003,-3.623199e-001
1.755776e+003,-7.167892e-001
1.756741e+003,6.351395e-001
1.757705e+003,8.273621e-001
1.758669e+003,-6.883163e-001
1.759633e+003,-1.910637e+000
1.760598e+003,-2.895798e+000
1.761562e+003,-3.261917e+000
1.762526e+003,-2.375237e+000
1.763490e+003,-1.280083e+000
1.764455e+003,-6.588516e-001
1.765419e+003,-3.293228e-001
1.766383e+003,1.232910e-002
1.767347e+003,3.983459e-001
1.768312e+003,7.974167e-001
1.769276e+003,1.183525e+000
1.770240e+003,1.394516e+000
1.771204e+003,1.498268e+000
1.772168e+003,1.264015e+000
1.773133e+003,-4.955444e-001
1.774097e+003,-3.495850e+000
1.775061e+003,-4.530464e+000
1.776025e+003,-3.052856e+000
1.776990e+003,-1.889221e+000
1.777954e+003,-2.121925e+000
1.778918e+003,-2.327820e+000
1.779882e+003,-1.206505e+000
1.780846e+003,1.860733e-001
1.781811e+003,2.673492e-001
1.782775e+003,-5.057144e-001
1.783739e+003,-5.214386e-001
1.784703e+003,5.618439e-001
1.785668e+003,1.237495e+000
1.786632e+003,4.121704e-001
1.787596e+003,-5.174255e-001
1.788560e+003,-3.273163e-001
1.789525e+003,3.855743e-001
1.790489e+003,8.469315e-001
1.791453e+003,9.576569e-001
1.792417e+003,7.244110e-001
1.793382e+003,1.664047e-001
1.794346e+003,-7.628174e-001
1.795310e+003,-2.159714e+000
1.796274e+003,-3.125603e+000
1.797239e+003,-2.373100e+000
1.798203e+003,-7.302246e-001
1.799167e+003,-1.311653e+000
1.800131e+003,-4.928947e+000
1.801095e+003,-6.093193e+000
1.802060e+003,-2.810120e+000
1.803024e+003,-2.886276e-001
1.803988e+003,8.610535e-001
1.804952e+003,1.216080e+000
1.805917e+003,5.189209e-001
1.806881e+003,-3.959427e-001
1.807845e+003,-8.082962e-001
1.808809e+003,-7.184219e-001
1.809773e+003,-1.195755e-001
1.810738e+003,7.486343e-001
1.811702e+003,9.160080e-001
1.812666e+003,-1.964264e-001
1.813630e+003,-1.367256e+000
1.814595e+003,-7.651596e-001
1.815559e+003,8.932724e-001
1.816523e+003,4.185867e-001
1.817487e+003,-2.476196e+000
1.818452e+003,-4.081070e+000
1.819416e+003,-4.047226e+000
1.820380e+003,-2.994865e+000
1.821344e+003,-1.515961e-001
1.822309e+003,2.218758e+000
1.823273e+003,2.470139e+000
1.824237e+003,1.973763e+000
1.825201e+003,2.133751e+000
1.826166e+003,2.644966e+000
1.827130e+003,2.369896e+000
1.828094e+003,1.129463e+000
1.829058e+003,3.917999e-001
1.830022e+003,1.212509e+000
1.830987e+003,2.067497e+000
1.831951e+003,1.350548e+000
1.832915e+003,1.547699e-001
1.833879e+003,3.177567e-001
1.834844e+003,1.350784e+000
1.835808e+003,1.436813e+000
1.836772e+003,4.054871e-001
1.837736e+003,-3.550186e-001
1.838700e+003,-2.561264e-001
1.839665e+003,-1.321869e-001
1.840629e+003,-7.875748e-001
1.841593e+003,-1.675690e+000
1.842557e+003,-1.610802e+000
1.843522e+003,-6.148453e-001
1.844486e+003,-1.468735e-001
1.845450e+003,-5.847855e-001
1.846414e+003,-6.813126e-001
1.847379e+003,-6.773148e-001
1.848343e+003,-1.894684e-001
1.849307e+003,1.750931e+000
1.850271e+003,3.388054e+000
1.851236e+003,3.257904e+000
1.852200e+003,2.232384e+000
1.853164e+003,1.407913e+000
1.854128e+003,9.182281e-001
1.855093e+003,5.259323e-001
1.856057e+003,1.844330e-001
1.857021e+003,-4.676819e-002
1.857985e+003,-1.886063e-001
1.858949e+003,-5.305481e-002
1.859914e+003,1.116661e+000
1.860878e+003,2.953056e+000
1.861842e+003,3.019127e+000
1.862806e+003,1.232925e+000
1.863771e+003,-3.253174e-002
1.864735e+003,-3.845596e-001
1.865699e+003,-3.693848e-001
1.866663e+003,-1.749115e-001
1.867627e+003,3.403015e-001
1.868592e+003,1.591301e+000
1.869556e+003,2.956223e+000
1.870520e+003,3.318375e+000
1.871484e+003,2.791245e+000
1.872449e+003,2.134132e+000
1.873413e+003,1.534752e+000
1.874377e+003,1.011787e+000
1.875341e+003,-1.551971e-001
1.876306e+003,-5.974960e-001
1.877270e+003,1.391724e+000
1.878234e+003,3.532349e+000
1.879198e+003,3.287437e+000
1.880163e+003,1.609924e+000
1.881127e+003,2.784271e-001
1.882091e+003,-2.885971e-001
1.883055e+003,-1.106262e-001
1.884020e+003,6.858673e-001
1.884984e+003,1.350334e+000
1.885948e+003,1.192146e+000
1.886912e+003,6.363068e-001
1.887876e+003,5.310822e-001
1.888841e+003,8.528519e-001
1.889805e+003,1.318489e+000
1.890769e+003,2.050140e+000
1.891733e+003,2.196762e+000
1.892698e+003,1.272125e+000
1.893662e+003,6.444626e-001
1.894626e+003,9.088821e-001
1.895590e+003,1.473343e+000
1.896554e+003,2.087555e+000
1.897519e+003,2.717369e+000
1.898483e+003,3.244293e+000
1.899447e+003,3.659241e+000
1.900411e+003,4.224579e+000
1.901376e+003,5.041603e+000
1.902340e+003,5.284508e+000
1.903304e+003,4.302292e+000
1.904268e+003,3.188889e+000
1.905233e+003,2.263695e+000
1.906197e+003,1.895233e+000
1.907161e+003,3.291359e+000
1.908125e+003,5.125061e+000
1.909090e+003,4.555504e+000
1.910054e+003,1.936295e+000
1.911018e+003,-1.823807e-001
1.911982e+003,-7.964554e-001
1.912947e+003,2.933502e-002
1.913911e+003,2.234291e+000
1.914875e+003,4.604042e+000
1.915839e+003,5.173515e+000
1.916803e+003,4.260147e+000
1.917768e+003,3.659378e+000
1.918732e+003,3.429214e+000
1.919696e+003,3.424240e+000
1.920660e+003,3.827217e+000
1.921625e+003,4.002136e+000
1.922589e+003,3.542694e+000
1.923553e+003,3.190628e+000
1.924517e+003,3.493164e+000
1.925481e+003,3.949196e+000
1.926446e+003,4.163521e+000
1.927410e+003,4.201569e+000
1.928374e+003,4.218666e+000
1.929338e+003,4.179062e+000
1.930303e+003,3.873695e+000
1.931267e+003,3.222893e+000
1.932231e+003,2.677711e+000
1.933195e+003,1.959724e+000
1.934160e+003,1.850029e+000
1.935124e+003,3.482735e+000
1.936088e+003,5.555588e+000
1.937052e+003,6.694130e+000
1.938017e+003,6.973831e+000
1.938981e+003,6.572334e+000
1.939945e+003,5.779488e+000
1.940909e+003,5.406647e+000
1.941874e+003,5.766548e+000
1.942838e+003,6.174355e+000
1.943802e+003,6.029633e+000
1.944766e+003,5.714066e+000
1.945730e+003,5.994354e+000
1.946695e+003,6.676613e+000
1.947659e+003,6.120689e+000
1.948623e+003,4.042313e+000
1.949587e+003,4.183105e+000
1.950552e+003,7.852539e+000
1.951516e+003,1.001897e+001
1.952480e+003,8.473000e+000
1.953444e+003,6.193756e+000
1.954408e+003,4.947517e+000
1.955373e+003,4.332230e+000
1.956337e+003,4.037498e+000
1.957301e+003,4.002983e+000
1.958265e+003,3.542511e+000
1.959230e+003,2.431824e+000
1.960194e+003,2.830734e+000
1.961158e+003,7.060944e+000
1.962122e+003,9.531052e+000
1.963087e+003,7.718475e+000
1.964051e+003,5.137337e+000
1.965015e+003,3.059334e+000
1.965979e+003,1.942429e+000
1.966944e+003,2.642891e+000
1.967908e+003,4.192795e+000
1.968872e+003,4.804787e+000
1.969836e+003,4.458992e+000
1.970801e+003,4.710899e+000
1.971765e+003,6.157997e+000
1.972729e+003,7.237877e+000
1.973693e+003,6.449379e+000
1.974657e+003,5.105293e+000
1.975622e+003,5.153511e+000
1.976586e+003,6.161476e+000
1.977550e+003,7.307617e+000
1.978514e+003,8.425247e+000
1.979479e+003,8.553421e+000
1.980443e+003,7.595985e+000
1.981407e+003,6.503937e+000
1.982371e+003,5.612755e+000
1.983335e+003,5.460594e+000
1.984300e+003,6.557434e+000
1.985264e+003,7.896057e+000
1.986228e+003,7.922699e+000
1.987192e+003,6.906128e+000
1.988157e+003,6.241829e+000
1.989121e+003,6.002525e+000
1.990085e+003,5.892525e+000
1.991049e+003,6.214699e+000
1.992014e+003,6.111069e+000
1.992978e+003,4.610214e+000
1.993942e+003,3.805099e+000
1.994906e+003,4.921867e+000
1.995871e+003,6.450089e+000
1.996835e+003,7.451225e+000
1.997799e+003,8.098351e+000
1.998763e+003,8.893845e+000
1.999728e+003,9.608788e+000
