5.003444e+002,3.971529e+001
5.013087e+002,3.867191e+001
5.022729e+002,3.709038e+001
5.032371e+002,3.533385e+001
5.042014e+002,3.414453e+001
5.051656e+002,3.346510e+001
5.061298e+002,3.283441e+001
5.070941e+002,3.173259e+001
5.080583e+002,2.980827e+001
5.090225e+002,2.920081e+001
5.099868e+002,3.093373e+001
5.109510e+002,3.247311e+001
5.119152e+002,3.236133e+001
5.128795e+002,3.044191e+001
5.138437e+002,2.868813e+001
5.148079e+002,2.722455e+001
5.157722e+002,2.659950e+001
5.167364e+002,2.784047e+001
5.177006e+002,3.050029e+001
5.186649e+002,3.255606e+001
5.196291e+002,3.074890e+001
5.205933e+002,2.768806e+001
5.215576e+002,2.627260e+001
5.225218e+002,2.662782e+001
5.234860e+002,2.754631e+001
5.244503e+002,2.694618e+001
5.254145e+002,2.433075e+001
5.263787e+002,2.290335e+001
5.273430e+002,2.334846e+001
5.283072e+002,2.450813e+001
5.292714e+002,2.462979e+001
5.302357e+002,2.262978e+001
5.311999e+002,2.161136e+001
5.321641e+002,2.289629e+001
5.331284e+002,2.467618e+001
5.340926e+002,2.550073e+001
5.350568e+002,2.474785e+001
5.360211e+002,2.335384e+001
5.369853e+002,2.232855e+001
5.379495e+002,2.132962e+001
5.389138e+002,1.970117e+001
5.398780e+002,1.732697e+001
5.408422e+002,1.491284e+001
5.418065e+002,1.477031e+001
5.427707e+002,1.656792e+001
5.437349e+002,1.834369e+001
5.446992e+002,1.980527e+001
5.456634e+002,2.074208e+001
5.466276e+002,2.043112e+001
5.475919e+002,1.713173e+001
5.485561e+002,1.476427e+001
5.495203e+002,1.382066e+001
5.504846e+002,1.367596e+001
5.514488e+002,1.342313e+001
5.524130e+002,1.262245e+001
5.533773e+002,1.226465e+001
5.543415e+002,1.307713e+001
5.553057e+002,1.435107e+001
5.562700e+002,1.539714e+001
5.572342e+002,1.577563e+001
5.581984e+002,1.563945e+001
5.591627e+002,1.545413e+001
5.601269e+002,1.524747e+001
5.610911e+002,1.476950e+001
5.620554e+002,1.381107e+001
5.630196e+002,1.246346e+001
5.639838e+002,1.199196e+001
5.649481e+002,1.400858e+001
5.659123e+002,1.459654e+001
5.668765e+002,1.196071e+001
5.678408e+002,7.515259e+000
5.688050e+002,5.235764e+000
5.697692e+002,7.778503e+000
5.707335e+002,9.991333e+000
5.716977e+002,1.035896e+001
5.726619e+002,9.549728e+000
5.736262e+002,8.533325e+000
5.745904e+002,7.947098e+000
5.755546e+002,7.533707e+000
5.765189e+002,6.547791e+000
5.774831e+002,5.274338e+000
5.784473e+002,4.420761e+000
5.794116e+002,4.514374e+000
5.803758e+002,5.519119e+000
5.813400e+002,6.035843e+000
5.823043e+002,5.776550e+000
5.832685e+002,5.518829e+000
5.842327e+002,5.756180e+000
5.851970e+002,6.441315e+000
5.861612e+002,6.785507e+000
5.871254e+002,5.937424e+000
5.880897e+002,5.407501e+000
5.890539e+002,5.816391e+000
5.900181e+002,6.609924e+000
5.909824e+002,6.855423e+000
5.919466e+002,5.883820e+000
5.929108e+002,4.454651e+000
5.938751e+002,3.147202e+000
5.948393e+002,2.097061e+000
5.958035e+002,1.591034e+000
5.967678e+002,1.842255e+000
5.977320e+002,2.783722e+000
5.986962e+002,3.728745e+000
5.996605e+002,4.626236e+000
6.006247e+002,5.119446e+000
6.015889e+002,4.977814e+000
6.025532e+002,4.247498e+000
6.035174e+002,3.446808e+000
6.044816e+002,1.697632e+000
6.054459e+002,9.660187e-001
6.064101e+002,2.120850e+000
6.073743e+002,4.394348e+000
6.083386e+002,6.619553e+000
6.093028e+002,8.716751e+000
6.102670e+002,9.459595e+000
6.112313e+002,7.096268e+000
6.121955e+002,3.455109e+000
6.131597e+002,1.040359e+000
6.141240e+002,1.533768e+000
6.150882e+002,4.007782e+000
6.160524e+002,4.346481e+000
6.170167e+002,2.992508e+000
6.179809e+002,2.019348e+000
6.189451e+002,2.451141e+000
6.199094e+002,4.001465e+000
6.208736e+002,4.849289e+000
6.218378e+002,4.630219e+000
6.228021e+002,4.258270e+000
6.237663e+002,3.663895e+000
6.247305e+002,3.031754e+000
6.256948e+002,2.512054e+000
6.266590e+002,1.888474e+000
6.276232e+002,1.835464e+000
6.285875e+002,3.305298e+000
6.295517e+002,5.248779e+000
6.305159e+002,6.336624e+000
6.314802e+002,5.879364e+000
6.324444e+002,4.716202e+000
6.334086e+002,6.126343e+000
6.343729e+002,9.145142e+000
6.353371e+002,1.040504e+001
6.363013e+002,8.409302e+000
6.372656e+002,4.163696e+000
6.382298e+002,1.360947e+000
6.391940e+002,1.456985e+000
6.401583e+002,1.183395e+000
6.411225e+002,2.126770e-001
6.420867e+002,-7.908478e-001
6.430510e+002,-1.034302e+000
6.440152e+002,-1.919250e-001
6.449794e+002,6.293640e-001
6.459437e+002,1.303146e+000
6.469079e+002,1.463989e+000
6.478721e+002,3.975525e-001
6.488364e+002,-1.884644e+000
6.498006e+002,-4.149811e+000
6.507648e+002,-3.800430e+000
6.517291e+002,-1.861206e+000
6.526933e+002,-8.753204e-001
6.536575e+002,-1.377228e+000
6.546218e+002,-2.398849e+000
6.555860e+002,-1.938202e+000
6.565502e+002,1.773392e+000
6.575145e+002,2.854004e+000
6.584787e+002,-6.905823e-001
6.594429e+002,-4.888428e+000
6.604072e+002,-6.455017e+000
6.613714e+002,-4.710983e+000
6.623356e+002,-2.863922e+000
6.632999e+002,-2.417969e+000
6.642641e+002,-2.412689e+000
6.652283e+002,-2.664017e+000
6.661926e+002,-2.846115e+000
6.671568e+002,-2.337936e+000
6.681210e+002,2.375793e-002
6.690853e+002,3.035980e+000
6.700495e+002,3.662125e+000
6.710137e+002,1.961624e+000
6.719780e+002,-4.806519e-001
6.729422e+002,-2.064865e+000
6.739064e+002,-2.726074e+000
6.748707e+002,-2.939590e+000
6.758349e+002,-2.925522e+000
6.767991e+002,-2.436432e+000
6.777634e+002,-4.402771e-001
6.787276e+002,2.684128e+000
6.796918e+002,3.883804e+000
6.806561e+002,-6.992340e-001
6.816203e+002,-4.647629e+000
6.825845e+002,-5.292572e+000
6.835488e+002,-3.620438e+000
6.845130e+002,-1.195877e+000
6.854772e+002,1.019882e+000
6.864415e+002,2.493179e+000
6.874057e+002,1.407898e+000
6.883699e+002,-1.443542e+000
6.893342e+002,-3.788147e+000
6.902984e+002,-4.295639e+000
6.912626e+002,-3.226196e+000
6.922269e+002,-2.621155e+000
6.931911e+002,-2.772003e+000
6.941553e+002,-2.701645e+000
6.951196e+002,-2.537888e+000
6.960838e+002,-2.226868e+000
6.970480e+002,-1.324234e+000
6.980123e+002,1.055557e+000
6.989765e+002,1.991852e+000
6.999407e+002,-1.087250e+000
7.009050e+002,-4.802246e+000
7.018692e+002,-6.261139e+000
7.028334e+002,-4.634247e+000
7.037977e+002,-1.809952e+000
7.047619e+002,-4.189148e-001
7.057261e+002,-5.502319e-002
7.066904e+002,-3.335724e-001
7.076546e+002,-1.205124e+000
7.086188e+002,-2.019394e+000
7.095831e+002,-1.688339e+000
7.105473e+002,3.080139e-001
7.115115e+002,1.659592e+000
7.124758e+002,2.605499e+000
7.134400e+002,2.794037e+000
7.144042e+002,1.652863e+000
7.153685e+002,-7.180176e-001
7.163327e+002,-2.602890e+000
7.172969e+002,-3.214172e+000
7.182612e+002,-3.062653e+000
7.192254e+002,-1.591522e+000
7.201896e+002,4.073944e-001
7.211539e+002,1.434082e+000
7.221181e+002,1.043243e-001
7.230823e+002,-2.435791e+000
7.240466e+002,-2.853806e+000
7.250108e+002,-1.558533e+000
7.259750e+002,-3.865662e-001
7.269393e+002,-5.691528e-001
7.279035e+002,-1.970291e+000
7.288677e+002,-2.560318e+000
7.298320e+002,-1.195099e+000
7.307962e+002,2.461243e-002
7.317604e+002,1.218185e+000
7.327247e+002,2.124313e+000
7.336889e+002,2.140884e+000
7.346531e+002,6.575165e-001
7.356174e+002,-8.324585e-001
7.365816e+002,-9.286499e-001
7.375458e+002,-7.302399e-001
7.385101e+002,-1.312912e+000
7.394743e+002,-2.803360e+000
7.404385e+002,-4.257217e+000
7.414028e+002,-4.147659e+000
7.423670e+002,-2.982666e+000
7.433312e+002,-2.397629e+000
7.442955e+002,-2.370651e+000
7.452597e+002,-2.484344e+000
7.462239e+002,-2.440674e+000
7.471882e+002,-2.415314e+000
7.481524e+002,-1.581070e+000
7.491166e+002,1.186874e+000
7.500809e+002,3.065262e+000
7.510451e+002,2.514191e+000
7.520093e+002,9.878540e-002
7.529736e+002,-2.053696e+000
7.539378e+002,-2.959290e+000
7.549020e+002,-3.008270e+000
7.558663e+002,-2.182129e+000
7.568306e+002,-9.613495e-001
7.577948e+002,-3.378296e-002
7.587590e+002,1.700439e-001
7.597233e+002,-8.493042e-002
7.606875e+002,4.332275e-001
7.616517e+002,1.654160e+000
7.626160e+002,1.891556e+000
7.635802e+002,4.400940e-001
7.645444e+002,-1.896744e+000
7.655087e+002,-3.526443e+000
7.664729e+002,-4.417191e+000
7.674371e+002,-4.571167e+000
7.684014e+002,-3.863983e+000
7.693656e+002,-2.753479e+000
7.703298e+002,-1.294632e+000
7.712941e+002,4.155273e-001
7.722583e+002,1.908524e+000
7.732225e+002,3.029007e+000
7.741868e+002,3.511536e+000
7.751510e+002,2.857346e+000
7.761152e+002,1.405792e+000
7.770795e+002,-2.248840e-001
7.780437e+002,-1.513779e+000
7.790079e+002,-2.412628e+000
7.799722e+002,-1.933075e+000
7.809364e+002,-1.217651e-002
7.819006e+002,1.774948e+000
7.828649e+002,2.832794e+000
7.838291e+002,3.408218e+000
7.847933e+002,4.253769e+000
7.857576e+002,5.986450e+000
7.867218e+002,6.510803e+000
7.876860e+002,4.925018e+000
7.886503e+002,2.776855e+000
7.896145e+002,1.237091e+000
7.905787e+002,6.425171e-001
7.915430e+002,5.265045e-001
7.925072e+002,4.452515e-001
7.934714e+002,4.005737e-001
7.944357e+002,6.494904e-001
7.953999e+002,1.188797e+000
7.963641e+002,1.662888e+000
7.973284e+002,1.607208e+000
7.982926e+002,9.596405e-001
7.992568e+002,1.081848e+000
8.002211e+002,2.071350e+000
8.011853e+002,2.949280e+000
8.021495e+002,3.908371e+000
8.031138e+002,4.818527e+000
8.040780e+002,4.570602e+000
8.050422e+002,1.530991e+000
8.060065e+002,-5.820923e-001
8.069707e+002,-3.563080e-001
8.079349e+002,9.602356e-001
8.088992e+002,2.435928e+000
8.098634e+002,3.670166e+000
8.108276e+002,4.585876e+000
8.117919e+002,4.854599e+000
8.127561e+002,4.498199e+000
8.137203e+002,3.858917e+000
8.146846e+002,3.093475e+000
8.156488e+002,2.314468e+000
8.166130e+002,1.495178e+000
8.175773e+002,3.997498e-001
8.185415e+002,5.868835e-001
8.195057e+002,3.381241e+000
8.204700e+002,5.404755e+000
8.214342e+002,5.137894e+000
8.223984e+002,3.241058e+000
8.233627e+002,1.490997e+000
8.243269e+002,3.437958e-001
8.252911e+002,-1.573029e-001
8.262554e+002,-1.526184e-001
8.272196e+002,3.442078e-001
8.281838e+002,1.570953e+000
8.291481e+002,3.450470e+000
8.301123e+002,5.367569e+000
8.310765e+002,6.186142e+000
8.320408e+002,5.904480e+000
8.330050e+002,5.614670e+000
8.339692e+002,5.408386e+000
8.349335e+002,5.159973e+000
8.358977e+002,4.846222e+000
8.368619e+002,4.571854e+000
8.378262e+002,3.876465e+000
8.387904e+002,1.782776e+000
8.397546e+002,2.202759e-001
8.407189e+002,-8.384705e-002
8.416831e+002,4.268494e-001
8.426473e+002,8.903809e-001
8.436116e+002,8.871155e-001
8.445758e+002,1.021713e+000
8.455400e+002,2.057892e+000
8.465043e+002,3.308380e+000
8.474685e+002,4.083801e+000
8.484327e+002,4.302170e+000
8.493970e+002,4.420319e+000
8.503612e+002,5.090439e+000
8.513254e+002,6.408859e+000
8.522897e+002,7.183594e+000
8.532539e+002,7.113388e+000
8.542181e+002,6.836960e+000
8.551824e+002,6.790039e+000
8.561466e+002,7.055603e+000
8.571108e+002,7.498703e+000
8.580751e+002,8.154785e+000
8.590393e+002,8.334824e+000
8.600035e+002,7.337845e+000
8.609678e+002,6.202850e+000
8.619320e+002,6.309982e+000
8.628962e+002,8.102753e+000
8.638605e+002,1.020833e+001
8.648247e+002,1.029980e+001
8.657889e+002,9.209915e+000
8.667532e+002,8.672302e+000
8.677174e+002,8.914307e+000
8.686816e+002,9.737701e+000
8.696459e+002,1.100444e+001
8.706101e+002,1.282387e+001
8.715743e+002,1.464537e+001
8.725386e+002,1.719293e+001
8.735028e+002,1.888345e+001
8.744670e+002,1.894716e+001
8.754313e+002,1.781046e+001
8.763955e+002,1.611292e+001
8.773597e+002,1.370119e+001
8.783240e+002,1.224808e+001
8.792882e+002,1.357649e+001
8.802524e+002,1.577184e+001
8.812167e+002,1.735335e+001
8.821809e+002,1.794743e+001
8.831451e+002,1.793459e+001
8.841094e+002,1.776231e+001
8.850736e+002,1.756717e+001
8.860378e+002,1.821342e+001
8.870021e+002,1.975908e+001
8.879663e+002,2.150870e+001
8.889305e+002,2.344084e+001
8.898948e+002,2.530479e+001
8.908590e+002,2.581976e+001
8.918232e+002,2.372832e+001
8.927875e+002,2.240422e+001
8.937517e+002,2.302921e+001
8.947159e+002,2.427191e+001
8.956802e+002,2.483882e+001
8.966444e+002,2.447670e+001
8.976086e+002,2.419247e+001
8.985729e+002,2.540271e+001
8.995371e+002,2.716508e+001
9.005013e+002,2.768814e+001
9.014656e+002,2.715175e+001
9.024298e+002,2.637375e+001
9.033940e+002,2.584082e+001
9.043583e+002,2.552669e+001
9.053225e+002,2.589197e+001
9.062867e+002,2.854970e+001
9.072510e+002,2.952415e+001
9.082152e+002,2.741545e+001
9.091794e+002,2.469371e+001
9.101437e+002,2.405019e+001
9.111079e+002,2.592126e+001
9.120721e+002,2.743173e+001
9.130364e+002,2.573415e+001
9.140006e+002,2.401369e+001
9.149648e+002,2.460239e+001
9.159291e+002,2.678503e+001
9.168933e+002,2.871739e+001
9.178575e+002,2.905336e+001
9.188218e+002,2.813011e+001
9.197860e+002,2.710596e+001
9.207502e+002,2.591650e+001
9.217145e+002,2.494337e+001
9.226787e+002,2.439955e+001
9.236429e+002,2.422267e+001
9.246072e+002,2.440308e+001
9.255714e+002,2.504330e+001
9.265356e+002,2.505238e+001
9.274999e+002,2.342883e+001
9.284641e+002,2.195660e+001
9.294283e+002,2.141051e+001
9.303926e+002,2.150203e+001
9.313568e+002,2.158606e+001
9.323210e+002,2.132362e+001
9.332853e+002,2.091582e+001
9.342495e+002,2.073230e+001
9.352137e+002,2.059143e+001
9.361780e+002,2.022188e+001
9.371422e+002,1.965042e+001
9.381064e+002,1.922319e+001
9.390707e+002,1.932022e+001
9.400349e+002,1.990724e+001
9.409991e+002,2.051181e+001
9.419634e+002,2.153462e+001
9.429276e+002,2.202173e+001
9.438918e+002,2.141412e+001
9.448561e+002,2.025485e+001
9.458203e+002,1.951662e+001
9.467845e+002,1.958812e+001
9.477488e+002,1.962946e+001
9.487130e+002,1.886836e+001
9.496772e+002,1.786911e+001
9.506415e+002,1.687898e+001
9.516057e+002,1.605060e+001
9.525699e+002,1.563708e+001
9.535342e+002,1.588168e+001
9.544984e+002,1.663293e+001
9.554626e+002,1.684668e+001
9.564269e+002,1.646808e+001
9.573911e+002,1.656494e+001
9.583553e+002,1.804608e+001
9.593196e+002,1.982884e+001
9.602838e+002,1.994376e+001
9.612480e+002,1.782039e+001
9.622123e+002,1.596747e+001
9.631765e+002,1.486072e+001
9.641407e+002,1.447424e+001
9.651050e+002,1.521054e+001
9.660692e+002,1.656023e+001
9.670334e+002,1.778297e+001
9.679977e+002,1.849373e+001
9.689619e+002,1.867494e+001
9.699261e+002,1.723055e+001
9.708904e+002,1.488200e+001
9.718546e+002,1.437236e+001
9.728188e+002,1.649886e+001
9.737831e+002,1.960709e+001
9.747473e+002,2.140598e+001
9.757115e+002,2.148334e+001
9.766758e+002,2.271686e+001
9.776400e+002,2.784088e+001
9.786042e+002,3.096059e+001
9.795685e+002,2.943501e+001
9.805327e+002,2.546703e+001
9.814969e+002,2.202782e+001
9.824612e+002,2.017140e+001
9.834254e+002,1.892195e+001
9.843896e+002,1.714107e+001
9.853539e+002,1.539772e+001
9.863181e+002,1.445064e+001
9.872823e+002,1.419128e+001
9.882466e+002,1.412140e+001
9.892108e+002,1.393286e+001
9.901750e+002,1.375636e+001
9.911393e+002,1.352704e+001
9.921035e+002,1.291264e+001
9.930677e+002,1.220525e+001
9.940320e+002,1.112234e+001
9.949962e+002,1.037427e+001
9.959604e+002,1.083878e+001
9.969247e+002,1.252811e+001
9.978889e+002,1.411853e+001
9.988531e+002,1.487776e+001
9.998174e+002,1.519054e+001
1.000782e+003,1.526442e+001
1.001746e+003,1.527235e+001
1.002710e+003,1.546786e+001
1.003674e+003,1.589854e+001
1.004639e+003,1.623563e+001
1.005603e+003,1.587517e+001
1.006567e+003,1.469426e+001
1.007531e+003,1.371906e+001
1.008495e+003,1.294388e+001
1.009460e+003,1.238696e+001
1.010424e+003,1.192773e+001
1.011388e+003,1.171132e+001
1.012352e+003,1.242174e+001
1.013317e+003,1.494420e+001
1.014281e+003,1.659021e+001
1.015245e+003,1.643990e+001
1.016209e+003,1.534657e+001
1.017174e+003,1.338971e+001
1.018138e+003,1.108260e+001
1.019102e+003,9.618286e+000
1.020066e+003,1.015395e+001
1.021031e+003,1.172231e+001
1.021995e+003,1.098250e+001
1.022959e+003,8.362762e+000
1.023923e+003,6.365524e+000
1.024887e+003,5.954391e+000
1.025852e+003,6.226715e+000
1.026816e+003,5.686157e+000
1.027780e+003,4.100449e+000
1.028744e+003,3.182220e+000
1.029709e+003,3.512817e+000
1.030673e+003,3.940796e+000
1.031637e+003,4.146454e+000
1.032601e+003,4.182312e+000
1.033566e+003,4.168533e+000
1.034530e+003,4.183228e+000
1.035494e+003,4.337387e+000
1.036458e+003,4.889008e+000
1.037422e+003,5.484177e+000
1.038387e+003,5.431641e+000
1.039351e+003,4.772385e+000
1.040315e+003,4.200974e+000
1.041279e+003,4.256805e+000
1.042244e+003,4.897537e+000
1.043208e+003,5.742676e+000
1.044172e+003,6.874908e+000
1.045136e+003,7.868423e+000
1.046101e+003,8.958008e+000
1.047065e+003,9.778412e+000
1.048029e+003,1.006883e+001
1.048993e+003,9.830078e+000
1.049958e+003,9.125748e+000
1.050922e+003,7.808075e+000
1.051886e+003,6.659119e+000
1.052850e+003,6.566254e+000
1.053814e+003,7.006470e+000
1.054779e+003,7.477692e+000
1.055743e+003,7.775620e+000
1.056707e+003,7.694855e+000
1.057671e+003,6.954102e+000
1.058636e+003,5.527100e+000
1.059600e+003,4.644333e+000
1.060564e+003,4.947571e+000
1.061528e+003,5.074265e+000
1.062493e+003,4.371033e+000
1.063457e+003,3.538269e+000
1.064421e+003,3.428452e+000
1.065385e+003,4.172958e+000
1.066349e+003,5.253983e+000
1.067314e+003,6.835571e+000
1.068278e+003,8.173004e+000
1.069242e+003,8.627640e+000
1.070206e+003,8.604553e+000
1.071171e+003,8.719864e+000
1.072135e+003,9.179947e+000
1.073099e+003,9.704208e+000
1.074063e+003,9.936935e+000
1.075028e+003,9.937973e+000
1.075992e+003,8.910568e+000
1.076956e+003,5.677628e+000
1.077920e+003,3.350555e+000
1.078885e+003,3.881104e+000
1.079849e+003,5.894745e+000
1.080813e+003,6.752426e+000
1.081777e+003,5.946014e+000
1.082741e+003,4.982452e+000
1.083706e+003,3.527374e+000
1.084670e+003,2.904144e+000
1.085634e+003,4.862946e+000
1.086598e+003,8.099548e+000
1.087563e+003,1.004454e+001
1.088527e+003,9.373123e+000
1.089491e+003,7.429688e+000
1.090455e+003,6.745895e+000
1.091420e+003,7.421143e+000
1.092384e+003,7.129181e+000
1.093348e+003,5.017975e+000
1.094312e+003,3.346024e+000
1.095276e+003,3.952545e+000
1.096241e+003,6.102448e+000
1.097205e+003,7.364273e+000
1.098169e+003,7.210953e+000
1.099133e+003,6.659653e+000
1.100098e+003,5.698013e+000
1.101062e+003,4.946121e+000
1.102026e+003,5.178497e+000
1.102990e+003,5.929962e+000
1.103955e+003,5.921387e+000
1.104919e+003,4.379150e+000
1.105883e+003,2.260788e+000
1.106847e+003,1.685898e+000
1.107812e+003,2.710922e+000
1.108776e+003,3.849655e+000
1.109740e+003,5.127533e+000
1.110704e+003,6.347137e+000
1.111668e+003,7.698166e+000
1.112633e+003,9.038559e+000
1.113597e+003,9.280594e+000
1.114561e+003,7.564163e+000
1.115525e+003,6.338730e+000
1.116490e+003,6.569839e+000
1.117454e+003,7.231430e+000
1.118418e+003,8.108032e+000
1.119382e+003,8.908676e+000
1.120347e+003,8.933151e+000
1.121311e+003,7.686249e+000
1.122275e+003,6.072052e+000
1.123239e+003,6.448029e+000
1.124203e+003,8.716248e+000
1.125168e+003,9.822800e+000
1.126132e+003,9.208832e+000
1.127096e+003,8.395081e+000
1.128060e+003,8.603409e+000
1.129025e+003,9.532806e+000
1.129989e+003,9.860901e+000
1.130953e+003,9.174957e+000
1.131917e+003,8.525940e+000
1.132882e+003,8.070663e+000
1.133846e+003,7.929199e+000
1.134810e+003,8.071472e+000
1.135774e+003,8.618683e+000
1.136739e+003,1.001665e+001
1.137703e+003,1.247469e+001
1.138667e+003,1.506444e+001
1.139631e+003,1.618820e+001
1.140595e+003,1.585519e+001
1.141560e+003,1.478746e+001
1.142524e+003,1.256409e+001
1.143488e+003,1.148744e+001
1.144452e+003,1.344101e+001
1.145417e+003,1.776292e+001
1.146381e+003,2.223807e+001
1.147345e+003,2.720004e+001
1.148309e+003,3.107814e+001
1.149274e+003,3.279604e+001
1.150238e+003,3.425006e+001
1.151202e+003,3.632780e+001
1.152166e+003,3.897722e+001
1.153130e+003,4.195883e+001
1.154095e+003,4.502582e+001
1.155059e+003,4.770822e+001
1.156023e+003,4.959146e+001
1.156987e+003,5.056883e+001
1.157952e+003,5.016991e+001
1.158916e+003,4.840691e+001
1.159880e+003,4.624425e+001
1.160844e+003,4.395532e+001
1.161809e+003,4.137196e+001
1.162773e+003,3.832964e+001
1.163737e+003,3.473767e+001
1.164701e+003,3.115456e+001
1.165666e+003,2.692245e+001
1.166630e+003,2.372389e+001
1.167594e+003,2.299260e+001
1.168558e+003,2.331531e+001
1.169522e+003,2.266293e+001
1.170487e+003,2.052731e+001
1.171451e+003,1.836916e+001
1.172415e+003,1.792589e+001
1.173379e+003,1.866524e+001
1.174344e+003,1.742874e+001
1.175308e+003,1.401955e+001
1.176272e+003,1.217752e+001
1.177236e+003,1.451878e+001
1.178201e+003,1.798895e+001
1.179165e+003,1.819864e+001
1.180129e+003,1.503738e+001
1.181093e+003,1.303235e+001
1.182057e+003,1.407448e+001
1.183022e+003,1.504832e+001
1.183986e+003,1.469209e+001
1.184950e+003,1.381204e+001
1.185914e+003,1.324883e+001
1.186879e+003,1.306442e+001
1.187843e+003,1.255592e+001
1.188807e+003,1.108618e+001
1.189771e+003,9.355499e+000
1.190736e+003,9.926727e+000
1.191700e+003,1.315787e+001
1.192664e+003,1.472566e+001
1.193628e+003,1.328052e+001
1.194593e+003,1.150644e+001
1.195557e+003,1.139830e+001
1.196521e+003,1.247858e+001
1.197485e+003,1.309731e+001
1.198449e+003,1.291794e+001
1.199414e+003,1.262248e+001
1.200378e+003,1.278049e+001
1.201342e+003,1.270627e+001
1.202306e+003,1.176578e+001
1.203271e+003,1.020604e+001
1.204235e+003,8.495209e+000
1.205199e+003,6.953583e+000
1.206163e+003,5.845779e+000
1.207128e+003,5.644867e+000
1.208092e+003,6.419952e+000
1.209056e+003,6.921936e+000
1.210020e+003,7.259933e+000
1.210984e+003,7.205002e+000
1.211949e+003,6.658920e+000
1.212913e+003,5.665817e+000
1.213877e+003,4.212173e+000
1.214841e+003,2.342896e+000
1.215806e+003,4.708099e-001
1.216770e+003,-1.433395e+000
1.217734e+003,-3.036469e+000
1.218698e+003,-4.391525e+000
1.219663e+003,-5.316315e+000
1.220627e+003,-5.388062e+000
1.221591e+003,-4.680145e+000
1.222555e+003,-3.821869e+000
1.223520e+003,-3.380432e+000
1.224484e+003,-3.212509e+000
1.225448e+003,-2.780228e+000
1.226412e+003,-1.747742e+000
1.227376e+003,-1.307495e+000
1.228341e+003,-1.745667e+000
1.229305e+003,-2.486755e+000
1.230269e+003,-3.484543e+000
1.231233e+003,-4.500534e+000
1.232198e+003,-5.032455e+000
1.233162e+003,-4.897903e+000
1.234126e+003,-4.516632e+000
1.235090e+003,-4.063202e+000
1.236055e+003,-3.749207e+000
1.237019e+003,-3.983505e+000
1.237983e+003,-4.529327e+000
1.238947e+003,-4.507568e+000
1.239911e+003,-3.527817e+000
1.240876e+003,-2.631744e+000
1.241840e+003,-3.700699e+000
1.242804e+003,-6.969131e+000
1.243768e+003,-7.835007e+000
1.244733e+003,-3.271042e+000
1.245697e+003,-2.505035e-001
1.246661e+003,-3.999481e-001
1.247625e+003,-1.407196e+000
1.248590e+003,-1.469055e+000
1.249554e+003,-7.079315e-001
1.250518e+003,-3.115845e-001
1.251482e+003,-8.829803e-001
1.252447e+003,-1.795914e+000
1.253411e+003,-2.342896e+000
1.254375e+003,-2.537109e+000
1.255339e+003,-2.545837e+000
1.256303e+003,-2.329285e+000
1.257268e+003,-1.634048e+000
1.258232e+003,-1.225128e-001
1.259196e+003,1.483398e+000
1.260160e+003,1.562302e+000
1.261125e+003,-2.346802e-001
1.262089e+003,-8.880310e-001
1.263053e+003,1.284973e+000
1.264017e+003,2.739914e+000
1.264982e+003,1.839172e+000
1.265946e+003,5.171204e-001
1.266910e+003,8.526001e-001
1.267874e+003,2.675797e+000
1.268839e+003,4.299194e+000
1.269803e+003,4.613922e+000
1.270767e+003,4.020157e+000
1.271731e+003,3.093781e+000
1.272695e+003,1.925262e+000
1.273660e+003,1.536255e+000
1.274624e+003,2.278244e+000
1.275588e+003,2.558548e+000
1.276552e+003,1.175400e+000
1.277517e+003,-9.362793e-001
1.278481e+003,-2.199860e+000
1.279445e+003,-2.546402e+000
1.280409e+003,-2.272003e+000
1.281374e+003,-1.240402e+000
1.282338e+003,1.723022e-001
1.283302e+003,2.550858e+000
1.284266e+003,4.670609e+000
1.285230e+003,4.836838e+000
1.286195e+003,3.111771e+000
1.287159e+003,1.022659e+000
1.288123e+003,-1.428528e-001
1.289087e+003,-4.474640e-001
1.290052e+003,-1.949158e-001
1.291016e+003,8.775635e-001
1.291980e+003,1.286865e+000
1.292944e+003,5.353241e-001
1.293909e+003,-3.145752e-001
1.294873e+003,-9.336853e-001
1.295837e+003,-1.246368e+000
1.296801e+003,-9.293671e-001
1.297766e+003,-5.221558e-002
1.298730e+003,1.558075e-001
1.299694e+003,-1.391220e+000
1.300658e+003,-3.150818e+000
1.301622e+003,-3.217728e+000
1.302587e+003,-2.357666e+000
1.303551e+003,-1.805374e+000
1.304515e+003,-1.728699e+000
1.305479e+003,-1.478821e+000
1.306444e+003,-5.072021e-001
1.307408e+003,8.598785e-001
1.308372e+003,1.685532e+000
1.309336e+003,2.037994e+000
1.310301e+003,1.573349e+000
1.311265e+003,-7.435608e-001
1.312229e+003,-2.500092e+000
1.313193e+003,-2.829865e+000
1.314157e+003,-2.387894e+000
1.315122e+003,-1.647308e+000
1.316086e+003,-9.019470e-001
1.317050e+003,-6.136627e-001
1.318014e+003,-1.100754e+000
1.318979e+003,-1.693008e+000
1.319943e+003,-1.025375e+000
1.320907e+003,7.142792e-001
1.321871e+003,1.448181e+000
1.322836e+003,7.759247e-001
1.323800e+003,-1.436920e-001
1.324764e+003,-9.852448e-001
1.325728e+003,-1.516312e+000
1.326693e+003,-1.175018e+000
1.327657e+003,2.638245e-002
1.328621e+003,7.867126e-001
1.329585e+003,5.580750e-001
1.330549e+003,6.663055e-001
1.331514e+003,2.660950e+000
1.332478e+003,4.301285e+000
1.333442e+003,2.549713e+000
1.334406e+003,-1.619568e+000
1.335371e+003,-4.372269e+000
1.336335e+003,-3.413086e+000
1.337299e+003,-3.016968e-001
1.338263e+003,2.048920e+000
1.339228e+003,3.620346e+000
1.340192e+003,4.631668e+000
1.341156e+003,5.258148e+000
1.342120e+003,5.121109e+000
1.343084e+003,3.180130e+000
1.344049e+003,1.184143e+000
1.345013e+003,7.737579e-001
1.345977e+003,1.677460e+000
1.346941e+003,2.643082e+000
1.347906e+003,3.227234e+000
1.348870e+003,3.654388e+000
1.349834e+003,4.181015e+000
1.350798e+003,4.560272e+000
1.351763e+003,4.406509e+000
1.352727e+003,3.811966e+000
1.353691e+003,3.140488e+000
1.354655e+003,2.453918e+000
1.355620e+003,2.007721e+000
1.356584e+003,2.434128e+000
1.357548e+003,3.567917e+000
1.358512e+003,3.488098e+000
1.359476e+003,1.335312e+000
1.360441e+003,-2.289124e-001
1.361405e+003,-2.336884e-001
1.362369e+003,2.475586e-001
1.363333e+003,1.033203e+000
1.364298e+003,1.825470e+000
1.365262e+003,2.224289e+000
1.366226e+003,2.208084e+000
1.367190e+003,2.203720e+000
1.368155e+003,2.595490e+000
1.369119e+003,3.236893e+000
1.370083e+003,3.704651e+000
1.371047e+003,4.090942e+000
1.372011e+003,3.972733e+000
1.372976e+003,2.734818e+000
1.373940e+003,1.648331e+000
1.374904e+003,9.967957e-001
1.375868e+003,9.359741e-001
1.376833e+003,1.987808e+000
1.377797e+003,3.927795e+000
1.378761e+003,5.282471e+000
1.379725e+003,5.334900e+000
1.380690e+003,5.025131e+000
1.381654e+003,5.673874e+000
1.382618e+003,6.401749e+000
1.383582e+003,5.459686e+000
1.384547e+003,3.098038e+000
1.385511e+003,1.680771e+000
1.386475e+003,2.482712e+000
1.387439e+003,4.336609e+000
1.388403e+003,5.727310e+000
1.389368e+003,6.643890e+000
1.390332e+003,6.677414e+000
1.391296e+003,5.188019e+000
1.392260e+003,4.205750e+000
1.393225e+003,4.696411e+000
1.394189e+003,5.175858e+000
1.395153e+003,4.652985e+000
1.396117e+003,3.630600e+000
1.397082e+003,2.885559e+000
1.398046e+003,2.713531e+000
1.399010e+003,3.135406e+000
1.399974e+003,4.164474e+000
1.400938e+003,5.260666e+000
1.401903e+003,4.897827e+000
1.402867e+003,2.763443e+000
1.403831e+003,1.532715e+000
1.404795e+003,1.210114e+000
1.405760e+003,1.507263e+000
1.406724e+003,2.579666e+000
1.407688e+003,3.775620e+000
1.408652e+003,4.739700e+000
1.409617e+003,5.377472e+000
1.410581e+003,4.953094e+000
1.411545e+003,2.906235e+000
1.412509e+003,1.162231e+000
1.413474e+003,1.874466e+000
1.414438e+003,3.795471e+000
1.415402e+003,5.405518e+000
1.416366e+003,6.580963e+000
1.417330e+003,6.276779e+000
1.418295e+003,3.616501e+000
1.419259e+003,1.123383e+000
1.420223e+003,2.325409e+000
1.421187e+003,6.421326e+000
1.422152e+003,8.584091e+000
1.423116e+003,8.333633e+000
1.424080e+003,7.713989e+000
1.425044e+003,7.111893e+000
1.426009e+003,6.208084e+000
1.426973e+003,3.675323e+000
1.427937e+003,1.480667e+000
1.428901e+003,2.969025e+000
1.429865e+003,7.483551e+000
1.430830e+003,1.060825e+001
1.431794e+003,9.426544e+000
1.432758e+003,6.155975e+000
1.433722e+003,5.334747e+000
1.434687e+003,7.332596e+000
1.435651e+003,8.489700e+000
1.436615e+003,7.872711e+000
1.437579e+003,7.243317e+000
1.438544e+003,6.849518e+000
1.439508e+003,6.461655e+000
1.440472e+003,5.628006e+000
1.441436e+003,4.892517e+000
1.442401e+003,5.555237e+000
1.443365e+003,7.703735e+000
1.444329e+003,9.312454e+000
1.445293e+003,8.770233e+000
1.446257e+003,7.274017e+000
1.447222e+003,7.095825e+000
1.448186e+003,7.952591e+000
1.449150e+003,8.466614e+000
1.450114e+003,8.569519e+000
1.451079e+003,8.036224e+000
1.452043e+003,5.948318e+000
1.453007e+003,3.829803e+000
1.453971e+003,4.269043e+000
1.454936e+003,6.809402e+000
1.455900e+003,7.951477e+000
1.456864e+003,6.639709e+000
1.457828e+003,5.216721e+000
1.458792e+003,4.953125e+000
1.459757e+003,5.096588e+000
1.460721e+003,4.976715e+000
1.461685e+003,4.809021e+000
1.462649e+003,5.223206e+000
1.463614e+003,6.354721e+000
1.464578e+003,7.511322e+000
1.465542e+003,8.019165e+000
1.466506e+003,8.106354e+000
1.467471e+003,8.726883e+000
1.468435e+003,1.033821e+001
1.469399e+003,1.066428e+001
1.470363e+003,8.181610e+000
1.471328e+003,6.172455e+000
1.472292e+003,5.412903e+000
1.473256e+003,5.140274e+000
1.474220e+003,5.242706e+000
1.475184e+003,5.413528e+000
1.476149e+003,4.830627e+000
1.477113e+003,3.422104e+000
1.478077e+003,2.585617e+000
1.479041e+003,3.781555e+000
1.480006e+003,6.363541e+000
1.480970e+003,7.990997e+000
1.481934e+003,8.310547e+000
1.482898e+003,8.742203e+000
1.483863e+003,9.594330e+000
1.484827e+003,1.007413e+001
1.485791e+003,9.546097e+000
1.486755e+003,9.067368e+000
1.487719e+003,9.828552e+000
1.488684e+003,1.134798e+001
1.489648e+003,1.225807e+001
1.490612e+003,1.216330e+001
1.491576e+003,1.161740e+001
1.492541e+003,1.075851e+001
1.493505e+003,1.016261e+001
1.494469e+003,1.164488e+001
1.495433e+003,1.468196e+001
1.496398e+003,1.652205e+001
1.497362e+003,1.674915e+001
1.498326e+003,1.654991e+001
1.499290e+003,1.613599e+001
1.500255e+003,1.589038e+001
1.501219e+003,1.640858e+001
1.502183e+003,1.756612e+001
1.503147e+003,1.862988e+001
1.504111e+003,1.932733e+001
1.505076e+003,2.055779e+001
1.506040e+003,2.346802e+001
1.507004e+003,2.650279e+001
1.507968e+003,2.754253e+001
1.508933e+003,2.771404e+001
1.509897e+003,2.955641e+001
1.510861e+003,3.358154e+001
1.511825e+003,3.793651e+001
1.512790e+003,4.104944e+001
1.513754e+003,4.392703e+001
1.514718e+003,4.911432e+001
1.515682e+003,5.651585e+001
1.516646e+003,6.204408e+001
1.517611e+003,6.506589e+001
1.518575e+003,6.723982e+001
1.519539e+003,6.931438e+001
1.520503e+003,7.058798e+001
1.521468e+003,6.975970e+001
1.522432e+003,6.826685e+001
1.523396e+003,6.847476e+001
1.524360e+003,7.029095e+001
1.525325e+003,7.147981e+001
1.526289e+003,7.057953e+001
1.527253e+003,6.829614e+001
1.528217e+003,6.587538e+001
1.529182e+003,6.338847e+001
1.530146e+003,5.986819e+001
1.531110e+003,5.456448e+001
1.532074e+003,4.946956e+001
1.533039e+003,4.475974e+001
1.534003e+003,3.988998e+001
1.534967e+003,3.455916e+001
1.535931e+003,2.929276e+001
1.536896e+003,2.415927e+001
1.537860e+003,1.966229e+001
1.538824e+003,1.709422e+001
1.539788e+003,1.697206e+001
1.540752e+003,1.780719e+001
1.541717e+003,1.780812e+001
1.542681e+003,1.701505e+001
1.543645e+003,1.542674e+001
1.544609e+003,1.227686e+001
1.545573e+003,1.062216e+001
1.546538e+003,1.074442e+001
1.547502e+003,1.168599e+001
1.548466e+003,1.387743e+001
1.549430e+003,1.631300e+001
1.550395e+003,1.818649e+001
1.551359e+003,1.926988e+001
1.552323e+003,1.918584e+001
1.553287e+003,1.790903e+001
1.554252e+003,1.660179e+001
1.555216e+003,1.632460e+001
1.556180e+003,1.653978e+001
1.557144e+003,1.588647e+001
1.558109e+003,1.436708e+001
1.559073e+003,1.373103e+001
1.560037e+003,1.477046e+001
1.561001e+003,1.479970e+001
1.561966e+003,1.192506e+001
1.562930e+003,8.852234e+000
1.563894e+003,8.172150e+000
1.564858e+003,9.150818e+000
1.565823e+003,9.993271e+000
1.566787e+003,1.029144e+001
1.567751e+003,9.932968e+000
1.568715e+003,8.568527e+000
1.569679e+003,7.507706e+000
1.570644e+003,8.876083e+000
1.571608e+003,1.162039e+001
1.572572e+003,1.278889e+001
1.573536e+003,1.232553e+001
1.574500e+003,1.165268e+001
1.575465e+003,1.083359e+001
1.576429e+003,1.049167e+001
1.577393e+003,1.140428e+001
1.578357e+003,1.297913e+001
1.579322e+003,1.428636e+001
1.580286e+003,1.524132e+001
1.581250e+003,1.549306e+001
1.582214e+003,1.474545e+001
1.583179e+003,1.397992e+001
1.584143e+003,1.395287e+001
1.585107e+003,1.417944e+001
1.586071e+003,1.430876e+001
1.587036e+003,1.430051e+001
1.588000e+003,1.357500e+001
1.588964e+003,1.188235e+001
1.589928e+003,1.040474e+001
1.590893e+003,9.761932e+000
1.591857e+003,9.962082e+000
1.592821e+003,1.156790e+001
1.593785e+003,1.419820e+001
1.594750e+003,1.534570e+001
1.595714e+003,1.441435e+001
1.596678e+003,1.363101e+001
1.597642e+003,1.380159e+001
1.598606e+003,1.454634e+001
1.599571e+003,1.642798e+001
1.600535e+003,1.821086e+001
1.601499e+003,1.759665e+001
1.602463e+003,1.505002e+001
1.603427e+003,1.383006e+001
1.604392e+003,1.541655e+001
1.605356e+003,1.738367e+001
1.606320e+003,1.681750e+001
1.607284e+003,1.488522e+001
1.608249e+003,1.545473e+001
1.609213e+003,1.866354e+001
1.610177e+003,1.973949e+001
1.611141e+003,1.696178e+001
1.612106e+003,1.436371e+001
1.613070e+003,1.400777e+001
1.614034e+003,1.444011e+001
1.614998e+003,1.464484e+001
1.615963e+003,1.492097e+001
1.616927e+003,1.589542e+001
1.617891e+003,1.759479e+001
1.618855e+003,1.970467e+001
1.619820e+003,2.222881e+001
1.620784e+003,2.383546e+001
1.621748e+003,2.190781e+001
1.622712e+003,1.738310e+001
1.623677e+003,1.572025e+001
1.624641e+003,1.751489e+001
1.625605e+003,1.894894e+001
1.626569e+003,1.897665e+001
1.627533e+003,1.850650e+001
1.628498e+003,1.756656e+001
1.629462e+003,1.689642e+001
1.630426e+003,1.753165e+001
1.631390e+003,1.879356e+001
1.632354e+003,1.904767e+001
1.633319e+003,1.798645e+001
1.634283e+003,1.686806e+001
1.635247e+003,1.652298e+001
1.636211e+003,1.690536e+001
1.637176e+003,1.854004e+001
1.638140e+003,2.126089e+001
1.639104e+003,2.156627e+001
1.640068e+003,1.836125e+001
1.641033e+003,1.648106e+001
1.641997e+003,1.826312e+001
1.642961e+003,2.004897e+001
1.643925e+003,2.015645e+001
1.644890e+003,1.928815e+001
1.645854e+003,1.741060e+001
1.646818e+003,1.526309e+001
1.647782e+003,1.476320e+001
1.648747e+003,1.634059e+001
1.649711e+003,1.760953e+001
1.650675e+003,1.639496e+001
1.651639e+003,1.423643e+001
1.652604e+003,1.453665e+001
1.653568e+003,1.712738e+001
1.654532e+003,1.843678e+001
1.655496e+003,1.798839e+001
1.656460e+003,1.730508e+001
1.657425e+003,1.652376e+001
1.658389e+003,1.606142e+001
1.659353e+003,1.660387e+001
1.660317e+003,1.719418e+001
1.661281e+003,1.681200e+001
1.662246e+003,1.552245e+001
1.663210e+003,1.356572e+001
1.664174e+003,1.112463e+001
1.665138e+003,9.558060e+000
1.666103e+003,1.014902e+001
1.667067e+003,1.199791e+001
1.668031e+003,1.371448e+001
1.668995e+003,1.523735e+001
1.669960e+003,1.517023e+001
1.670924e+003,1.286786e+001
1.671888e+003,1.143501e+001
1.672852e+003,1.247083e+001
1.673817e+003,1.357211e+001
1.674781e+003,1.276833e+001
1.675745e+003,1.154192e+001
1.676709e+003,1.176472e+001
1.677674e+003,1.301767e+001
1.678638e+003,1.349333e+001
1.679602e+003,1.264206e+001
1.680566e+003,1.189462e+001
1.681531e+003,1.268756e+001
1.682495e+003,1.389594e+001
1.683459e+003,1.318663e+001
1.684423e+003,1.091383e+001
1.685387e+003,9.760590e+000
1.686352e+003,1.013254e+001
1.687316e+003,1.037373e+001
1.688280e+003,9.651276e+000
1.689244e+003,9.252579e+000
1.690208e+003,1.098120e+001
1.691173e+003,1.290543e+001
1.692137e+003,1.276541e+001
1.693101e+003,1.104832e+001
1.694065e+003,9.250641e+000
1.695030e+003,7.642502e+000
1.695994e+003,6.440308e+000
1.696958e+003,5.755585e+000
1.697922e+003,5.664398e+000
1.698887e+003,6.916458e+000
1.699851e+003,8.755127e+000
1.700815e+003,8.365341e+000
1.701779e+003,5.546310e+000
1.702744e+003,3.551971e+000
1.703708e+003,3.578827e+000
1.704672e+003,4.235199e+000
1.705636e+003,4.412659e+000
1.706601e+003,4.581528e+000
1.707565e+003,5.955307e+000
1.708529e+003,8.046509e+000
1.709493e+003,9.172729e+000
1.710458e+003,9.131973e+000
1.711422e+003,8.109161e+000
1.712386e+003,4.909302e+000
1.713350e+003,2.395187e+000
1.714314e+003,3.559540e+000
1.715279e+003,6.353149e+000
1.716243e+003,7.473114e+000
1.717207e+003,6.928574e+000
1.718171e+003,6.289352e+000
1.719135e+003,6.010284e+000
1.720100e+003,5.176636e+000
1.721064e+003,2.923615e+000
1.722028e+003,4.743652e-001
1.722992e+003,-2.602386e-001
1.723957e+003,4.931641e-001
1.724921e+003,8.843384e-001
1.725885e+003,6.415710e-001
1.726849e+003,9.490051e-001
1.727814e+003,2.761734e+000
1.728778e+003,4.378403e+000
1.729742e+003,4.857895e+000
1.730706e+003,4.958023e+000
1.731671e+003,5.470245e+000
1.732635e+003,6.037231e+000
1.733599e+003,5.618057e+000
1.734563e+003,4.415466e+000
1.735528e+003,4.530594e+000
1.736492e+003,7.022430e+000
1.737456e+003,9.091354e+000
1.738420e+003,7.204926e+000
1.739385e+003,2.687561e+000
1.740349e+003,6.955566e-001
1.741313e+003,1.863617e+000
1.742277e+003,2.639114e+000
1.743241e+003,3.160141e+000
1.744206e+003,3.234207e+000
1.745170e+003,2.211761e+000
1.746134e+003,1.376465e+000
1.747098e+003,1.865219e+000
1.748063e+003,2.589905e+000
1.749027e+003,2.047897e+000
1.749991e+003,6.132202e-001
1.750955e+003,-3.703003e-001
1.751919e+003,-4.349365e-001
1.752884e+003,-4.638672e-003
1.753848e+003,5.773621e-001
1.754812e+003,1.234314e+000
1.755776e+003,1.933197e+000
1.756741e+003,2.712555e+000
1.757705e+003,2.578812e+000
1.758669e+003,9.041901e-001
1.759633e+003,-4.028320e-003
1.760598e+003,5.593109e-001
1.761562e+003,1.129669e+000
1.762526e+003,1.670959e+000
1.763490e+003,1.807465e+000
1.764455e+003,6.749573e-001
1.765419e+003,-7.080688e-001
1.766383e+003,-5.610657e-001
1.767347e+003,9.785461e-001
1.768312e+003,2.225418e+000
1.769276e+003,2.375412e+000
1.770240e+003,1.638489e+000
1.771204e+003,-8.734131e-002
1.772168e+003,-2.019440e+000
1.773133e+003,-2.385651e+000
1.774097e+003,-1.335800e+000
1.775061e+003,-2.355042e-001
1.776025e+003,7.885742e-001
1.776990e+003,1.194565e+000
1.777954e+003,4.448547e-001
1.778918e+003,1.134186e-001
1.779882e+003,2.152588e+000
1.780846e+003,4.445816e+000
1.781811e+003,3.752838e+000
1.782775e+003,1.031448e+000
1.783739e+003,-5.633850e-001
1.784703e+003,-5.058899e-001
1.785668e+003,-9.391785e-002
1.786632e+003,3.685455e-001
1.787596e+003,5.454865e-001
1.788560e+003,-1.866302e-001
1.789525e+003,-8.976135e-001
1.790489e+003,3.955078e-002
1.791453e+003,1.992279e+000
1.792417e+003,2.769882e+000
1.793382e+003,2.021988e+000
1.794346e+003,1.391174e+000
1.795310e+003,1.758194e+000
1.796274e+003,2.259750e+000
1.797239e+003,1.914810e+000
1.798203e+003,1.117401e+000
1.799167e+003,8.791199e-001
1.800131e+003,1.178482e+000
1.801095e+003,1.149658e+000
1.802060e+003,6.195221e-001
1.803024e+003,3.504028e-001
1.803988e+003,4.168243e-001
1.804952e+003,6.531677e-001
1.805917e+003,1.057480e+000
1.806881e+003,1.524307e+000
1.807845e+003,2.246918e+000
1.808809e+003,2.895721e+000
1.809773e+003,2.614166e+000
1.810738e+003,1.448196e+000
1.811702e+003,6.365509e-001
1.812666e+003,9.355621e-001
1.813630e+003,1.607040e+000
1.814595e+003,1.665833e+000
1.815559e+003,1.239456e+000
1.816523e+003,9.616089e-001
1.817487e+003,8.882294e-001
1.818452e+003,4.859619e-001
1.819416e+003,-4.562225e-001
1.820380e+003,-9.650726e-001
1.821344e+003,-4.225159e-001
1.822309e+003,-4.006958e-002
1.823273e+003,-8.038483e-001
1.824237e+003,-1.751083e+000
1.825201e+003,-1.915237e+000
1.826166e+003,-1.506577e+000
1.827130e+003,-1.179276e+000
1.828094e+003,-1.067200e+000
1.829058e+003,-7.309570e-001
1.830022e+003,3.981934e-001
1.830987e+003,1.155304e+000
1.831951e+003,2.822876e-002
1.832915e+003,-1.656082e+000
1.833879e+003,-1.734039e+000
1.834844e+003,-7.222137e-001
1.835808e+003,-5.326233e-001
1.836772e+003,-1.373230e+000
1.837736e+003,-2.135086e+000
1.838700e+003,-2.387726e+000
1.839665e+003,-1.970001e+000
1.840629e+003,-5.319672e-001
1.841593e+003,1.231903e+000
1.842557e+003,1.714050e+000
1.843522e+003,9.356232e-001
1.844486e+003,7.926788e-001
1.845450e+003,2.396423e+000
1.846414e+003,2.625214e+000
1.847379e+003,-2.431793e-001
1.848343e+003,-2.332901e+000
1.849307e+003,-1.568878e+000
1.850271e+003,-5.561523e-001
1.851236e+003,-1.575378e+000
1.852200e+003,-3.243271e+000
1.853164e+003,-3.521515e+000
1.854128e+003,-2.485855e+000
1.855093e+003,-1.183853e+000
1.856057e+003,-6.571960e-002
1.857021e+003,5.494080e-001
1.857985e+003,3.048859e-001
1.858949e+003,-3.713989e-001
1.859914e+003,-8.436127e-001
1.860878e+003,-1.061752e+000
1.861842e+003,-6.688232e-001
1.862806e+003,3.383789e-001
1.863771e+003,5.984955e-001
1.864735e+003,-3.391266e-001
1.865699e+003,-1.071030e+000
1.866663e+003,-6.424255e-001
1.867627e+003,-3.919830e-001
1.868592e+003,-2.109619e+000
1.869556e+003,-4.532730e+000
1.870520e+003,-5.010574e+000
1.871484e+003,-3.836151e+000
1.872449e+003,-2.907883e+000
1.873413e+003,-2.308640e+000
1.874377e+003,-1.550613e+000
1.875341e+003,-3.321381e-001
1.876306e+003,5.339203e-001
1.877270e+003,4.565430e-001
1.878234e+003,-8.120728e-002
1.879198e+003,-8.636017e-001
1.880163e+003,-1.547546e+000
1.881127e+003,-1.619247e+000
1.882091e+003,-1.052200e+000
1.883055e+003,1.072083e-001
1.884020e+003,1.675552e+000
1.884984e+003,2.470871e+000
1.885948e+003,1.383102e+000
1.886912e+003,-5.754547e-001
1.887876e+003,-1.346558e+000
1.888841e+003,-1.031616e+000
1.889805e+003,-9.771881e-001
1.890769e+003,-1.292999e+000
1.891733e+003,-1.229813e+000
1.892698e+003,-5.216217e-001
1.893662e+003,-4.042053e-002
1.894626e+003,-4.656982e-002
1.895590e+003,-3.615875e-001
1.896554e+003,-1.052765e+000
1.897519e+003,-1.773743e+000
1.898483e+003,-2.273712e+000
1.899447e+003,-2.540009e+000
1.900411e+003,-2.288025e+000
1.901376e+003,-1.402298e+000
1.902340e+003,-7.981415e-001
1.903304e+003,-9.774628e-001
1.904268e+003,-1.294510e+000
1.905233e+003,-1.134186e+000
1.906197e+003,-1.077728e+000
1.907161e+003,-2.068649e+000
1.908125e+003,-3.404129e+000
1.909090e+003,-3.842361e+000
1.910054e+003,-3.391296e+000
1.911018e+003,-2.559341e+000
1.911982e+003,-1.595963e+000
1.912947e+003,-9.773712e-001
1.913911e+003,-1.070648e+000
1.914875e+003,-1.349686e+000
1.915839e+003,-9.826965e-001
1.916803e+003,-2.069397e-001
1.917768e+003,5.560303e-002
1.918732e+003,-1.664124e-001
1.919696e+003,-8.855286e-001
1.920660e+003,-2.520737e+000
1.921625e+003,-3.297668e+000
1.922589e+003,-2.436020e+000
1.923553e+003,-1.398483e+000
1.924517e+003,-8.568115e-001
1.925481e+003,-5.371094e-001
1.926446e+003,-1.887512e-002
1.927410e+003,3.923492e-001
1.928374e+003,-3.035583e-001
1.929338e+003,-2.022217e+000
1.930303e+003,-2.521225e+000
1.931267e+003,-6.715851e-001
1.932231e+003,9.135437e-001
1.933195e+003,9.902039e-001
1.934160e+003,3.497772e-001
1.935124e+003,-9.696808e-001
1.936088e+003,-2.285080e+000
1.937052e+003,-2.589737e+000
1.938017e+003,-2.196335e+000
1.938981e+003,-1.980560e+000
1.939945e+003,-2.088516e+000
1.940909e+003,-2.198074e+000
1.941874e+003,-2.150528e+000
1.942838e+003,-1.825439e+000
1.943802e+003,-1.018494e+000
1.944766e+003,-8.650208e-002
1.945730e+003,9.982300e-002
1.946695e+003,-4.226685e-001
1.947659e+003,-1.130966e+000
1.948623e+003,-2.134811e+000
1.949587e+003,-2.064743e+000
1.950552e+003,-2.590179e-001
1.951516e+003,4.978027e-001
1.952480e+003,-1.495941e+000
1.953444e+003,-3.044998e+000
1.954408e+003,-1.369431e+000
1.955373e+003,1.342300e+000
1.956337e+003,2.187592e+000
1.957301e+003,1.615082e+000
1.958265e+003,8.545074e-001
1.959230e+003,-1.064911e-001
1.960194e+003,-8.323059e-001
1.961158e+003,-1.791061e+000
1.962122e+003,-1.924927e+000
1.963087e+003,6.207275e-002
1.964051e+003,1.735306e+000
1.965015e+003,1.666183e+000
1.965979e+003,7.666626e-001
1.966944e+003,-5.046844e-001
1.967908e+003,-1.714142e+000
1.968872e+003,-2.132706e+000
1.969836e+003,-1.857742e+000
1.970801e+003,-1.912704e+000
1.971765e+003,-2.673859e+000
1.972729e+003,-3.030365e+000
1.973693e+003,-1.920364e+000
1.974657e+003,-2.928772e-001
1.975622e+003,4.638214e-001
1.976586e+003,5.640411e-001
1.977550e+003,5.948944e-001
1.978514e+003,6.126099e-001
1.979479e+003,7.408905e-001
1.980443e+003,9.636383e-001
1.981407e+003,9.014282e-001
1.982371e+003,4.189606e-001
1.983335e+003,2.764893e-002
1.984300e+003,8.265686e-002
1.985264e+003,3.499298e-001
1.986228e+003,5.397797e-001
1.987192e+003,6.455688e-001
1.988157e+003,6.545715e-001
1.989121e+003,6.470490e-001
1.990085e+003,1.976776e-001
1.991049e+003,-1.496429e+000
1.992014e+003,-1.923370e+000
1.992978e+003,3.274231e-001
1.993942e+003,2.293106e+000
1.994906e+003,3.021912e+000
1.995871e+003,3.067642e+000
1.996835e+003,2.401718e+000
1.997799e+003,1.606903e+000
1.998763e+003,1.663345e+000
1.999728e+003,2.312531e+000
