5.003444e+002,1.752996e+002
5.013087e+002,1.731482e+002
5.022729e+002,1.702276e+002
5.032371e+002,1.671390e+002
5.042014e+002,1.633503e+002
5.051656e+002,1.591572e+002
5.061298e+002,1.553264e+002
5.070941e+002,1.524199e+002
5.080583e+002,1.502717e+002
5.090225e+002,1.480491e+002
5.099868e+002,1.448698e+002
5.109510e+002,1.424374e+002
5.119152e+002,1.421229e+002
5.128795e+002,1.441802e+002
5.138437e+002,1.457087e+002
5.148079e+002,1.458823e+002
5.157722e+002,1.455234e+002
5.167364e+002,1.446972e+002
5.177006e+002,1.432435e+002
5.186649e+002,1.408690e+002
5.196291e+002,1.372636e+002
5.205933e+002,1.337872e+002
5.215576e+002,1.307510e+002
5.225218e+002,1.278621e+002
5.234860e+002,1.252775e+002
5.244503e+002,1.240168e+002
5.254145e+002,1.255870e+002
5.263787e+002,1.253615e+002
5.273430e+002,1.225977e+002
5.283072e+002,1.185667e+002
5.292714e+002,1.145406e+002
5.302357e+002,1.090322e+002
5.311999e+002,1.049937e+002
5.321641e+002,1.039763e+002
5.331284e+002,1.046767e+002
5.340926e+002,1.065011e+002
5.350568e+002,1.090945e+002
5.360211e+002,1.097348e+002
5.369853e+002,1.054076e+002
5.379495e+002,9.977441e+001
5.389138e+002,9.550787e+001
5.398780e+002,9.352551e+001
5.408422e+002,9.274414e+001
5.418065e+002,9.016339e+001
5.427707e+002,8.614148e+001
5.437349e+002,8.353259e+001
5.446992e+002,8.329462e+001
5.456634e+002,8.466223e+001
5.466276e+002,8.517548e+001
5.475919e+002,8.488654e+001
5.485561e+002,8.389661e+001
5.495203e+002,8.159247e+001
5.504846e+002,7.831390e+001
5.514488e+002,7.452173e+001
5.524130e+002,7.001508e+001
5.533773e+002,6.694885e+001
5.543415e+002,6.693347e+001
5.553057e+002,6.823553e+001
5.562700e+002,6.889917e+001
5.572342e+002,6.765515e+001
5.581984e+002,6.548798e+001
5.591627e+002,6.593958e+001
5.601269e+002,6.812793e+001
5.610911e+002,6.922247e+001
5.620554e+002,6.751184e+001
5.630196e+002,6.315027e+001
5.639838e+002,5.961517e+001
5.649481e+002,5.784875e+001
5.659123e+002,5.560925e+001
5.668765e+002,5.254047e+001
5.678408e+002,4.952747e+001
5.688050e+002,4.825403e+001
5.697692e+002,4.975995e+001
5.707335e+002,5.035681e+001
5.716977e+002,4.881586e+001
5.726619e+002,4.626636e+001
5.736262e+002,4.416687e+001
5.745904e+002,4.354388e+001
5.755546e+002,4.415436e+001
5.765189e+002,4.525848e+001
5.774831e+002,4.616394e+001
5.784473e+002,4.637787e+001
5.794116e+002,4.581439e+001
5.803758e+002,4.492194e+001
5.813400e+002,4.435156e+001
5.823043e+002,4.371472e+001
5.832685e+002,4.204218e+001
5.842327e+002,3.885663e+001
5.851970e+002,3.490167e+001
5.861612e+002,3.255511e+001
5.871254e+002,3.247638e+001
5.880897e+002,3.298645e+001
5.890539e+002,3.466534e+001
5.900181e+002,3.622614e+001
5.909824e+002,3.563824e+001
5.919466e+002,3.106683e+001
5.929108e+002,2.578638e+001
5.938751e+002,2.304224e+001
5.948393e+002,2.205566e+001
5.958035e+002,2.199017e+001
5.967678e+002,2.227570e+001
5.977320e+002,2.298199e+001
5.986962e+002,2.252991e+001
5.996605e+002,2.023193e+001
6.006247e+002,1.808002e+001
6.015889e+002,1.645087e+001
6.025532e+002,1.553711e+001
6.035174e+002,1.698944e+001
6.044816e+002,2.675110e+001
6.054459e+002,3.250555e+001
6.064101e+002,2.923816e+001
6.073743e+002,2.118854e+001
6.083386e+002,1.644708e+001
6.093028e+002,2.071667e+001
6.102670e+002,2.648920e+001
6.112313e+002,2.730402e+001
6.121955e+002,2.559259e+001
6.131597e+002,2.489685e+001
6.141240e+002,2.756177e+001
6.150882e+002,3.207721e+001
6.160524e+002,3.159167e+001
6.170167e+002,2.730457e+001
6.179809e+002,2.354364e+001
6.189451e+002,2.195740e+001
6.199094e+002,2.203827e+001
6.208736e+002,2.199072e+001
6.218378e+002,2.301361e+001
6.228021e+002,2.366589e+001
6.237663e+002,2.369739e+001
6.247305e+002,2.350354e+001
6.256948e+002,2.359680e+001
6.266590e+002,2.403369e+001
6.276232e+002,2.357159e+001
6.285875e+002,2.190802e+001
6.295517e+002,1.984271e+001
6.305159e+002,1.796027e+001
6.314802e+002,1.642725e+001
6.324444e+002,1.483563e+001
6.334086e+002,1.244183e+001
6.343729e+002,1.002991e+001
6.353371e+002,8.939880e+000
6.363013e+002,9.757996e+000
6.372656e+002,1.159326e+001
6.382298e+002,1.170520e+001
6.391940e+002,7.707520e+000
6.401583e+002,4.597473e+000
6.411225e+002,3.546997e+000
6.420867e+002,3.992249e+000
6.430510e+002,5.044189e+000
6.440152e+002,6.297913e+000
6.449794e+002,6.725708e+000
6.459437e+002,6.398010e+000
6.469079e+002,4.954041e+000
6.478721e+002,9.869385e-001
6.488364e+002,-5.207153e+000
6.498006e+002,-1.032239e+001
6.507648e+002,-6.746765e+000
6.517291e+002,1.810242e+000
6.526933e+002,6.651611e+000
6.536575e+002,6.029175e+000
6.546218e+002,1.928528e+000
6.555860e+002,-1.955627e+000
6.565502e+002,-6.262024e+000
6.575145e+002,-8.750732e+000
6.584787e+002,-8.271301e+000
6.594429e+002,-7.073730e+000
6.604072e+002,-6.999817e+000
6.613714e+002,-8.410522e+000
6.623356e+002,-9.475586e+000
6.632999e+002,-1.025677e+001
6.642641e+002,-1.041760e+001
6.652283e+002,-8.527344e+000
6.661926e+002,-4.911255e+000
6.671568e+002,-1.386169e+000
6.681210e+002,-4.143066e-001
6.690853e+002,-1.804382e+000
6.700495e+002,-4.438171e+000
6.710137e+002,-8.057983e+000
6.719780e+002,-1.047192e+001
6.729422e+002,-9.147400e+000
6.739064e+002,-3.118591e+000
6.748707e+002,-5.165405e-001
6.758349e+002,-2.927246e+000
6.767991e+002,-6.041382e+000
6.777634e+002,-8.019836e+000
6.787276e+002,-8.498230e+000
6.796918e+002,-7.866882e+000
6.806561e+002,-6.137573e+000
6.816203e+002,-4.408447e+000
6.825845e+002,-2.562256e+000
6.835488e+002,-1.072021e+000
6.845130e+002,-8.710327e-001
6.854772e+002,-2.759521e+000
6.864415e+002,-4.792419e+000
6.874057e+002,-2.891113e+000
6.883699e+002,1.086060e+000
6.893342e+002,3.796082e+000
6.902984e+002,3.462097e+000
6.912626e+002,7.313232e-001
6.922269e+002,-1.062012e+000
6.931911e+002,-7.080078e-003
6.941553e+002,9.569702e-001
6.951196e+002,3.801270e-001
6.960838e+002,-9.584351e-001
6.970480e+002,-1.231506e+000
6.980123e+002,7.695313e-001
6.989765e+002,2.479797e+000
6.999407e+002,3.172974e+000
7.009050e+002,2.849915e+000
7.018692e+002,8.898315e-001
7.028334e+002,-2.668274e+000
7.037977e+002,-6.437683e+000
7.047619e+002,-7.530273e+000
7.057261e+002,-6.673035e+000
7.066904e+002,-6.058044e+000
7.076546e+002,-6.065186e+000
7.086188e+002,-6.644470e+000
7.095831e+002,-7.883850e+000
7.105473e+002,-1.087463e+001
7.115115e+002,-1.168347e+001
7.124758e+002,-9.698608e+000
7.134400e+002,-7.017151e+000
7.144042e+002,-3.793579e+000
7.153685e+002,-1.654053e-002
7.163327e+002,1.791199e+000
7.172969e+002,-1.928711e+000
7.182612e+002,-5.664612e+000
7.192254e+002,-7.524780e+000
7.201896e+002,-7.855042e+000
7.211539e+002,-7.780823e+000
7.221181e+002,-8.175049e+000
7.230823e+002,-8.578796e+000
7.240466e+002,-7.327209e+000
7.250108e+002,-4.475586e+000
7.259750e+002,-2.131348e+000
7.269393e+002,-2.128479e+000
7.279035e+002,-4.642639e+000
7.288677e+002,-6.459717e+000
7.298320e+002,-5.778503e+000
7.307962e+002,-4.328735e+000
7.317604e+002,-1.331299e+000
7.327247e+002,2.174805e+000
7.336889e+002,4.029236e+000
7.346531e+002,2.255127e+000
7.356174e+002,2.472534e-001
7.365816e+002,2.289124e+000
7.375458e+002,5.109009e+000
7.385101e+002,5.919739e+000
7.394743e+002,4.132813e+000
7.404385e+002,1.339966e+000
7.414028e+002,-5.603027e-001
7.423670e+002,-2.493347e+000
7.433312e+002,-3.645996e+000
7.442955e+002,-3.012939e+000
7.452597e+002,-1.893738e+000
7.462239e+002,-2.750793e+000
7.471882e+002,-7.260742e+000
7.481524e+002,-7.210388e+000
7.491166e+002,4.990234e-001
7.500809e+002,6.825684e+000
7.510451e+002,8.459045e+000
7.520093e+002,5.888733e+000
7.529736e+002,1.450134e+000
7.539378e+002,-5.478394e+000
7.549020e+002,-9.753113e+000
7.558663e+002,-6.983521e+000
7.568306e+002,-6.125488e-001
7.577948e+002,4.493225e+000
7.587590e+002,5.271606e+000
7.597233e+002,3.113770e+000
7.606875e+002,3.637512e+000
7.616517e+002,6.799927e+000
7.626160e+002,8.176697e+000
7.635802e+002,6.184570e+000
7.645444e+002,2.535828e+000
7.655087e+002,5.932007e-001
7.664729e+002,6.405029e-001
7.674371e+002,1.689697e+000
7.684014e+002,5.209961e+000
7.693656e+002,8.030090e+000
7.703298e+002,7.152649e+000
7.712941e+002,2.833374e+000
7.722583e+002,-2.850342e-002
7.732225e+002,3.726074e+000
7.741868e+002,8.896912e+000
7.751510e+002,1.166162e+001
7.761152e+002,1.228845e+001
7.770795e+002,1.209753e+001
7.780437e+002,1.216327e+001
7.790079e+002,1.234937e+001
7.799722e+002,1.314496e+001
7.809364e+002,1.483783e+001
7.819006e+002,1.527002e+001
7.828649e+002,1.286926e+001
7.838291e+002,9.093933e+000
7.847933e+002,8.117065e+000
7.857576e+002,1.138824e+001
7.867218e+002,1.369983e+001
7.876860e+002,1.529150e+001
7.886503e+002,1.595337e+001
7.896145e+002,1.497327e+001
7.905787e+002,1.235065e+001
7.915430e+002,9.757202e+000
7.925072e+002,7.787231e+000
7.934714e+002,6.815186e+000
7.944357e+002,9.054932e+000
7.953999e+002,1.426178e+001
7.963641e+002,1.952209e+001
7.973284e+002,2.130713e+001
7.982926e+002,1.934723e+001
7.992568e+002,1.895343e+001
8.002211e+002,2.059827e+001
8.011853e+002,2.026270e+001
8.021495e+002,1.587622e+001
8.031138e+002,9.666626e+000
8.040780e+002,7.359924e+000
8.050422e+002,1.157477e+001
8.060065e+002,1.568134e+001
8.069707e+002,1.633441e+001
8.079349e+002,1.587354e+001
8.088992e+002,1.766711e+001
8.098634e+002,2.275433e+001
8.108276e+002,2.770355e+001
8.117919e+002,2.578113e+001
8.127561e+002,1.933960e+001
8.137203e+002,1.519348e+001
8.146846e+002,1.467572e+001
8.156488e+002,1.560358e+001
8.166130e+002,1.476538e+001
8.175773e+002,1.127283e+001
8.185415e+002,1.052686e+001
8.195057e+002,1.317529e+001
8.204700e+002,1.613037e+001
8.214342e+002,1.932355e+001
8.223984e+002,2.206293e+001
8.233627e+002,2.248572e+001
8.243269e+002,1.894232e+001
8.252911e+002,1.542389e+001
8.262554e+002,1.349945e+001
8.272196e+002,1.302521e+001
8.281838e+002,1.452863e+001
8.291481e+002,1.773883e+001
8.301123e+002,2.088336e+001
8.310765e+002,2.044611e+001
8.320408e+002,1.667743e+001
8.330050e+002,1.510010e+001
8.339692e+002,1.643945e+001
8.349335e+002,1.905231e+001
8.358977e+002,2.179120e+001
8.368619e+002,2.512201e+001
8.378262e+002,2.752570e+001
8.387904e+002,2.809222e+001
8.397546e+002,2.782819e+001
8.407189e+002,2.652808e+001
8.416831e+002,2.475964e+001
8.426473e+002,2.336945e+001
8.436116e+002,2.281146e+001
8.445758e+002,2.276740e+001
8.455400e+002,2.152258e+001
8.465043e+002,2.002533e+001
8.474685e+002,2.089355e+001
8.484327e+002,2.483630e+001
8.493970e+002,2.960760e+001
8.503612e+002,3.063629e+001
8.513254e+002,2.674194e+001
8.522897e+002,2.577979e+001
8.532539e+002,2.909589e+001
8.542181e+002,3.247229e+001
8.551824e+002,3.347113e+001
8.561466e+002,3.304871e+001
8.571108e+002,3.484082e+001
8.580751e+002,3.940454e+001
8.590393e+002,4.396442e+001
8.600035e+002,4.920288e+001
8.609678e+002,5.411572e+001
8.619320e+002,5.704761e+001
8.628962e+002,5.743384e+001
8.638605e+002,5.726337e+001
8.648247e+002,5.997119e+001
8.657889e+002,6.421625e+001
8.667532e+002,6.753125e+001
8.677174e+002,6.957959e+001
8.686816e+002,7.067444e+001
8.696459e+002,7.123828e+001
8.706101e+002,7.151563e+001
8.715743e+002,7.162537e+001
8.725386e+002,7.071094e+001
8.735028e+002,7.081879e+001
8.744670e+002,7.190076e+001
8.754313e+002,7.369965e+001
8.763955e+002,7.654346e+001
8.773597e+002,8.132874e+001
8.783240e+002,8.554370e+001
8.792882e+002,8.678516e+001
8.802524e+002,8.664032e+001
8.812167e+002,8.613879e+001
8.821809e+002,8.578094e+001
8.831451e+002,8.582349e+001
8.841094e+002,8.664532e+001
8.850736e+002,8.875842e+001
8.860378e+002,9.294171e+001
8.870021e+002,9.944269e+001
8.879663e+002,1.055939e+002
8.889305e+002,1.099164e+002
8.898948e+002,1.123629e+002
8.908590e+002,1.133877e+002
8.918232e+002,1.122896e+002
8.927875e+002,1.118875e+002
8.937517e+002,1.130317e+002
8.947159e+002,1.148676e+002
8.956802e+002,1.165475e+002
8.966444e+002,1.174996e+002
8.976086e+002,1.174326e+002
8.985729e+002,1.161064e+002
8.995371e+002,1.147705e+002
9.005013e+002,1.148050e+002
9.014656e+002,1.163495e+002
9.024298e+002,1.188059e+002
9.033940e+002,1.214843e+002
9.043583e+002,1.238607e+002
9.053225e+002,1.252541e+002
9.062867e+002,1.249918e+002
9.072510e+002,1.236200e+002
9.082152e+002,1.197833e+002
9.091794e+002,1.169872e+002
9.101437e+002,1.195249e+002
9.111079e+002,1.280827e+002
9.120721e+002,1.359171e+002
9.130364e+002,1.385060e+002
9.140006e+002,1.385054e+002
9.149648e+002,1.369459e+002
9.159291e+002,1.348180e+002
9.168933e+002,1.328068e+002
9.178575e+002,1.311620e+002
9.188218e+002,1.298206e+002
9.197860e+002,1.299633e+002
9.207502e+002,1.314351e+002
9.217145e+002,1.312947e+002
9.226787e+002,1.295212e+002
9.236429e+002,1.267351e+002
9.246072e+002,1.226235e+002
9.255714e+002,1.160657e+002
9.265356e+002,1.118572e+002
9.274999e+002,1.128641e+002
9.284641e+002,1.135779e+002
9.294283e+002,1.124208e+002
9.303926e+002,1.099568e+002
9.313568e+002,1.074772e+002
9.323210e+002,1.056301e+002
9.332853e+002,1.035129e+002
9.342495e+002,9.845239e+001
9.352137e+002,9.227667e+001
9.361780e+002,8.882977e+001
9.371422e+002,8.928253e+001
9.381064e+002,9.141193e+001
9.390707e+002,9.161414e+001
9.400349e+002,8.877924e+001
9.409991e+002,8.771869e+001
9.419634e+002,8.990295e+001
9.429276e+002,9.144586e+001
9.438918e+002,9.099542e+001
9.448561e+002,8.959656e+001
9.458203e+002,8.943677e+001
9.467845e+002,9.170001e+001
9.477488e+002,9.314899e+001
9.487130e+002,8.880048e+001
9.496772e+002,8.418066e+001
9.506415e+002,8.446021e+001
9.516057e+002,8.925079e+001
9.525699e+002,9.438690e+001
9.535342e+002,9.571832e+001
9.544984e+002,9.358118e+001
9.554626e+002,9.299353e+001
9.564269e+002,9.558917e+001
9.573911e+002,9.616156e+001
9.583553e+002,9.062726e+001
9.593196e+002,8.309888e+001
9.602838e+002,8.115515e+001
9.612480e+002,8.664117e+001
9.622123e+002,9.025958e+001
9.631765e+002,8.833386e+001
9.641407e+002,8.539630e+001
9.651050e+002,8.255310e+001
9.660692e+002,8.012463e+001
9.670334e+002,7.858527e+001
9.679977e+002,7.855469e+001
9.689619e+002,7.960895e+001
9.699261e+002,7.877380e+001
9.708904e+002,7.688672e+001
9.718546e+002,7.834430e+001
9.728188e+002,8.411853e+001
9.737831e+002,9.251843e+001
9.747473e+002,1.021425e+002
9.757115e+002,1.137040e+002
9.766758e+002,1.235699e+002
9.776400e+002,1.342731e+002
9.786042e+002,1.410853e+002
9.795685e+002,1.428752e+002
9.805327e+002,1.392275e+002
9.814969e+002,1.281824e+002
9.824612e+002,1.093723e+002
9.834254e+002,9.138184e+001
9.843896e+002,8.239355e+001
9.853539e+002,7.814246e+001
9.863181e+002,7.530011e+001
9.872823e+002,7.291632e+001
9.882466e+002,7.052667e+001
9.892108e+002,6.826947e+001
9.901750e+002,6.683551e+001
9.911393e+002,6.607910e+001
9.921035e+002,6.375348e+001
9.930677e+002,6.302728e+001
9.940320e+002,6.504352e+001
9.949962e+002,6.896039e+001
9.959604e+002,7.459741e+001
9.969247e+002,8.187146e+001
9.978889e+002,8.875879e+001
9.988531e+002,9.317236e+001
9.998174e+002,9.668158e+001
1.000782e+003,1.015491e+002
1.001746e+003,1.066671e+002
1.002710e+003,1.101503e+002
1.003674e+003,1.110950e+002
1.004639e+003,1.100660e+002
1.005603e+003,1.080455e+002
1.006567e+003,1.046944e+002
1.007531e+003,1.003698e+002
1.008495e+003,9.387073e+001
1.009460e+003,8.889758e+001
1.010424e+003,8.897308e+001
1.011388e+003,9.279028e+001
1.012352e+003,9.448749e+001
1.013317e+003,9.233447e+001
1.014281e+003,8.936359e+001
1.015245e+003,8.708496e+001
1.016209e+003,8.368036e+001
1.017174e+003,7.682635e+001
1.018138e+003,6.750677e+001
1.019102e+003,5.968744e+001
1.020066e+003,5.704419e+001
1.021031e+003,5.738263e+001
1.021995e+003,5.250745e+001
1.022959e+003,4.315289e+001
1.023923e+003,3.554309e+001
1.024887e+003,3.194672e+001
1.025852e+003,3.034656e+001
1.026816e+003,2.767682e+001
1.027780e+003,2.389447e+001
1.028744e+003,2.119257e+001
1.029709e+003,1.923175e+001
1.030673e+003,1.871295e+001
1.031637e+003,2.148877e+001
1.032601e+003,2.486853e+001
1.033566e+003,2.516345e+001
1.034530e+003,2.128601e+001
1.035494e+003,1.603302e+001
1.036458e+003,1.067169e+001
1.037422e+003,6.786255e+000
1.038387e+003,8.582764e+000
1.039351e+003,1.521588e+001
1.040315e+003,2.019147e+001
1.041279e+003,1.851917e+001
1.042244e+003,1.208575e+001
1.043208e+003,9.300354e+000
1.044172e+003,1.260809e+001
1.045136e+003,1.458838e+001
1.046101e+003,1.468640e+001
1.047065e+003,1.439038e+001
1.048029e+003,1.432520e+001
1.048993e+003,1.446979e+001
1.049958e+003,1.476605e+001
1.050922e+003,1.543079e+001
1.051886e+003,1.651221e+001
1.052850e+003,1.877698e+001
1.053814e+003,2.094409e+001
1.054779e+003,2.047333e+001
1.055743e+003,1.719147e+001
1.056707e+003,1.420038e+001
1.057671e+003,1.539337e+001
1.058636e+003,2.070435e+001
1.059600e+003,2.383411e+001
1.060564e+003,2.525525e+001
1.061528e+003,2.527039e+001
1.062493e+003,2.120117e+001
1.063457e+003,1.650293e+001
1.064421e+003,1.627930e+001
1.065385e+003,2.114697e+001
1.066349e+003,2.456628e+001
1.067314e+003,2.248657e+001
1.068278e+003,1.875244e+001
1.069242e+003,1.493774e+001
1.070206e+003,1.210864e+001
1.071171e+003,1.211804e+001
1.072135e+003,1.518896e+001
1.073099e+003,1.864758e+001
1.074063e+003,1.820026e+001
1.075028e+003,1.345660e+001
1.075992e+003,1.268793e+001
1.076956e+003,1.845477e+001
1.077920e+003,2.240363e+001
1.078885e+003,2.078046e+001
1.079849e+003,1.630383e+001
1.080813e+003,1.351294e+001
1.081777e+003,1.321277e+001
1.082741e+003,1.390277e+001
1.083706e+003,1.499493e+001
1.084670e+003,1.576154e+001
1.085634e+003,1.533844e+001
1.086598e+003,1.437506e+001
1.087563e+003,1.470892e+001
1.088527e+003,1.739392e+001
1.089491e+003,2.083386e+001
1.090455e+003,2.098749e+001
1.091420e+003,1.700159e+001
1.092384e+003,1.436029e+001
1.093348e+003,1.331903e+001
1.094312e+003,1.234955e+001
1.095276e+003,1.074841e+001
1.096241e+003,9.122253e+000
1.097205e+003,8.284119e+000
1.098169e+003,7.618958e+000
1.099133e+003,8.728394e+000
1.100098e+003,1.522595e+001
1.101062e+003,2.122986e+001
1.102026e+003,2.282648e+001
1.102990e+003,2.082697e+001
1.103955e+003,1.748224e+001
1.104919e+003,1.413409e+001
1.105883e+003,1.152368e+001
1.106847e+003,1.188202e+001
1.107812e+003,1.519238e+001
1.108776e+003,1.707703e+001
1.109740e+003,1.697559e+001
1.110704e+003,1.625513e+001
1.111668e+003,1.572479e+001
1.112633e+003,1.589191e+001
1.113597e+003,1.791498e+001
1.114561e+003,2.260364e+001
1.115525e+003,2.650592e+001
1.116490e+003,2.877966e+001
1.117454e+003,2.974133e+001
1.118418e+003,2.905023e+001
1.119382e+003,2.781549e+001
1.120347e+003,2.787531e+001
1.121311e+003,2.995813e+001
1.122275e+003,3.229803e+001
1.123239e+003,3.242737e+001
1.124203e+003,3.116016e+001
1.125168e+003,3.101501e+001
1.126132e+003,3.250659e+001
1.127096e+003,3.466766e+001
1.128060e+003,3.683752e+001
1.129025e+003,3.873871e+001
1.129989e+003,3.971179e+001
1.130953e+003,3.889154e+001
1.131917e+003,3.852332e+001
1.132882e+003,3.752313e+001
1.133846e+003,3.901013e+001
1.134810e+003,4.689166e+001
1.135774e+003,5.874353e+001
1.136739e+003,6.888867e+001
1.137703e+003,7.410297e+001
1.138667e+003,7.667419e+001
1.139631e+003,8.004492e+001
1.140595e+003,8.445361e+001
1.141560e+003,9.172064e+001
1.142524e+003,1.026633e+002
1.143488e+003,1.153243e+002
1.144452e+003,1.267214e+002
1.145417e+003,1.385389e+002
1.146381e+003,1.577730e+002
1.147345e+003,1.875467e+002
1.148309e+003,2.164688e+002
1.149274e+003,2.420795e+002
1.150238e+003,2.664099e+002
1.151202e+003,2.918662e+002
1.152166e+003,3.170023e+002
1.153130e+003,3.390019e+002
1.154095e+003,3.560326e+002
1.155059e+003,3.677467e+002
1.156023e+003,3.748329e+002
1.156987e+003,3.766857e+002
1.157952e+003,3.706812e+002
1.158916e+003,3.570443e+002
1.159880e+003,3.403414e+002
1.160844e+003,3.215584e+002
1.161809e+003,2.999889e+002
1.162773e+003,2.750396e+002
1.163737e+003,2.457921e+002
1.164701e+003,2.175356e+002
1.165666e+003,1.898282e+002
1.166630e+003,1.660915e+002
1.167594e+003,1.479123e+002
1.168558e+003,1.342814e+002
1.169522e+003,1.242083e+002
1.170487e+003,1.171417e+002
1.171451e+003,1.129617e+002
1.172415e+003,1.116945e+002
1.173379e+003,1.126923e+002
1.174344e+003,1.138283e+002
1.175308e+003,1.155977e+002
1.176272e+003,1.147808e+002
1.177236e+003,1.093993e+002
1.178201e+003,1.019778e+002
1.179165e+003,9.475928e+001
1.180129e+003,8.735028e+001
1.181093e+003,8.166718e+001
1.182057e+003,7.912183e+001
1.183022e+003,7.749554e+001
1.183986e+003,7.575598e+001
1.184950e+003,7.459961e+001
1.185914e+003,7.497363e+001
1.186879e+003,7.689008e+001
1.187843e+003,7.960901e+001
1.188807e+003,8.240692e+001
1.189771e+003,8.505481e+001
1.190736e+003,8.784418e+001
1.191700e+003,9.101428e+001
1.192664e+003,9.042371e+001
1.193628e+003,8.344452e+001
1.194593e+003,7.620538e+001
1.195557e+003,7.375061e+001
1.196521e+003,7.443579e+001
1.197485e+003,7.254681e+001
1.198449e+003,6.673175e+001
1.199414e+003,6.025385e+001
1.200378e+003,5.406836e+001
1.201342e+003,4.826569e+001
1.202306e+003,4.237354e+001
1.203271e+003,3.674762e+001
1.204235e+003,3.210480e+001
1.205199e+003,2.893469e+001
1.206163e+003,2.756879e+001
1.207128e+003,2.884125e+001
1.208092e+003,3.307971e+001
1.209056e+003,3.179041e+001
1.210020e+003,2.240118e+001
1.210984e+003,1.379926e+001
1.211949e+003,9.259277e+000
1.212913e+003,6.164368e+000
1.213877e+003,9.844971e-001
1.214841e+003,-6.310181e+000
1.215806e+003,-1.231342e+001
1.216770e+003,-1.561218e+001
1.217734e+003,-1.758588e+001
1.218698e+003,-1.848920e+001
1.219663e+003,-1.965485e+001
1.220627e+003,-2.314648e+001
1.221591e+003,-2.885571e+001
1.222555e+003,-3.452655e+001
1.223520e+003,-3.799219e+001
1.224484e+003,-3.947699e+001
1.225448e+003,-4.096014e+001
1.226412e+003,-4.293939e+001
1.227376e+003,-4.388702e+001
1.228341e+003,-4.248615e+001
1.229305e+003,-4.186011e+001
1.230269e+003,-4.519928e+001
1.231233e+003,-5.015436e+001
1.232198e+003,-5.105481e+001
1.233162e+003,-4.601752e+001
1.234126e+003,-4.119183e+001
1.235090e+003,-4.202557e+001
1.236055e+003,-4.486902e+001
1.237019e+003,-4.587573e+001
1.237983e+003,-4.553802e+001
1.238947e+003,-4.499475e+001
1.239911e+003,-4.453198e+001
1.240876e+003,-4.424689e+001
1.241840e+003,-4.459796e+001
1.242804e+003,-4.562555e+001
1.243768e+003,-4.608185e+001
1.244733e+003,-4.599652e+001
1.245697e+003,-4.514569e+001
1.246661e+003,-4.366821e+001
1.247625e+003,-4.206873e+001
1.248590e+003,-3.991669e+001
1.249554e+003,-3.746228e+001
1.250518e+003,-3.601050e+001
1.251482e+003,-3.643402e+001
1.252447e+003,-3.775226e+001
1.253411e+003,-3.903107e+001
1.254375e+003,-3.955994e+001
1.255339e+003,-3.812695e+001
1.256303e+003,-3.455432e+001
1.257268e+003,-2.992456e+001
1.258232e+003,-2.448907e+001
1.259196e+003,-1.986853e+001
1.260160e+003,-1.963965e+001
1.261125e+003,-2.470288e+001
1.262089e+003,-2.609656e+001
1.263053e+003,-1.979285e+001
1.264017e+003,-1.435815e+001
1.264982e+003,-1.244702e+001
1.265946e+003,-1.148334e+001
1.266910e+003,-8.092468e+000
1.267874e+003,-2.995117e+000
1.268839e+003,-1.273193e-001
1.269803e+003,-2.094666e+000
1.270767e+003,-7.040710e+000
1.271731e+003,-1.190894e+001
1.272695e+003,-1.635101e+001
1.273660e+003,-1.863263e+001
1.274624e+003,-1.848419e+001
1.275588e+003,-1.859851e+001
1.276552e+003,-2.004413e+001
1.277517e+003,-2.212067e+001
1.278481e+003,-2.421313e+001
1.279445e+003,-2.647479e+001
1.280409e+003,-2.802081e+001
1.281374e+003,-2.754272e+001
1.282338e+003,-2.754309e+001
1.283302e+003,-3.016846e+001
1.284266e+003,-3.351337e+001
1.285230e+003,-3.547156e+001
1.286195e+003,-3.576575e+001
1.287159e+003,-3.509900e+001
1.288123e+003,-3.386383e+001
1.289087e+003,-3.237946e+001
1.290052e+003,-3.248798e+001
1.291016e+003,-3.526831e+001
1.291980e+003,-3.694061e+001
1.292944e+003,-3.724664e+001
1.293909e+003,-3.762427e+001
1.294873e+003,-3.832178e+001
1.295837e+003,-3.893097e+001
1.296801e+003,-3.890466e+001
1.297766e+003,-3.823114e+001
1.298730e+003,-3.797058e+001
1.299694e+003,-3.956305e+001
1.300658e+003,-4.071155e+001
1.301622e+003,-3.692859e+001
1.302587e+003,-3.141357e+001
1.303551e+003,-3.013513e+001
1.304515e+003,-3.366431e+001
1.305479e+003,-3.734528e+001
1.306444e+003,-3.773169e+001
1.307408e+003,-3.568854e+001
1.308372e+003,-3.317493e+001
1.309336e+003,-2.934882e+001
1.310301e+003,-2.784448e+001
1.311265e+003,-3.066229e+001
1.312229e+003,-3.303333e+001
1.313193e+003,-3.334790e+001
1.314157e+003,-3.287030e+001
1.315122e+003,-3.275537e+001
1.316086e+003,-3.345532e+001
1.317050e+003,-3.543945e+001
1.318014e+003,-3.901550e+001
1.318979e+003,-4.223145e+001
1.319943e+003,-4.141589e+001
1.320907e+003,-3.685852e+001
1.321871e+003,-3.334900e+001
1.322836e+003,-3.168909e+001
1.323800e+003,-3.076221e+001
1.324764e+003,-3.019080e+001
1.325728e+003,-2.971552e+001
1.326693e+003,-2.867883e+001
1.327657e+003,-2.725269e+001
1.328621e+003,-2.785077e+001
1.329585e+003,-3.162262e+001
1.330549e+003,-3.435706e+001
1.331514e+003,-3.485706e+001
1.332478e+003,-3.446167e+001
1.333442e+003,-3.397668e+001
1.334406e+003,-3.329761e+001
1.335371e+003,-3.159723e+001
1.336335e+003,-2.849420e+001
1.337299e+003,-2.570911e+001
1.338263e+003,-2.691473e+001
1.339228e+003,-3.287469e+001
1.340192e+003,-3.543347e+001
1.341156e+003,-3.199866e+001
1.342120e+003,-2.928546e+001
1.343084e+003,-2.911456e+001
1.344049e+003,-2.991986e+001
1.345013e+003,-3.029260e+001
1.345977e+003,-2.994550e+001
1.346941e+003,-2.897571e+001
1.347906e+003,-2.740656e+001
1.348870e+003,-2.605615e+001
1.349834e+003,-2.649396e+001
1.350798e+003,-2.727203e+001
1.351763e+003,-2.378046e+001
1.352727e+003,-1.716479e+001
1.353691e+003,-1.529504e+001
1.354655e+003,-2.189502e+001
1.355620e+003,-3.082275e+001
1.356584e+003,-3.504572e+001
1.357548e+003,-3.485724e+001
1.358512e+003,-3.389008e+001
1.359476e+003,-3.241846e+001
1.360441e+003,-3.111334e+001
1.361405e+003,-2.869299e+001
1.362369e+003,-2.758582e+001
1.363333e+003,-3.127917e+001
1.364298e+003,-3.592017e+001
1.365262e+003,-3.496375e+001
1.366226e+003,-2.792816e+001
1.367190e+003,-2.122229e+001
1.368155e+003,-2.056793e+001
1.369119e+003,-2.439496e+001
1.370083e+003,-2.791589e+001
1.371047e+003,-3.138428e+001
1.372011e+003,-3.200226e+001
1.372976e+003,-2.807562e+001
1.373940e+003,-2.456342e+001
1.374904e+003,-2.339008e+001
1.375868e+003,-2.319415e+001
1.376833e+003,-2.238965e+001
1.377797e+003,-2.101245e+001
1.378761e+003,-1.999463e+001
1.379725e+003,-1.958789e+001
1.380690e+003,-1.972107e+001
1.381654e+003,-2.087561e+001
1.382618e+003,-2.207745e+001
1.383582e+003,-2.234686e+001
1.384547e+003,-2.150275e+001
1.385511e+003,-1.856622e+001
1.386475e+003,-1.243665e+001
1.387439e+003,-6.777283e+000
1.388403e+003,-8.562073e+000
1.389368e+003,-1.779529e+001
1.390332e+003,-2.177985e+001
1.391296e+003,-1.662714e+001
1.392260e+003,-1.281592e+001
1.393225e+003,-1.336066e+001
1.394189e+003,-1.519415e+001
1.395153e+003,-1.764990e+001
1.396117e+003,-1.975629e+001
1.397082e+003,-1.983783e+001
1.398046e+003,-1.782062e+001
1.399010e+003,-1.603522e+001
1.399974e+003,-1.689087e+001
1.400938e+003,-1.986084e+001
1.401903e+003,-2.205658e+001
1.402867e+003,-2.245135e+001
1.403831e+003,-2.119989e+001
1.404795e+003,-1.804333e+001
1.405760e+003,-1.469781e+001
1.406724e+003,-1.155823e+001
1.407688e+003,-1.001971e+001
1.408652e+003,-1.182697e+001
1.409617e+003,-1.586505e+001
1.410581e+003,-1.808752e+001
1.411545e+003,-1.666016e+001
1.412509e+003,-1.449023e+001
1.413474e+003,-1.485114e+001
1.414438e+003,-1.662421e+001
1.415402e+003,-1.709998e+001
1.416366e+003,-1.606531e+001
1.417330e+003,-1.459991e+001
1.418295e+003,-1.292200e+001
1.419259e+003,-1.165826e+001
1.420223e+003,-1.271210e+001
1.421187e+003,-1.555139e+001
1.422152e+003,-1.468085e+001
1.423116e+003,-8.019897e+000
1.424080e+003,-2.611206e+000
1.425044e+003,-1.583435e+000
1.426009e+003,-1.774292e+000
1.426973e+003,-3.194763e+000
1.427937e+003,-4.402710e+000
1.428901e+003,-3.115234e+000
1.429865e+003,4.671021e-001
1.430830e+003,4.084229e+000
1.431794e+003,6.014343e+000
1.432758e+003,5.902832e+000
1.433722e+003,3.269714e+000
1.434687e+003,-1.779785e+000
1.435651e+003,-2.824158e+000
1.436615e+003,2.045105e+000
1.437579e+003,5.255005e+000
1.438544e+003,5.645752e+000
1.439508e+003,5.090088e+000
1.440472e+003,4.883240e+000
1.441436e+003,5.166931e+000
1.442401e+003,5.484924e+000
1.443365e+003,5.645264e+000
1.444329e+003,6.216858e+000
1.445293e+003,7.881836e+000
1.446257e+003,9.991821e+000
1.447222e+003,1.107172e+001
1.448186e+003,1.120117e+001
1.449150e+003,1.094293e+001
1.450114e+003,1.006335e+001
1.451079e+003,9.344299e+000
1.452043e+003,1.015295e+001
1.453007e+003,1.122711e+001
1.453971e+003,9.940308e+000
1.454936e+003,6.563232e+000
1.455900e+003,4.761353e+000
1.456864e+003,5.907043e+000
1.457828e+003,7.302673e+000
1.458792e+003,7.096924e+000
1.459757e+003,6.232605e+000
1.460721e+003,5.266479e+000
1.461685e+003,4.314697e+000
1.462649e+003,3.680115e+000
1.463614e+003,3.571350e+000
1.464578e+003,3.678650e+000
1.465542e+003,3.498413e+000
1.466506e+003,3.206421e+000
1.467471e+003,3.924744e+000
1.468435e+003,6.373779e+000
1.469399e+003,8.611206e+000
1.470363e+003,9.304871e+000
1.471328e+003,1.055682e+001
1.472292e+003,1.436243e+001
1.473256e+003,1.662427e+001
1.474220e+003,1.335376e+001
1.475184e+003,7.524231e+000
1.476149e+003,4.584900e+000
1.477113e+003,5.950317e+000
1.478077e+003,8.651489e+000
1.479041e+003,1.016650e+001
1.480006e+003,1.119305e+001
1.480970e+003,1.313647e+001
1.481934e+003,1.570618e+001
1.482898e+003,1.864569e+001
1.483863e+003,2.286310e+001
1.484827e+003,2.592694e+001
1.485791e+003,2.686798e+001
1.486755e+003,2.736493e+001
1.487719e+003,2.850415e+001
1.488684e+003,3.011890e+001
1.489648e+003,3.176611e+001
1.490612e+003,3.351917e+001
1.491576e+003,3.604614e+001
1.492541e+003,3.984406e+001
1.493505e+003,4.430774e+001
1.494469e+003,4.805609e+001
1.495433e+003,5.087231e+001
1.496398e+003,5.426862e+001
1.497362e+003,5.886310e+001
1.498326e+003,6.487115e+001
1.499290e+003,7.238416e+001
1.500255e+003,8.122925e+001
1.501219e+003,9.179614e+001
1.502183e+003,1.034395e+002
1.503147e+003,1.126127e+002
1.504111e+003,1.176229e+002
1.505076e+003,1.248962e+002
1.506040e+003,1.389200e+002
1.507004e+003,1.564394e+002
1.507968e+003,1.738965e+002
1.508933e+003,1.920840e+002
1.509897e+003,2.124502e+002
1.510861e+003,2.360121e+002
1.511825e+003,2.638400e+002
1.512790e+003,2.971655e+002
1.513754e+003,3.329304e+002
1.514718e+003,3.658362e+002
1.515682e+003,3.954639e+002
1.516646e+003,4.260510e+002
1.517611e+003,4.609434e+002
1.518575e+003,4.907202e+002
1.519539e+003,5.123234e+002
1.520503e+003,5.290781e+002
1.521468e+003,5.428477e+002
1.522432e+003,5.522005e+002
1.523396e+003,5.550968e+002
1.524360e+003,5.512975e+002
1.525325e+003,5.421533e+002
1.526289e+003,5.286953e+002
1.527253e+003,5.104330e+002
1.528217e+003,4.856533e+002
1.529182e+003,4.546367e+002
1.530146e+003,4.245907e+002
1.531110e+003,3.971959e+002
1.532074e+003,3.666360e+002
1.533039e+003,3.304114e+002
1.534003e+003,2.918867e+002
1.534967e+003,2.503053e+002
1.535931e+003,2.104890e+002
1.536896e+003,1.772686e+002
1.537860e+003,1.508925e+002
1.538824e+003,1.289390e+002
1.539788e+003,1.098127e+002
1.540752e+003,9.299719e+001
1.541717e+003,7.794171e+001
1.542681e+003,6.519067e+001
1.543645e+003,5.645770e+001
1.544609e+003,5.321271e+001
1.545573e+003,5.188550e+001
1.546538e+003,5.233551e+001
1.547502e+003,5.358600e+001
1.548466e+003,5.771716e+001
1.549430e+003,6.161945e+001
1.550395e+003,6.080908e+001
1.551359e+003,5.650537e+001
1.552323e+003,5.389880e+001
1.553287e+003,5.472083e+001
1.554252e+003,5.530139e+001
1.555216e+003,5.243567e+001
1.556180e+003,4.690588e+001
1.557144e+003,3.945337e+001
1.558109e+003,3.023102e+001
1.559073e+003,2.709833e+001
1.560037e+003,3.356317e+001
1.561001e+003,3.762793e+001
1.561966e+003,3.377423e+001
1.562930e+003,2.853949e+001
1.563894e+003,2.754767e+001
1.564858e+003,2.955927e+001
1.565823e+003,3.133026e+001
1.566787e+003,3.214728e+001
1.567751e+003,3.303308e+001
1.568715e+003,3.499591e+001
1.569679e+003,3.641632e+001
1.570644e+003,3.371381e+001
1.571608e+003,2.884778e+001
1.572572e+003,2.912646e+001
1.573536e+003,3.517847e+001
1.574500e+003,3.900250e+001
1.575465e+003,3.627936e+001
1.576429e+003,3.294958e+001
1.577393e+003,3.422760e+001
1.578357e+003,3.777203e+001
1.579322e+003,3.903912e+001
1.580286e+003,3.804962e+001
1.581250e+003,3.833582e+001
1.582214e+003,4.160034e+001
1.583179e+003,4.372992e+001
1.584143e+003,3.933850e+001
1.585107e+003,3.391138e+001
1.586071e+003,3.657574e+001
1.587036e+003,4.505164e+001
1.588000e+003,5.061334e+001
1.588964e+003,5.099860e+001
1.589928e+003,5.021411e+001
1.590893e+003,5.092072e+001
1.591857e+003,5.206384e+001
1.592821e+003,5.172839e+001
1.593785e+003,5.037750e+001
1.594750e+003,5.046100e+001
1.595714e+003,5.233868e+001
1.596678e+003,5.385278e+001
1.597642e+003,5.360138e+001
1.598606e+003,5.365997e+001
1.599571e+003,5.621631e+001
1.600535e+003,5.997705e+001
1.601499e+003,6.373065e+001
1.602463e+003,6.693005e+001
1.603427e+003,6.800909e+001
1.604392e+003,6.608521e+001
1.605356e+003,6.423267e+001
1.606320e+003,6.641412e+001
1.607284e+003,7.084088e+001
1.608249e+003,7.211768e+001
1.609213e+003,7.013513e+001
1.610177e+003,6.815259e+001
1.611141e+003,6.654266e+001
1.612106e+003,6.539136e+001
1.613070e+003,6.449750e+001
1.614034e+003,6.425934e+001
1.614998e+003,6.588708e+001
1.615963e+003,6.805182e+001
1.616927e+003,6.772150e+001
1.617891e+003,6.487183e+001
1.618855e+003,6.352570e+001
1.619820e+003,6.625641e+001
1.620784e+003,6.931305e+001
1.621748e+003,6.731586e+001
1.622712e+003,6.185553e+001
1.623677e+003,5.936017e+001
1.624641e+003,6.022711e+001
1.625605e+003,6.238885e+001
1.626569e+003,6.535760e+001
1.627533e+003,6.756561e+001
1.628498e+003,6.912695e+001
1.629462e+003,6.987219e+001
1.630426e+003,6.897498e+001
1.631390e+003,6.709399e+001
1.632354e+003,6.554169e+001
1.633319e+003,6.467590e+001
1.634283e+003,6.442719e+001
1.635247e+003,6.464661e+001
1.636211e+003,6.548364e+001
1.637176e+003,6.812714e+001
1.638140e+003,7.248688e+001
1.639104e+003,7.407703e+001
1.640068e+003,7.173065e+001
1.641033e+003,6.985443e+001
1.641997e+003,6.987592e+001
1.642961e+003,7.051483e+001
1.643925e+003,7.121265e+001
1.644890e+003,7.200201e+001
1.645854e+003,7.310358e+001
1.646818e+003,7.416504e+001
1.647782e+003,7.434985e+001
1.648747e+003,7.341852e+001
1.649711e+003,7.235492e+001
1.650675e+003,7.238593e+001
1.651639e+003,7.270532e+001
1.652604e+003,7.058838e+001
1.653568e+003,6.595917e+001
1.654532e+003,6.321545e+001
1.655496e+003,6.289191e+001
1.656460e+003,6.347266e+001
1.657425e+003,6.616364e+001
1.658389e+003,6.778168e+001
1.659353e+003,6.583856e+001
1.660317e+003,6.258014e+001
1.661281e+003,6.043170e+001
1.662246e+003,5.901630e+001
1.663210e+003,5.633514e+001
1.664174e+003,5.197510e+001
1.665138e+003,4.885803e+001
1.666103e+003,4.953937e+001
1.667067e+003,5.232892e+001
1.668031e+003,5.437128e+001
1.668995e+003,5.575653e+001
1.669960e+003,5.677441e+001
1.670924e+003,5.795648e+001
1.671888e+003,5.687830e+001
1.672852e+003,5.068176e+001
1.673817e+003,4.462396e+001
1.674781e+003,4.176807e+001
1.675745e+003,4.088422e+001
1.676709e+003,4.094940e+001
1.677674e+003,4.173871e+001
1.678638e+003,4.345398e+001
1.679602e+003,4.612946e+001
1.680566e+003,4.777441e+001
1.681531e+003,4.694940e+001
1.682495e+003,4.456934e+001
1.683459e+003,4.081964e+001
1.684423e+003,3.606512e+001
1.685387e+003,3.476141e+001
1.686352e+003,3.802570e+001
1.687316e+003,3.974286e+001
1.688280e+003,3.697278e+001
1.689244e+003,3.406458e+001
1.690208e+003,3.496558e+001
1.691173e+003,3.671472e+001
1.692137e+003,3.647583e+001
1.693101e+003,3.467877e+001
1.694065e+003,3.166998e+001
1.695030e+003,2.708331e+001
1.695994e+003,2.402130e+001
1.696958e+003,2.530396e+001
1.697922e+003,2.840448e+001
1.698887e+003,3.107489e+001
1.699851e+003,3.293671e+001
1.700815e+003,3.186383e+001
1.701779e+003,2.760083e+001
1.702744e+003,2.405090e+001
1.703708e+003,2.291858e+001
1.704672e+003,2.248132e+001
1.705636e+003,2.043628e+001
1.706601e+003,1.847021e+001
1.707565e+003,2.073688e+001
1.708529e+003,2.590253e+001
1.709493e+003,2.890283e+001
1.710458e+003,2.900555e+001
1.711422e+003,2.785986e+001
1.712386e+003,2.571710e+001
1.713350e+003,2.367230e+001
1.714314e+003,2.182855e+001
1.715279e+003,2.037726e+001
1.716243e+003,2.081122e+001
1.717207e+003,2.248175e+001
1.718171e+003,2.143170e+001
1.719135e+003,1.666064e+001
1.720100e+003,1.249091e+001
1.721064e+003,1.170166e+001
1.722028e+003,1.269757e+001
1.722992e+003,1.401880e+001
1.723957e+003,1.575360e+001
1.724921e+003,1.594525e+001
1.725885e+003,1.356818e+001
1.726849e+003,1.213940e+001
1.727814e+003,1.457642e+001
1.728778e+003,1.621851e+001
1.729742e+003,1.271667e+001
1.730706e+003,9.371765e+000
1.731671e+003,1.281287e+001
1.732635e+003,1.927332e+001
1.733599e+003,2.091760e+001
1.734563e+003,1.715137e+001
1.735528e+003,1.243585e+001
1.736492e+003,8.971252e+000
1.737456e+003,7.436707e+000
1.738420e+003,9.003418e+000
1.739385e+003,1.208179e+001
1.740349e+003,1.172906e+001
1.741313e+003,7.193787e+000
1.742277e+003,4.458801e+000
1.743241e+003,4.843079e+000
1.744206e+003,5.422424e+000
1.745170e+003,4.665527e+000
1.746134e+003,4.990601e+000
1.747098e+003,9.866760e+000
1.748063e+003,1.490515e+001
1.749027e+003,1.418658e+001
1.749991e+003,9.224365e+000
1.750955e+003,5.133423e+000
1.751919e+003,3.859375e+000
1.752884e+003,4.696167e+000
1.753848e+003,7.111877e+000
1.754812e+003,9.900269e+000
1.755776e+003,1.082941e+001
1.756741e+003,1.027283e+001
1.757705e+003,9.914856e+000
1.758669e+003,9.549805e+000
1.759633e+003,9.109436e+000
1.760598e+003,8.336548e+000
1.761562e+003,7.289917e+000
1.762526e+003,6.906128e+000
1.763490e+003,6.041260e+000
1.764455e+003,1.962524e+000
1.765419e+003,-2.073608e+000
1.766383e+003,-8.941650e-002
1.767347e+003,7.108704e+000
1.768312e+003,1.278406e+001
1.769276e+003,1.368127e+001
1.770240e+003,1.174603e+001
1.771204e+003,8.849670e+000
1.772168e+003,5.799316e+000
1.773133e+003,3.344727e+000
1.774097e+003,1.551147e+000
1.775061e+003,1.623291e+000
1.776025e+003,3.640015e+000
1.776990e+003,4.969055e+000
1.777954e+003,4.839355e+000
1.778918e+003,4.857239e+000
1.779882e+003,6.194763e+000
1.780846e+003,7.632996e+000
1.781811e+003,8.326538e+000
1.782775e+003,8.170593e+000
1.783739e+003,5.877930e+000
1.784703e+003,1.028625e+000
1.785668e+003,-1.668518e+000
1.786632e+003,6.257324e-001
1.787596e+003,3.561340e+000
1.788560e+003,4.188171e+000
1.789525e+003,4.324341e+000
1.790489e+003,6.633850e+000
1.791453e+003,1.003003e+001
1.792417e+003,1.087244e+001
1.793382e+003,8.708862e+000
1.794346e+003,7.277039e+000
1.795310e+003,8.615173e+000
1.796274e+003,9.776001e+000
1.797239e+003,7.303772e+000
1.798203e+003,3.141296e+000
1.799167e+003,2.265747e+000
1.800131e+003,4.584656e+000
1.801095e+003,5.673706e+000
1.802060e+003,4.806946e+000
1.803024e+003,5.384155e+000
1.803988e+003,9.391907e+000
1.804952e+003,1.234399e+001
1.805917e+003,1.101361e+001
1.806881e+003,8.523254e+000
1.807845e+003,8.419067e+000
1.808809e+003,9.906494e+000
1.809773e+003,1.037231e+001
1.810738e+003,9.318359e+000
1.811702e+003,8.073181e+000
1.812666e+003,7.465942e+000
1.813630e+003,7.914978e+000
1.814595e+003,1.039648e+001
1.815559e+003,1.377722e+001
1.816523e+003,1.316150e+001
1.817487e+003,8.066833e+000
1.818452e+003,5.623840e+000
1.819416e+003,7.331848e+000
1.820380e+003,9.347595e+000
1.821344e+003,1.078162e+001
1.822309e+003,1.134021e+001
1.823273e+003,1.061505e+001
1.824237e+003,9.682068e+000
1.825201e+003,9.004578e+000
1.826166e+003,8.801941e+000
1.827130e+003,1.017041e+001
1.828094e+003,1.307684e+001
1.829058e+003,1.470667e+001
1.830022e+003,1.366638e+001
1.830987e+003,1.171527e+001
1.831951e+003,9.967957e+000
1.832915e+003,8.454102e+000
1.833879e+003,6.740479e+000
1.834844e+003,5.320557e+000
1.835808e+003,6.092285e+000
1.836772e+003,9.098938e+000
1.837736e+003,1.150720e+001
1.838700e+003,1.188525e+001
1.839665e+003,1.213751e+001
1.840629e+003,1.444714e+001
1.841593e+003,1.708783e+001
1.842557e+003,1.569861e+001
1.843522e+003,1.035706e+001
1.844486e+003,8.294373e+000
1.845450e+003,1.343207e+001
1.846414e+003,1.512933e+001
1.847379e+003,8.751892e+000
1.848343e+003,4.167969e+000
1.849307e+003,5.767822e+000
1.850271e+003,8.941406e+000
1.851236e+003,1.109662e+001
1.852200e+003,1.250830e+001
1.853164e+003,1.341040e+001
1.854128e+003,1.378125e+001
1.855093e+003,1.407605e+001
1.856057e+003,1.474664e+001
1.857021e+003,1.561688e+001
1.857985e+003,1.644495e+001
1.858949e+003,1.666382e+001
1.859914e+003,1.450092e+001
1.860878e+003,1.092896e+001
1.861842e+003,1.163861e+001
1.862806e+003,1.666742e+001
1.863771e+003,1.966473e+001
1.864735e+003,1.915405e+001
1.865699e+003,1.775677e+001
1.866663e+003,1.619775e+001
1.867627e+003,1.555493e+001
1.868592e+003,1.716461e+001
1.869556e+003,1.940234e+001
1.870520e+003,1.965717e+001
1.871484e+003,1.819226e+001
1.872449e+003,1.697784e+001
1.873413e+003,1.710785e+001
1.874377e+003,1.800842e+001
1.875341e+003,1.920569e+001
1.876306e+003,1.978290e+001
1.877270e+003,1.787659e+001
1.878234e+003,1.614410e+001
1.879198e+003,1.874261e+001
1.880163e+003,2.309247e+001
1.881127e+003,2.417950e+001
1.882091e+003,2.175641e+001
1.883055e+003,1.796893e+001
1.884020e+003,1.411469e+001
1.884984e+003,1.249304e+001
1.885948e+003,1.530951e+001
1.886912e+003,2.035748e+001
1.887876e+003,2.349463e+001
1.888841e+003,2.476556e+001
1.889805e+003,2.333453e+001
1.890769e+003,1.791644e+001
1.891733e+003,1.723248e+001
1.892698e+003,2.449902e+001
1.893662e+003,2.992633e+001
1.894626e+003,2.914526e+001
1.895590e+003,2.722119e+001
1.896554e+003,2.832111e+001
1.897519e+003,3.010217e+001
1.898483e+003,2.846997e+001
1.899447e+003,2.451556e+001
1.900411e+003,2.387012e+001
1.901376e+003,2.783099e+001
1.902340e+003,3.031238e+001
1.903304e+003,2.756659e+001
1.904268e+003,2.496918e+001
1.905233e+003,2.681512e+001
1.906197e+003,2.968976e+001
1.907161e+003,3.036334e+001
1.908125e+003,2.945911e+001
1.909090e+003,2.724762e+001
1.910054e+003,2.452478e+001
1.911018e+003,2.435162e+001
1.911982e+003,2.752667e+001
1.912947e+003,3.035059e+001
1.913911e+003,3.000470e+001
1.914875e+003,2.938544e+001
1.915839e+003,3.327325e+001
1.916803e+003,3.986591e+001
1.917768e+003,4.075134e+001
1.918732e+003,3.488861e+001
1.919696e+003,3.195325e+001
1.920660e+003,3.340790e+001
1.921625e+003,3.461218e+001
1.922589e+003,3.386243e+001
1.923553e+003,3.336182e+001
1.924517e+003,3.529742e+001
1.925481e+003,3.715436e+001
1.926446e+003,3.623163e+001
1.927410e+003,3.385040e+001
1.928374e+003,3.232330e+001
1.929338e+003,3.167529e+001
1.930303e+003,3.172839e+001
1.931267e+003,3.299146e+001
1.932231e+003,3.491980e+001
1.933195e+003,3.752325e+001
1.934160e+003,3.965234e+001
1.935124e+003,4.029742e+001
1.936088e+003,3.993536e+001
1.937052e+003,3.883569e+001
1.938017e+003,3.795264e+001
1.938981e+003,3.943439e+001
1.939945e+003,4.272681e+001
1.940909e+003,4.396527e+001
1.941874e+003,4.152051e+001
1.942838e+003,3.856830e+001
1.943802e+003,3.836359e+001
1.944766e+003,3.991992e+001
1.945730e+003,4.072156e+001
1.946695e+003,4.053247e+001
1.947659e+003,3.906165e+001
1.948623e+003,3.598547e+001
1.949587e+003,3.433636e+001
1.950552e+003,3.488147e+001
1.951516e+003,3.584534e+001
1.952480e+003,3.686316e+001
1.953444e+003,3.764813e+001
1.954408e+003,3.776294e+001
1.955373e+003,3.733643e+001
1.956337e+003,3.671606e+001
1.957301e+003,3.641022e+001
1.958265e+003,3.713263e+001
1.959230e+003,3.913336e+001
1.960194e+003,4.055212e+001
1.961158e+003,3.990228e+001
1.962122e+003,3.936182e+001
1.963087e+003,3.984326e+001
1.964051e+003,4.032654e+001
1.965015e+003,4.039844e+001
1.965979e+003,4.068890e+001
1.966944e+003,4.186981e+001
1.967908e+003,4.310461e+001
1.968872e+003,4.288678e+001
1.969836e+003,4.146301e+001
1.970801e+003,4.052032e+001
1.971765e+003,4.082141e+001
1.972729e+003,4.192920e+001
1.973693e+003,4.367700e+001
1.974657e+003,4.529596e+001
1.975622e+003,4.486993e+001
1.976586e+003,4.343958e+001
1.977550e+003,4.451477e+001
1.978514e+003,4.783301e+001
1.979479e+003,5.126099e+001
1.980443e+003,5.425354e+001
1.981407e+003,5.486377e+001
1.982371e+003,5.238055e+001
1.983335e+003,4.976947e+001
1.984300e+003,4.897522e+001
1.985264e+003,4.941467e+001
1.986228e+003,5.059961e+001
1.987192e+003,5.229498e+001
1.988157e+003,5.332538e+001
1.989121e+003,5.377496e+001
1.990085e+003,5.381543e+001
1.991049e+003,5.339404e+001
1.992014e+003,5.307935e+001
1.992978e+003,5.230591e+001
1.993942e+003,5.212378e+001
1.994906e+003,5.337573e+001
1.995871e+003,5.486786e+001
1.996835e+003,5.610016e+001
1.997799e+003,5.702362e+001
1.998763e+003,5.698895e+001
1.999728e+003,5.624359e+001
