5.003444e+002,4.424358e+001
5.013087e+002,4.309435e+001
5.022729e+002,4.111700e+001
5.032371e+002,3.879926e+001
5.042014e+002,3.726488e+001
5.051656e+002,3.645096e+001
5.061298e+002,3.607472e+001
5.070941e+002,3.587154e+001
5.080583e+002,3.577431e+001
5.090225e+002,3.597865e+001
5.099868e+002,3.680667e+001
5.109510e+002,3.750130e+001
5.119152e+002,3.749800e+001
5.128795e+002,3.672154e+001
5.138437e+002,3.640858e+001
5.148079e+002,3.796959e+001
5.157722e+002,3.923808e+001
5.167364e+002,3.907253e+001
5.177006e+002,3.744724e+001
5.186649e+002,3.533981e+001
5.196291e+002,3.356128e+001
5.205933e+002,3.248489e+001
5.215576e+002,3.280379e+001
5.225218e+002,3.429735e+001
5.234860e+002,3.599083e+001
5.244503e+002,3.624677e+001
5.254145e+002,3.469458e+001
5.263787e+002,3.301314e+001
5.273430e+002,3.095705e+001
5.283072e+002,2.892683e+001
5.292714e+002,2.743781e+001
5.302357e+002,2.644843e+001
5.311999e+002,2.591789e+001
5.321641e+002,2.570065e+001
5.331284e+002,2.609315e+001
5.340926e+002,2.786072e+001
5.350568e+002,3.140379e+001
5.360211e+002,3.387877e+001
5.369853e+002,3.188319e+001
5.379495e+002,2.839433e+001
5.389138e+002,2.544420e+001
5.398780e+002,2.393929e+001
5.408422e+002,2.360774e+001
5.418065e+002,2.427209e+001
5.427707e+002,2.569968e+001
5.437349e+002,2.592844e+001
5.446992e+002,2.415918e+001
5.456634e+002,2.098538e+001
5.466276e+002,1.849295e+001
5.475919e+002,1.612688e+001
5.485561e+002,1.561185e+001
5.495203e+002,1.864149e+001
5.504846e+002,2.292056e+001
5.514488e+002,2.503481e+001
5.524130e+002,2.291969e+001
5.533773e+002,2.064398e+001
5.543415e+002,2.037790e+001
5.553057e+002,2.106874e+001
5.562700e+002,2.170169e+001
5.572342e+002,2.163783e+001
5.581984e+002,2.110835e+001
5.591627e+002,2.068379e+001
5.601269e+002,2.038054e+001
5.610911e+002,2.010710e+001
5.620554e+002,1.978302e+001
5.630196e+002,1.939619e+001
5.639838e+002,1.917587e+001
5.649481e+002,1.933769e+001
5.659123e+002,1.936418e+001
5.668765e+002,1.931323e+001
5.678408e+002,1.920016e+001
5.688050e+002,1.890997e+001
5.697692e+002,1.818958e+001
5.707335e+002,1.725905e+001
5.716977e+002,1.614716e+001
5.726619e+002,1.497708e+001
5.736262e+002,1.380376e+001
5.745904e+002,1.261082e+001
5.755546e+002,1.178964e+001
5.765189e+002,1.203894e+001
5.774831e+002,1.282954e+001
5.784473e+002,1.327553e+001
5.794116e+002,1.281697e+001
5.803758e+002,1.165927e+001
5.813400e+002,1.179074e+001
5.823043e+002,1.368733e+001
5.832685e+002,1.489908e+001
5.842327e+002,1.424937e+001
5.851970e+002,1.213583e+001
5.861612e+002,1.077948e+001
5.871254e+002,1.075807e+001
5.880897e+002,1.116576e+001
5.890539e+002,1.246759e+001
5.900181e+002,1.391734e+001
5.909824e+002,1.425108e+001
5.919466e+002,1.226488e+001
5.929108e+002,9.935013e+000
5.938751e+002,9.395462e+000
5.948393e+002,9.970703e+000
5.958035e+002,1.067580e+001
5.967678e+002,1.080069e+001
5.977320e+002,1.050227e+001
5.986962e+002,1.083975e+001
5.996605e+002,1.172008e+001
6.006247e+002,1.246172e+001
6.015889e+002,1.294844e+001
6.025532e+002,1.315463e+001
6.035174e+002,1.260374e+001
6.044816e+002,9.982452e+000
6.054459e+002,8.034515e+000
6.064101e+002,7.213104e+000
6.073743e+002,7.317459e+000
6.083386e+002,8.084000e+000
6.093028e+002,9.894531e+000
6.102670e+002,1.132112e+001
6.112313e+002,1.090648e+001
6.121955e+002,9.638519e+000
6.131597e+002,8.875626e+000
6.141240e+002,9.530151e+000
6.150882e+002,1.111264e+001
6.160524e+002,1.159625e+001
6.170167e+002,1.122141e+001
6.179809e+002,1.052538e+001
6.189451e+002,9.530441e+000
6.199094e+002,8.299728e+000
6.208736e+002,7.646591e+000
6.218378e+002,8.214386e+000
6.228021e+002,8.873703e+000
6.237663e+002,9.764160e+000
6.247305e+002,1.066142e+001
6.256948e+002,1.128419e+001
6.266590e+002,1.165385e+001
6.276232e+002,1.108423e+001
6.285875e+002,8.520233e+000
6.295517e+002,5.546478e+000
6.305159e+002,3.793076e+000
6.314802e+002,4.116119e+000
6.324444e+002,5.821182e+000
6.334086e+002,7.773941e+000
6.343729e+002,9.826080e+000
6.353371e+002,1.109721e+001
6.363013e+002,1.120490e+001
6.372656e+002,1.033118e+001
6.382298e+002,9.170090e+000
6.391940e+002,6.879547e+000
6.401583e+002,5.433090e+000
6.411225e+002,5.431442e+000
6.420867e+002,6.148712e+000
6.430510e+002,6.733566e+000
6.440152e+002,6.939117e+000
6.449794e+002,6.805023e+000
6.459437e+002,6.208252e+000
6.469079e+002,5.477829e+000
6.478721e+002,5.030930e+000
6.488364e+002,4.949677e+000
6.498006e+002,4.757309e+000
6.507648e+002,3.073410e+000
6.517291e+002,6.276703e-001
6.526933e+002,-6.126251e-001
6.536575e+002,-2.482910e-001
6.546218e+002,1.095520e+000
6.555860e+002,2.244690e+000
6.565502e+002,3.107864e+000
6.575145e+002,3.906067e+000
6.584787e+002,4.689606e+000
6.594429e+002,5.393173e+000
6.604072e+002,6.037659e+000
6.613714e+002,6.660599e+000
6.623356e+002,6.911636e+000
6.632999e+002,6.436783e+000
6.642641e+002,5.617432e+000
6.652283e+002,4.387573e+000
6.661926e+002,3.007431e+000
6.671568e+002,2.032516e+000
6.681210e+002,2.227142e+000
6.690853e+002,3.178101e+000
6.700495e+002,3.758255e+000
6.710137e+002,3.964020e+000
6.719780e+002,4.100342e+000
6.729422e+002,4.489792e+000
6.739064e+002,5.161224e+000
6.748707e+002,5.726364e+000
6.758349e+002,6.334900e+000
6.767991e+002,6.678314e+000
6.777634e+002,6.706039e+000
6.787276e+002,6.469055e+000
6.796918e+002,5.982132e+000
6.806561e+002,4.712830e+000
6.816203e+002,3.623230e+000
6.825845e+002,3.039536e+000
6.835488e+002,2.905182e+000
6.845130e+002,3.122070e+000
6.854772e+002,3.656006e+000
6.864415e+002,4.460587e+000
6.874057e+002,5.773529e+000
6.883699e+002,7.129425e+000
6.893342e+002,7.067795e+000
6.902984e+002,4.617249e+000
6.912626e+002,4.104919e-001
6.922269e+002,-1.346527e+000
6.931911e+002,2.215652e+000
6.941553e+002,4.562592e+000
6.951196e+002,3.884811e+000
6.960838e+002,2.025269e+000
6.970480e+002,2.411880e+000
6.980123e+002,7.293976e+000
6.989765e+002,1.044963e+001
6.999407e+002,8.564545e+000
7.009050e+002,4.906952e+000
7.018692e+002,1.585236e+000
7.028334e+002,-4.697571e-001
7.037977e+002,-1.381073e+000
7.047619e+002,-6.271820e-001
7.057261e+002,1.042343e+000
7.066904e+002,1.837143e+000
7.076546e+002,1.467316e+000
7.086188e+002,7.416534e-001
7.095831e+002,9.523468e-001
7.105473e+002,2.454483e+000
7.115115e+002,3.712616e+000
7.124758e+002,4.902863e+000
7.134400e+002,5.701309e+000
7.144042e+002,5.842422e+000
7.153685e+002,5.367874e+000
7.163327e+002,4.825577e+000
7.172969e+002,4.243530e+000
7.182612e+002,3.874298e+000
7.192254e+002,4.046799e+000
7.201896e+002,4.468109e+000
7.211539e+002,4.608627e+000
7.221181e+002,4.029358e+000
7.230823e+002,2.907516e+000
7.240466e+002,1.352478e+000
7.250108e+002,-3.441467e-001
7.259750e+002,-8.650818e-001
7.269393e+002,7.005463e-001
7.279035e+002,3.897308e+000
7.288677e+002,5.583359e+000
7.298320e+002,4.291504e+000
7.307962e+002,3.581146e+000
7.317604e+002,4.263931e+000
7.327247e+002,5.439301e+000
7.336889e+002,5.674988e+000
7.346531e+002,4.209473e+000
7.356174e+002,2.657410e+000
7.365816e+002,2.042511e+000
7.375458e+002,1.900177e+000
7.385101e+002,1.990967e+000
7.394743e+002,2.175751e+000
7.404385e+002,2.361816e+000
7.414028e+002,2.371445e+000
7.423670e+002,2.072235e+000
7.433312e+002,1.518723e+000
7.442955e+002,7.561340e-001
7.452597e+002,4.890137e-001
7.462239e+002,1.747894e+000
7.471882e+002,5.234558e+000
7.481524e+002,6.916107e+000
7.491166e+002,5.517014e+000
7.500809e+002,3.901657e+000
7.510451e+002,2.995789e+000
7.520093e+002,2.767197e+000
7.529736e+002,2.770035e+000
7.539378e+002,3.016541e+000
7.549020e+002,3.344772e+000
7.558663e+002,3.517349e+000
7.568306e+002,3.707428e+000
7.577948e+002,4.247482e+000
7.587590e+002,5.271149e+000
7.597233e+002,6.396149e+000
7.606875e+002,6.537598e+000
7.616517e+002,5.871597e+000
7.626160e+002,5.047775e+000
7.635802e+002,4.093872e+000
7.645444e+002,3.232742e+000
7.655087e+002,3.004318e+000
7.664729e+002,3.917953e+000
7.674371e+002,4.277390e+000
7.684014e+002,3.610245e+000
7.693656e+002,2.786163e+000
7.703298e+002,2.099792e+000
7.712941e+002,1.718430e+000
7.722583e+002,2.173111e+000
7.732225e+002,4.757141e+000
7.741868e+002,7.492462e+000
7.751510e+002,9.029816e+000
7.761152e+002,9.368454e+000
7.770795e+002,8.685471e+000
7.780437e+002,7.102051e+000
7.790079e+002,4.819763e+000
7.799722e+002,3.891541e+000
7.809364e+002,4.306793e+000
7.819006e+002,4.938797e+000
7.828649e+002,5.623062e+000
7.838291e+002,6.298355e+000
7.847933e+002,6.515503e+000
7.857576e+002,5.319458e+000
7.867218e+002,5.138428e+000
7.876860e+002,7.745697e+000
7.886503e+002,1.058241e+001
7.896145e+002,1.127432e+001
7.905787e+002,9.301910e+000
7.915430e+002,6.722794e+000
7.925072e+002,5.258362e+000
7.934714e+002,4.615356e+000
7.944357e+002,4.915070e+000
7.953999e+002,6.015610e+000
7.963641e+002,7.281281e+000
7.973284e+002,7.976547e+000
7.982926e+002,8.070206e+000
7.992568e+002,8.044373e+000
8.002211e+002,7.595261e+000
8.011853e+002,7.199463e+000
8.021495e+002,7.423096e+000
8.031138e+002,8.098404e+000
8.040780e+002,8.183578e+000
8.050422e+002,6.825455e+000
8.060065e+002,5.714066e+000
8.069707e+002,5.363037e+000
8.079349e+002,5.402405e+000
8.088992e+002,5.571808e+000
8.098634e+002,5.776428e+000
8.108276e+002,6.025208e+000
8.117919e+002,6.322937e+000
8.127561e+002,6.462723e+000
8.137203e+002,6.161453e+000
8.146846e+002,5.489014e+000
8.156488e+002,4.980743e+000
8.166130e+002,5.280380e+000
8.175773e+002,6.554977e+000
8.185415e+002,7.508057e+000
8.195057e+002,7.660004e+000
8.204700e+002,7.986084e+000
8.214342e+002,9.457932e+000
8.223984e+002,1.134702e+001
8.233627e+002,1.149309e+001
8.243269e+002,8.087952e+000
8.252911e+002,5.083435e+000
8.262554e+002,4.778961e+000
8.272196e+002,5.879074e+000
8.281838e+002,7.467133e+000
8.291481e+002,8.960571e+000
8.301123e+002,9.881180e+000
8.310765e+002,9.180450e+000
8.320408e+002,6.957687e+000
8.330050e+002,5.261734e+000
8.339692e+002,4.199875e+000
8.349335e+002,3.734604e+000
8.358977e+002,4.214310e+000
8.368619e+002,5.973953e+000
8.378262e+002,6.503540e+000
8.387904e+002,3.359879e+000
8.397546e+002,1.609772e+000
8.407189e+002,3.858246e+000
8.416831e+002,8.045944e+000
8.426473e+002,1.037708e+001
8.436116e+002,8.891296e+000
8.445758e+002,6.462494e+000
8.455400e+002,5.899948e+000
8.465043e+002,6.170242e+000
8.474685e+002,6.337585e+000
8.484327e+002,6.168564e+000
8.493970e+002,5.928146e+000
8.503612e+002,5.951309e+000
8.513254e+002,6.226334e+000
8.522897e+002,6.793488e+000
8.532539e+002,7.715424e+000
8.542181e+002,8.697113e+000
8.551824e+002,9.710831e+000
8.561466e+002,1.081613e+001
8.571108e+002,1.188374e+001
8.580751e+002,1.284358e+001
8.590393e+002,1.336433e+001
8.600035e+002,1.328214e+001
8.609678e+002,1.291075e+001
8.619320e+002,1.256654e+001
8.628962e+002,1.236913e+001
8.638605e+002,1.215298e+001
8.648247e+002,1.147356e+001
8.657889e+002,1.067491e+001
8.667532e+002,1.072206e+001
8.677174e+002,1.173636e+001
8.686816e+002,1.284921e+001
8.696459e+002,1.305676e+001
8.706101e+002,1.226047e+001
8.715743e+002,1.159134e+001
8.725386e+002,1.059058e+001
8.735028e+002,1.027390e+001
8.744670e+002,1.109871e+001
8.754313e+002,1.263014e+001
8.763955e+002,1.415410e+001
8.773597e+002,1.549356e+001
8.783240e+002,1.679532e+001
8.792882e+002,1.832481e+001
8.802524e+002,1.971269e+001
8.812167e+002,2.055978e+001
8.821809e+002,2.084584e+001
8.831451e+002,2.084398e+001
8.841094e+002,2.087981e+001
8.850736e+002,2.106165e+001
8.860378e+002,2.208887e+001
8.870021e+002,2.432159e+001
8.879663e+002,2.592981e+001
8.889305e+002,2.555162e+001
8.898948e+002,2.355392e+001
8.908590e+002,2.190982e+001
8.918232e+002,2.053088e+001
8.927875e+002,2.013835e+001
8.937517e+002,2.173557e+001
8.947159e+002,2.363162e+001
8.956802e+002,2.411275e+001
8.966444e+002,2.294938e+001
8.976086e+002,2.176132e+001
8.985729e+002,2.251932e+001
8.995371e+002,2.412979e+001
9.005013e+002,2.447978e+001
9.014656e+002,2.377325e+001
9.024298e+002,2.312555e+001
9.033940e+002,2.334418e+001
9.043583e+002,2.423692e+001
9.053225e+002,2.476376e+001
9.062867e+002,2.430694e+001
9.072510e+002,2.416667e+001
9.082152e+002,2.457596e+001
9.091794e+002,2.535732e+001
9.101437e+002,2.647914e+001
9.111079e+002,2.793598e+001
9.120721e+002,2.909880e+001
9.130364e+002,2.972263e+001
9.140006e+002,2.960179e+001
9.149648e+002,2.803192e+001
9.159291e+002,2.577085e+001
9.168933e+002,2.415872e+001
9.178575e+002,2.409457e+001
9.188218e+002,2.519936e+001
9.197860e+002,2.660663e+001
9.207502e+002,2.834336e+001
9.217145e+002,2.898578e+001
9.226787e+002,2.812190e+001
9.236429e+002,2.638075e+001
9.246072e+002,2.419456e+001
9.255714e+002,2.117638e+001
9.265356e+002,1.942107e+001
9.274999e+002,2.016037e+001
9.284641e+002,2.116623e+001
9.294283e+002,2.213873e+001
9.303926e+002,2.278945e+001
9.313568e+002,2.257474e+001
9.323210e+002,2.112933e+001
9.332853e+002,1.959373e+001
9.342495e+002,2.069984e+001
9.352137e+002,2.276110e+001
9.361780e+002,2.282991e+001
9.371422e+002,2.037027e+001
9.381064e+002,1.746126e+001
9.390707e+002,1.691226e+001
9.400349e+002,1.910970e+001
9.409991e+002,2.046272e+001
9.419634e+002,2.092679e+001
9.429276e+002,2.071435e+001
9.438918e+002,1.898380e+001
9.448561e+002,1.692458e+001
9.458203e+002,1.691248e+001
9.467845e+002,2.012759e+001
9.477488e+002,2.285538e+001
9.487130e+002,2.200389e+001
9.496772e+002,1.970103e+001
9.506415e+002,1.678479e+001
9.516057e+002,1.386668e+001
9.525699e+002,1.193520e+001
9.535342e+002,1.195958e+001
9.544984e+002,1.363172e+001
9.554626e+002,1.459735e+001
9.564269e+002,1.499895e+001
9.573911e+002,1.496789e+001
9.583553e+002,1.407266e+001
9.593196e+002,1.290884e+001
9.602838e+002,1.245047e+001
9.612480e+002,1.278255e+001
9.622123e+002,1.353738e+001
9.631765e+002,1.558366e+001
9.641407e+002,1.711563e+001
9.651050e+002,1.694664e+001
9.660692e+002,1.555312e+001
9.670334e+002,1.412341e+001
9.679977e+002,1.343781e+001
9.689619e+002,1.314751e+001
9.699261e+002,1.206323e+001
9.708904e+002,1.055382e+001
9.718546e+002,9.982079e+000
9.728188e+002,1.062602e+001
9.737831e+002,1.224281e+001
9.747473e+002,1.486668e+001
9.757115e+002,1.891391e+001
9.766758e+002,2.181207e+001
9.776400e+002,2.387267e+001
9.786042e+002,2.452480e+001
9.795685e+002,2.269894e+001
9.805327e+002,1.963510e+001
9.814969e+002,1.694508e+001
9.824612e+002,1.521773e+001
9.834254e+002,1.386644e+001
9.843896e+002,1.232863e+001
9.853539e+002,1.070164e+001
9.863181e+002,8.705132e+000
9.872823e+002,6.586182e+000
9.882466e+002,5.600967e+000
9.892108e+002,6.964752e+000
9.901750e+002,1.025826e+001
9.911393e+002,1.160519e+001
9.921035e+002,8.875900e+000
9.930677e+002,7.179474e+000
9.940320e+002,7.363220e+000
9.949962e+002,8.278458e+000
9.959604e+002,8.996010e+000
9.969247e+002,9.439682e+000
9.978889e+002,9.828400e+000
9.988531e+002,1.026720e+001
9.998174e+002,1.041663e+001
1.000782e+003,1.012292e+001
1.001746e+003,9.540375e+000
1.002710e+003,8.791214e+000
1.003674e+003,7.953430e+000
1.004639e+003,7.126083e+000
1.005603e+003,6.495934e+000
1.006567e+003,6.057983e+000
1.007531e+003,5.630371e+000
1.008495e+003,5.199539e+000
1.009460e+003,4.823601e+000
1.010424e+003,4.522423e+000
1.011388e+003,4.328369e+000
1.012352e+003,4.387360e+000
1.013317e+003,5.030884e+000
1.014281e+003,5.160446e+000
1.015245e+003,3.695885e+000
1.016209e+003,2.269447e+000
1.017174e+003,2.607704e+000
1.018138e+003,4.336510e+000
1.019102e+003,5.331123e+000
1.020066e+003,3.752968e+000
1.021031e+003,7.140732e-001
1.021995e+003,-8.140030e-001
1.022959e+003,-1.163681e+000
1.023923e+003,-9.676285e-001
1.024887e+003,-2.053146e-001
1.025852e+003,5.881195e-001
1.026816e+003,3.687973e-001
1.027780e+003,-1.248489e+000
1.028744e+003,-1.777321e+000
1.029709e+003,5.250092e-001
1.030673e+003,2.072426e+000
1.031637e+003,1.100754e+000
1.032601e+003,-1.022324e+000
1.033566e+003,-2.253403e+000
1.034530e+003,-1.868782e+000
1.035494e+003,-9.900513e-001
1.036458e+003,-7.577667e-001
1.037422e+003,-9.516373e-001
1.038387e+003,-1.301949e+000
1.039351e+003,-1.749641e+000
1.040315e+003,-1.916542e+000
1.041279e+003,-1.435852e+000
1.042244e+003,-4.761200e-001
1.043208e+003,-3.981018e-002
1.044172e+003,-7.566757e-001
1.045136e+003,-1.056465e+000
1.046101e+003,-8.797455e-002
1.047065e+003,5.548248e-001
1.048029e+003,-9.304962e-001
1.048993e+003,-3.793358e+000
1.049958e+003,-4.981651e+000
1.050922e+003,-2.609818e+000
1.051886e+003,7.788315e-001
1.052850e+003,3.104210e+000
1.053814e+003,4.519035e+000
1.054779e+003,4.905022e+000
1.055743e+003,4.355705e+000
1.056707e+003,3.462662e+000
1.057671e+003,2.947166e+000
1.058636e+003,2.797966e+000
1.059600e+003,2.313202e+000
1.060564e+003,8.124847e-001
1.061528e+003,1.397705e-001
1.062493e+003,9.745255e-001
1.063457e+003,2.343903e+000
1.064421e+003,3.306664e+000
1.065385e+003,3.774559e+000
1.066349e+003,4.034561e+000
1.067314e+003,4.317039e+000
1.068278e+003,4.294098e+000
1.069242e+003,3.544289e+000
1.070206e+003,2.466957e+000
1.071171e+003,1.623817e+000
1.072135e+003,1.236122e+000
1.073099e+003,1.140747e+000
1.074063e+003,1.142578e+000
1.075028e+003,1.293640e+000
1.075992e+003,1.123001e+000
1.076956e+003,2.724609e-001
1.077920e+003,-3.661728e-001
1.078885e+003,-2.296295e-001
1.079849e+003,3.363113e-001
1.080813e+003,5.815811e-001
1.081777e+003,3.147659e-001
1.082741e+003,3.016281e-001
1.083706e+003,1.229774e+000
1.084670e+003,2.121284e+000
1.085634e+003,2.372169e+000
1.086598e+003,2.173035e+000
1.087563e+003,2.066368e+000
1.088527e+003,2.358795e+000
1.089491e+003,2.738869e+000
1.090455e+003,2.471909e+000
1.091420e+003,1.416122e+000
1.092384e+003,3.875122e-001
1.093348e+003,-8.375931e-001
1.094312e+003,-1.751785e+000
1.095276e+003,-1.903160e+000
1.096241e+003,-1.445015e+000
1.097205e+003,-9.195709e-001
1.098169e+003,-3.729019e-001
1.099133e+003,4.636383e-002
1.100098e+003,4.504852e-001
1.101062e+003,6.375885e-001
1.102026e+003,4.009933e-001
1.102990e+003,-1.536331e-001
1.103955e+003,-9.295044e-001
1.104919e+003,-1.863853e+000
1.105883e+003,-2.558632e+000
1.106847e+003,-1.878517e+000
1.107812e+003,1.578979e-001
1.108776e+003,7.188797e-001
1.109740e+003,-1.115341e+000
1.110704e+003,-2.760757e+000
1.111668e+003,-1.658546e+000
1.112633e+003,1.373177e+000
1.113597e+003,2.310394e+000
1.114561e+003,-4.129333e-001
1.115525e+003,-2.557892e+000
1.116490e+003,-2.621284e+000
1.117454e+003,-1.978516e+000
1.118418e+003,-9.603271e-001
1.119382e+003,1.573181e-002
1.120347e+003,1.356049e-001
1.121311e+003,-1.141602e+000
1.122275e+003,-2.921295e+000
1.123239e+003,-3.098015e+000
1.124203e+003,-1.718933e+000
1.125168e+003,-7.047272e-001
1.126132e+003,-1.528702e-001
1.127096e+003,-1.364136e-002
1.128060e+003,-6.088486e-001
1.129025e+003,-1.706833e+000
1.129989e+003,-1.977783e+000
1.130953e+003,-8.331070e-001
1.131917e+003,-7.794189e-002
1.132882e+003,-1.810760e-001
1.133846e+003,-7.004547e-001
1.134810e+003,-1.820305e+000
1.135774e+003,-3.068550e+000
1.136739e+003,-3.509430e+000
1.137703e+003,-2.636681e+000
1.138667e+003,-1.121857e+000
1.139631e+003,-5.300903e-002
1.140595e+003,5.735474e-001
1.141560e+003,1.113503e+000
1.142524e+003,1.568459e+000
1.143488e+003,2.159798e+000
1.144452e+003,2.944382e+000
1.145417e+003,3.956451e+000
1.146381e+003,5.355598e+000
1.147345e+003,7.196640e+000
1.148309e+003,9.236298e+000
1.149274e+003,1.207668e+001
1.150238e+003,1.447975e+001
1.151202e+003,1.537015e+001
1.152166e+003,1.549779e+001
1.153130e+003,1.662755e+001
1.154095e+003,1.937789e+001
1.155059e+003,2.164368e+001
1.156023e+003,2.002267e+001
1.156987e+003,1.527229e+001
1.157952e+003,1.343874e+001
1.158916e+003,1.511155e+001
1.159880e+003,1.691510e+001
1.160844e+003,1.723755e+001
1.161809e+003,1.625377e+001
1.162773e+003,1.426309e+001
1.163737e+003,1.094889e+001
1.164701e+003,8.142906e+000
1.165666e+003,6.756607e+000
1.166630e+003,5.584358e+000
1.167594e+003,4.137444e+000
1.168558e+003,2.644562e+000
1.169522e+003,1.407166e+000
1.170487e+003,5.597229e-001
1.171451e+003,1.801605e-001
1.172415e+003,4.122162e-001
1.173379e+003,1.081917e+000
1.174344e+003,1.334999e+000
1.175308e+003,1.187675e+000
1.176272e+003,1.013115e+000
1.177236e+003,1.238586e+000
1.178201e+003,1.301003e+000
1.179165e+003,2.328339e-001
1.180129e+003,-2.029404e+000
1.181093e+003,-3.981766e+000
1.182057e+003,-5.554993e+000
1.183022e+003,-6.295128e+000
1.183986e+003,-5.647514e+000
1.184950e+003,-4.480728e+000
1.185914e+003,-3.410454e+000
1.186879e+003,-2.648216e+000
1.187843e+003,-2.344078e+000
1.188807e+003,-2.656769e+000
1.189771e+003,-3.256355e+000
1.190736e+003,-2.972649e+000
1.191700e+003,-1.679230e+000
1.192664e+003,-9.015732e-001
1.193628e+003,-9.291153e-001
1.194593e+003,-1.211349e+000
1.195557e+003,-1.358772e+000
1.196521e+003,-1.463982e+000
1.197485e+003,-1.822540e+000
1.198449e+003,-2.476250e+000
1.199414e+003,-3.356552e+000
1.200378e+003,-5.203430e+000
1.201342e+003,-6.563072e+000
1.202306e+003,-6.073318e+000
1.203271e+003,-4.437599e+000
1.204235e+003,-3.095856e+000
1.205199e+003,-2.789955e+000
1.206163e+003,-3.273338e+000
1.207128e+003,-4.236420e+000
1.208092e+003,-5.719574e+000
1.209056e+003,-6.352142e+000
1.210020e+003,-5.480858e+000
1.210984e+003,-5.183128e+000
1.211949e+003,-6.413383e+000
1.212913e+003,-8.334030e+000
1.213877e+003,-9.972832e+000
1.214841e+003,-1.122926e+001
1.215806e+003,-1.212531e+001
1.216770e+003,-1.261833e+001
1.217734e+003,-1.283183e+001
1.218698e+003,-1.300287e+001
1.219663e+003,-1.297919e+001
1.220627e+003,-1.242159e+001
1.221591e+003,-1.138550e+001
1.222555e+003,-1.028028e+001
1.223520e+003,-9.451134e+000
1.224484e+003,-9.013550e+000
1.225448e+003,-9.651016e+000
1.226412e+003,-1.241751e+001
1.227376e+003,-1.385668e+001
1.228341e+003,-1.326476e+001
1.229305e+003,-1.223315e+001
1.230269e+003,-1.103149e+001
1.231233e+003,-1.016772e+001
1.232198e+003,-1.105466e+001
1.233162e+003,-1.418145e+001
1.234126e+003,-1.624921e+001
1.235090e+003,-1.357019e+001
1.236055e+003,-1.000211e+001
1.237019e+003,-1.024825e+001
1.237983e+003,-1.305120e+001
1.238947e+003,-1.459262e+001
1.239911e+003,-1.327004e+001
1.240876e+003,-1.115297e+001
1.241840e+003,-1.153667e+001
1.242804e+003,-1.465147e+001
1.243768e+003,-1.596243e+001
1.244733e+003,-1.377132e+001
1.245697e+003,-1.189915e+001
1.246661e+003,-1.066805e+001
1.247625e+003,-9.899101e+000
1.248590e+003,-9.335442e+000
1.249554e+003,-9.031693e+000
1.250518e+003,-9.419342e+000
1.251482e+003,-1.078228e+001
1.252447e+003,-1.232967e+001
1.253411e+003,-1.312261e+001
1.254375e+003,-1.331689e+001
1.255339e+003,-1.324920e+001
1.256303e+003,-1.292757e+001
1.257268e+003,-1.254996e+001
1.258232e+003,-1.229491e+001
1.259196e+003,-1.208354e+001
1.260160e+003,-1.168989e+001
1.261125e+003,-1.107594e+001
1.262089e+003,-1.022057e+001
1.263053e+003,-8.424637e+000
1.264017e+003,-7.408508e+000
1.264982e+003,-8.129532e+000
1.265946e+003,-9.346657e+000
1.266910e+003,-9.916756e+000
1.267874e+003,-9.783424e+000
1.268839e+003,-9.636597e+000
1.269803e+003,-9.935432e+000
1.270767e+003,-1.020208e+001
1.271731e+003,-9.214272e+000
1.272695e+003,-7.077118e+000
1.273660e+003,-6.686005e+000
1.274624e+003,-8.804771e+000
1.275588e+003,-1.103374e+001
1.276552e+003,-1.206802e+001
1.277517e+003,-1.229002e+001
1.278481e+003,-1.247107e+001
1.279445e+003,-1.268076e+001
1.280409e+003,-1.263937e+001
1.281374e+003,-1.182236e+001
1.282338e+003,-1.132530e+001
1.283302e+003,-1.240293e+001
1.284266e+003,-1.367736e+001
1.285230e+003,-1.319711e+001
1.286195e+003,-1.106426e+001
1.287159e+003,-9.179695e+000
1.288123e+003,-9.089119e+000
1.289087e+003,-1.025508e+001
1.290052e+003,-1.117149e+001
1.291016e+003,-1.197646e+001
1.291980e+003,-1.205558e+001
1.292944e+003,-1.054945e+001
1.293909e+003,-9.577705e+000
1.294873e+003,-1.015022e+001
1.295837e+003,-1.152876e+001
1.296801e+003,-1.294267e+001
1.297766e+003,-1.419788e+001
1.298730e+003,-1.488054e+001
1.299694e+003,-1.475724e+001
1.300658e+003,-1.405093e+001
1.301622e+003,-1.276073e+001
1.302587e+003,-1.116252e+001
1.303551e+003,-9.575356e+000
1.304515e+003,-8.091820e+000
1.305479e+003,-7.015800e+000
1.306444e+003,-6.643181e+000
1.307408e+003,-6.867561e+000
1.308372e+003,-7.253792e+000
1.309336e+003,-7.747597e+000
1.310301e+003,-8.598747e+000
1.311265e+003,-1.058189e+001
1.312229e+003,-1.191209e+001
1.313193e+003,-1.152753e+001
1.314157e+003,-1.060210e+001
1.315122e+003,-1.045776e+001
1.316086e+003,-1.116102e+001
1.317050e+003,-1.185567e+001
1.318014e+003,-1.197578e+001
1.318979e+003,-1.158875e+001
1.319943e+003,-1.046732e+001
1.320907e+003,-8.860336e+000
1.321871e+003,-9.193718e+000
1.322836e+003,-1.238300e+001
1.323800e+003,-1.481286e+001
1.324764e+003,-1.420236e+001
1.325728e+003,-1.181477e+001
1.326693e+003,-9.339035e+000
1.327657e+003,-6.833298e+000
1.328621e+003,-6.050682e+000
1.329585e+003,-8.558456e+000
1.330549e+003,-1.072046e+001
1.331514e+003,-1.019058e+001
1.332478e+003,-9.056030e+000
1.333442e+003,-9.551109e+000
1.334406e+003,-1.136121e+001
1.335371e+003,-1.256562e+001
1.336335e+003,-1.201116e+001
1.337299e+003,-1.043690e+001
1.338263e+003,-9.214638e+000
1.339228e+003,-8.327049e+000
1.340192e+003,-7.947540e+000
1.341156e+003,-8.613441e+000
1.342120e+003,-8.965370e+000
1.343084e+003,-8.440498e+000
1.344049e+003,-7.956100e+000
1.345013e+003,-8.501884e+000
1.345977e+003,-9.669220e+000
1.346941e+003,-1.015698e+001
1.347906e+003,-9.487343e+000
1.348870e+003,-8.346008e+000
1.349834e+003,-7.162254e+000
1.350798e+003,-6.113098e+000
1.351763e+003,-5.241043e+000
1.352727e+003,-4.626556e+000
1.353691e+003,-4.920158e+000
1.354655e+003,-6.559196e+000
1.355620e+003,-8.444168e+000
1.356584e+003,-9.133621e+000
1.357548e+003,-8.784149e+000
1.358512e+003,-9.090019e+000
1.359476e+003,-1.073186e+001
1.360441e+003,-1.154691e+001
1.361405e+003,-1.048321e+001
1.362369e+003,-8.993652e+000
1.363333e+003,-7.455673e+000
1.364298e+003,-6.083076e+000
1.365262e+003,-4.988899e+000
1.366226e+003,-4.248161e+000
1.367190e+003,-3.974953e+000
1.368155e+003,-4.271095e+000
1.369119e+003,-5.085838e+000
1.370083e+003,-6.289322e+000
1.371047e+003,-8.060196e+000
1.372011e+003,-9.321434e+000
1.372976e+003,-9.902847e+000
1.373940e+003,-1.033885e+001
1.374904e+003,-1.102581e+001
1.375868e+003,-1.150328e+001
1.376833e+003,-1.091615e+001
1.377797e+003,-9.420113e+000
1.378761e+003,-8.424530e+000
1.379725e+003,-8.586998e+000
1.380690e+003,-9.163376e+000
1.381654e+003,-9.682671e+000
1.382618e+003,-9.967369e+000
1.383582e+003,-9.721535e+000
1.384547e+003,-8.963470e+000
1.385511e+003,-7.917175e+000
1.386475e+003,-6.666298e+000
1.387439e+003,-5.368950e+000
1.388403e+003,-4.002716e+000
1.389368e+003,-2.578461e+000
1.390332e+003,-2.608429e+000
1.391296e+003,-5.053085e+000
1.392260e+003,-7.036064e+000
1.393225e+003,-8.103859e+000
1.394189e+003,-8.433098e+000
1.395153e+003,-7.549606e+000
1.396117e+003,-6.229401e+000
1.397082e+003,-5.592575e+000
1.398046e+003,-5.888252e+000
1.399010e+003,-6.557190e+000
1.399974e+003,-7.143616e+000
1.400938e+003,-7.528717e+000
1.401903e+003,-7.079353e+000
1.402867e+003,-5.242386e+000
1.403831e+003,-4.495346e+000
1.404795e+003,-6.061310e+000
1.405760e+003,-7.149391e+000
1.406724e+003,-6.373337e+000
1.407688e+003,-5.090843e+000
1.408652e+003,-4.839874e+000
1.409617e+003,-5.543060e+000
1.410581e+003,-6.199638e+000
1.411545e+003,-6.417694e+000
1.412509e+003,-6.527260e+000
1.413474e+003,-7.104195e+000
1.414438e+003,-7.662766e+000
1.415402e+003,-7.021339e+000
1.416366e+003,-5.375992e+000
1.417330e+003,-4.308228e+000
1.418295e+003,-4.543350e+000
1.419259e+003,-5.128036e+000
1.420223e+003,-4.825981e+000
1.421187e+003,-3.894081e+000
1.422152e+003,-3.847755e+000
1.423116e+003,-4.971672e+000
1.424080e+003,-5.956673e+000
1.425044e+003,-6.684296e+000
1.426009e+003,-7.029800e+000
1.426973e+003,-6.743164e+000
1.427937e+003,-6.155235e+000
1.428901e+003,-5.519577e+000
1.429865e+003,-4.944016e+000
1.430830e+003,-4.611847e+000
1.431794e+003,-4.653419e+000
1.432758e+003,-4.758850e+000
1.433722e+003,-4.181168e+000
1.434687e+003,-2.709496e+000
1.435651e+003,-2.296715e+000
1.436615e+003,-4.215118e+000
1.437579e+003,-5.635834e+000
1.438544e+003,-6.308105e+000
1.439508e+003,-6.372955e+000
1.440472e+003,-5.417282e+000
1.441436e+003,-4.046120e+000
1.442401e+003,-3.363136e+000
1.443365e+003,-3.635300e+000
1.444329e+003,-4.427818e+000
1.445293e+003,-5.580017e+000
1.446257e+003,-6.557343e+000
1.447222e+003,-6.053925e+000
1.448186e+003,-4.412247e+000
1.449150e+003,-3.504448e+000
1.450114e+003,-3.611763e+000
1.451079e+003,-4.009338e+000
1.452043e+003,-4.775589e+000
1.453007e+003,-5.252357e+000
1.453971e+003,-3.924889e+000
1.454936e+003,-1.232178e+000
1.455900e+003,-6.054459e-001
1.456864e+003,-3.350594e+000
1.457828e+003,-6.005981e+000
1.458792e+003,-6.403107e+000
1.459757e+003,-6.105240e+000
1.460721e+003,-6.395874e+000
1.461685e+003,-6.969330e+000
1.462649e+003,-7.070229e+000
1.463614e+003,-6.491051e+000
1.464578e+003,-5.562729e+000
1.465542e+003,-4.543564e+000
1.466506e+003,-3.527023e+000
1.467471e+003,-2.626587e+000
1.468435e+003,-1.628990e+000
1.469399e+003,-1.535492e+000
1.470363e+003,-3.771751e+000
1.471328e+003,-5.065353e+000
1.472292e+003,-4.066513e+000
1.473256e+003,-2.618675e+000
1.474220e+003,-1.543861e+000
1.475184e+003,-1.126389e+000
1.476149e+003,-2.123146e+000
1.477113e+003,-4.402168e+000
1.478077e+003,-5.885910e+000
1.479041e+003,-4.454964e+000
1.480006e+003,-1.137863e+000
1.480970e+003,5.095367e-001
1.481934e+003,-3.231049e-002
1.482898e+003,-3.684616e-001
1.483863e+003,-3.349304e-001
1.484827e+003,-3.713913e-001
1.485791e+003,-4.623642e-001
1.486755e+003,-6.953583e-001
1.487719e+003,-1.448944e+000
1.488684e+003,-2.428337e+000
1.489648e+003,-2.688873e+000
1.490612e+003,-1.936150e+000
1.491576e+003,-1.176407e+000
1.492541e+003,-1.333595e+000
1.493505e+003,-1.904587e+000
1.494469e+003,-1.686974e+000
1.495433e+003,-8.816071e-001
1.496398e+003,-3.894577e-001
1.497362e+003,-3.173294e-001
1.498326e+003,-2.734680e-001
1.499290e+003,-5.166626e-002
1.500255e+003,2.342911e-001
1.501219e+003,1.310501e-001
1.502183e+003,-1.588821e-001
1.503147e+003,8.221359e-001
1.504111e+003,3.692795e+000
1.505076e+003,6.277893e+000
1.506040e+003,7.164886e+000
1.507004e+003,7.363495e+000
1.507968e+003,7.420540e+000
1.508933e+003,7.746536e+000
1.509897e+003,9.398956e+000
1.510861e+003,1.255865e+001
1.511825e+003,1.594456e+001
1.512790e+003,1.868745e+001
1.513754e+003,2.090984e+001
1.514718e+003,2.279919e+001
1.515682e+003,2.432016e+001
1.516646e+003,2.615244e+001
1.517611e+003,2.883663e+001
1.518575e+003,3.081329e+001
1.519539e+003,3.127034e+001
1.520503e+003,3.132374e+001
1.521468e+003,3.137221e+001
1.522432e+003,3.140743e+001
1.523396e+003,3.149382e+001
1.524360e+003,3.151671e+001
1.525325e+003,3.112022e+001
1.526289e+003,3.008237e+001
1.527253e+003,2.853867e+001
1.528217e+003,2.667744e+001
1.529182e+003,2.453152e+001
1.530146e+003,2.230737e+001
1.531110e+003,1.988957e+001
1.532074e+003,1.753231e+001
1.533039e+003,1.506579e+001
1.534003e+003,1.267381e+001
1.534967e+003,1.069824e+001
1.535931e+003,8.838249e+000
1.536896e+003,6.242905e+000
1.537860e+003,3.389030e+000
1.538824e+003,2.157516e+000
1.539788e+003,3.362831e+000
1.540752e+003,4.990860e+000
1.541717e+003,4.389381e+000
1.542681e+003,2.057579e+000
1.543645e+003,1.095528e+000
1.544609e+003,2.406387e+000
1.545573e+003,2.936806e+000
1.546538e+003,1.600830e+000
1.547502e+003,7.876816e-001
1.548466e+003,1.733162e+000
1.549430e+003,3.434479e+000
1.550395e+003,5.236366e+000
1.551359e+003,6.731949e+000
1.552323e+003,7.230896e+000
1.553287e+003,6.538918e+000
1.554252e+003,5.260994e+000
1.555216e+003,3.818268e+000
1.556180e+003,2.406174e+000
1.557144e+003,1.421738e+000
1.558109e+003,9.150238e-001
1.559073e+003,1.250320e+000
1.560037e+003,3.219254e+000
1.561001e+003,4.183907e+000
1.561966e+003,2.500908e+000
1.562930e+003,3.310699e-001
1.563894e+003,-5.405197e-001
1.564858e+003,-3.246613e-001
1.565823e+003,3.969955e-001
1.566787e+003,1.459846e+000
1.567751e+003,2.577713e+000
1.568715e+003,3.657318e+000
1.569679e+003,4.586166e+000
1.570644e+003,5.157928e+000
1.571608e+003,5.412445e+000
1.572572e+003,5.667854e+000
1.573536e+003,5.973579e+000
1.574500e+003,5.892883e+000
1.575465e+003,5.091362e+000
1.576429e+003,4.122360e+000
1.577393e+003,3.166977e+000
1.578357e+003,2.440842e+000
1.579322e+003,2.595421e+000
1.580286e+003,3.601219e+000
1.581250e+003,4.414307e+000
1.582214e+003,4.769882e+000
1.583179e+003,4.625298e+000
1.584143e+003,3.229652e+000
1.585107e+003,1.926849e+000
1.586071e+003,3.116638e+000
1.587036e+003,5.927956e+000
1.588000e+003,7.324661e+000
1.588964e+003,6.557762e+000
1.589928e+003,5.464272e+000
1.590893e+003,5.131958e+000
1.591857e+003,5.289146e+000
1.592821e+003,5.780205e+000
1.593785e+003,6.469612e+000
1.594750e+003,6.328690e+000
1.595714e+003,5.006310e+000
1.596678e+003,4.189636e+000
1.597642e+003,4.792198e+000
1.598606e+003,5.772255e+000
1.599571e+003,6.275574e+000
1.600535e+003,6.674751e+000
1.601499e+003,7.575935e+000
1.602463e+003,8.864769e+000
1.603427e+003,9.836342e+000
1.604392e+003,1.022153e+001
1.605356e+003,1.015828e+001
1.606320e+003,9.600487e+000
1.607284e+003,8.770821e+000
1.608249e+003,8.338135e+000
1.609213e+003,8.321342e+000
1.610177e+003,8.097748e+000
1.611141e+003,7.269012e+000
1.612106e+003,6.975807e+000
1.613070e+003,8.588470e+000
1.614034e+003,1.017469e+001
1.614998e+003,9.813065e+000
1.615963e+003,8.668602e+000
1.616927e+003,9.025391e+000
1.617891e+003,1.101248e+001
1.618855e+003,1.261213e+001
1.619820e+003,1.255520e+001
1.620784e+003,1.177579e+001
1.621748e+003,1.174905e+001
1.622712e+003,1.236439e+001
1.623677e+003,1.241324e+001
1.624641e+003,1.180478e+001
1.625605e+003,1.111441e+001
1.626569e+003,1.001893e+001
1.627533e+003,9.344658e+000
1.628498e+003,1.002874e+001
1.629462e+003,1.092509e+001
1.630426e+003,1.084832e+001
1.631390e+003,1.023015e+001
1.632354e+003,1.024459e+001
1.633319e+003,1.111573e+001
1.634283e+003,1.190842e+001
1.635247e+003,1.182913e+001
1.636211e+003,1.156167e+001
1.637176e+003,1.273617e+001
1.638140e+003,1.519738e+001
1.639104e+003,1.605135e+001
1.640068e+003,1.475601e+001
1.641033e+003,1.353104e+001
1.641997e+003,1.298122e+001
1.642961e+003,1.257027e+001
1.643925e+003,1.213322e+001
1.644890e+003,1.159746e+001
1.645854e+003,1.059364e+001
1.646818e+003,9.460434e+000
1.647782e+003,9.163239e+000
1.648747e+003,9.937538e+000
1.649711e+003,1.081853e+001
1.650675e+003,1.101924e+001
1.651639e+003,1.090408e+001
1.652604e+003,1.127108e+001
1.653568e+003,1.205714e+001
1.654532e+003,1.215453e+001
1.655496e+003,1.126247e+001
1.656460e+003,1.054926e+001
1.657425e+003,1.020992e+001
1.658389e+003,1.036581e+001
1.659353e+003,1.176971e+001
1.660317e+003,1.314001e+001
1.661281e+003,1.284650e+001
1.662246e+003,1.128558e+001
1.663210e+003,9.922653e+000
1.664174e+003,9.271965e+000
1.665138e+003,9.072647e+000
1.666103e+003,9.186935e+000
1.667067e+003,9.393654e+000
1.668031e+003,9.163048e+000
1.668995e+003,8.564369e+000
1.669960e+003,8.487114e+000
1.670924e+003,9.126793e+000
1.671888e+003,9.819458e+000
1.672852e+003,1.067036e+001
1.673817e+003,1.101075e+001
1.674781e+003,1.020718e+001
1.675745e+003,8.870628e+000
1.676709e+003,7.238319e+000
1.677674e+003,5.693123e+000
1.678638e+003,5.351746e+000
1.679602e+003,6.549789e+000
1.680566e+003,7.717972e+000
1.681531e+003,7.527290e+000
1.682495e+003,6.814522e+000
1.683459e+003,7.169556e+000
1.684423e+003,8.302124e+000
1.685387e+003,8.465752e+000
1.686352e+003,7.436172e+000
1.687316e+003,6.084389e+000
1.688280e+003,4.234520e+000
1.689244e+003,2.967323e+000
1.690208e+003,3.797424e+000
1.691173e+003,5.134239e+000
1.692137e+003,4.953339e+000
1.693101e+003,3.819153e+000
1.694065e+003,3.858528e+000
1.695030e+003,5.595367e+000
1.695994e+003,6.972221e+000
1.696958e+003,6.564796e+000
1.697922e+003,5.395035e+000
1.698887e+003,4.489182e+000
1.699851e+003,3.915909e+000
1.700815e+003,4.143494e+000
1.701779e+003,5.142067e+000
1.702744e+003,5.080307e+000
1.703708e+003,3.103828e+000
1.704672e+003,1.311440e+000
1.705636e+003,1.207016e+000
1.706601e+003,2.028320e+000
1.707565e+003,3.043289e+000
1.708529e+003,4.094864e+000
1.709493e+003,4.515282e+000
1.710458e+003,4.186737e+000
1.711422e+003,3.553452e+000
1.712386e+003,2.293427e+000
1.713350e+003,1.467834e+000
1.714314e+003,2.369827e+000
1.715279e+003,3.919113e+000
1.716243e+003,4.112976e+000
1.717207e+003,3.182213e+000
1.718171e+003,3.159676e+000
1.719135e+003,4.615288e+000
1.720100e+003,5.684349e+000
1.721064e+003,5.107590e+000
1.722028e+003,3.457336e+000
1.722992e+003,1.008438e+000
1.723957e+003,-1.684883e+000
1.724921e+003,-1.277496e+000
1.725885e+003,2.944313e+000
1.726849e+003,5.050743e+000
1.727814e+003,2.517883e+000
1.728778e+003,7.302094e-002
1.729742e+003,-3.372269e-001
1.730706e+003,2.763519e-001
1.731671e+003,1.235405e+000
1.732635e+003,2.218628e+000
1.733599e+003,2.888992e+000
1.734563e+003,3.249771e+000
1.735528e+003,3.619270e+000
1.736492e+003,4.143234e+000
1.737456e+003,4.166847e+000
1.738420e+003,2.792839e+000
1.739385e+003,5.349655e-001
1.740349e+003,-5.749588e-001
1.741313e+003,-3.458176e-001
1.742277e+003,2.561798e-001
1.743241e+003,2.167297e+000
1.744206e+003,3.050415e+000
1.745170e+003,1.555077e+000
1.746134e+003,1.363220e-001
1.747098e+003,4.382935e-001
1.748063e+003,1.321480e+000
1.749027e+003,1.526703e+000
1.749991e+003,9.988480e-001
1.750955e+003,9.292603e-003
1.751919e+003,-1.210678e+000
1.752884e+003,-2.172958e+000
1.753848e+003,-2.478355e+000
1.754812e+003,-2.117836e+000
1.755776e+003,-8.879623e-001
1.756741e+003,1.193527e+000
1.757705e+003,2.179726e+000
1.758669e+003,1.650108e+000
1.759633e+003,1.140678e+000
1.760598e+003,6.626358e-001
1.761562e+003,3.539276e-001
1.762526e+003,8.368225e-001
1.763490e+003,1.001556e+000
1.764455e+003,-4.935837e-001
1.765419e+003,-2.538521e+000
1.766383e+003,-3.625298e+000
1.767347e+003,-3.455559e+000
1.768312e+003,-1.863998e+000
1.769276e+003,1.265007e+000
1.770240e+003,3.880043e+000
1.771204e+003,3.714272e+000
1.772168e+003,1.806587e+000
1.773133e+003,1.265335e-001
1.774097e+003,-1.270905e+000
1.775061e+003,-1.587509e+000
1.776025e+003,-6.054459e-001
1.776990e+003,-2.159119e-003
1.777954e+003,-6.336594e-001
1.778918e+003,-9.197388e-001
1.779882e+003,9.283600e-001
1.780846e+003,3.156662e+000
1.781811e+003,3.246933e+000
1.782775e+003,1.791222e+000
1.783739e+003,6.712112e-001
1.784703e+003,1.631699e-001
1.785668e+003,-3.279114e-002
1.786632e+003,2.288818e-002
1.787596e+003,1.646957e-001
1.788560e+003,5.802002e-001
1.789525e+003,9.051590e-001
1.790489e+003,2.020493e-001
1.791453e+003,-1.081985e+000
1.792417e+003,-1.179489e+000
1.793382e+003,1.185760e-001
1.794346e+003,7.281418e-001
1.795310e+003,-5.455093e-001
1.796274e+003,-1.778488e+000
1.797239e+003,-5.653458e-001
1.798203e+003,2.148201e+000
1.799167e+003,3.097786e+000
1.800131e+003,1.831245e+000
1.801095e+003,1.234558e+000
1.802060e+003,2.231613e+000
1.803024e+003,2.532265e+000
1.803988e+003,1.110031e+000
1.804952e+003,-1.175232e-001
1.805917e+003,-1.449203e-001
1.806881e+003,3.707123e-001
1.807845e+003,9.349747e-001
1.808809e+003,1.408745e+000
1.809773e+003,1.648613e+000
1.810738e+003,1.694153e+000
1.811702e+003,2.036865e+000
1.812666e+003,2.946655e+000
1.813630e+003,3.327034e+000
1.814595e+003,1.426620e+000
1.815559e+003,-1.886070e+000
1.816523e+003,-2.774681e+000
1.817487e+003,-9.778595e-001
1.818452e+003,4.434433e-001
1.819416e+003,1.304482e+000
1.820380e+003,2.046829e+000
1.821344e+003,3.039619e+000
1.822309e+003,3.494171e+000
1.823273e+003,2.513542e+000
1.824237e+003,1.202408e+000
1.825201e+003,4.129944e-001
1.826166e+003,2.405090e-001
1.827130e+003,1.104492e+000
1.828094e+003,2.995537e+000
1.829058e+003,4.079407e+000
1.830022e+003,3.148941e+000
1.830987e+003,1.957069e+000
1.831951e+003,2.185089e+000
1.832915e+003,2.866600e+000
1.833879e+003,2.490288e+000
1.834844e+003,1.344315e+000
1.835808e+003,4.076080e-001
1.836772e+003,-1.264572e-001
1.837736e+003,-3.775406e-001
1.838700e+003,-4.188232e-001
1.839665e+003,-2.867889e-002
1.840629e+003,1.164429e+000
1.841593e+003,2.527878e+000
1.842557e+003,2.644341e+000
1.843522e+003,1.528015e+000
1.844486e+003,4.625168e-001
1.845450e+003,-1.276543e+000
1.846414e+003,-1.380943e+000
1.847379e+003,1.723961e+000
1.848343e+003,4.140068e+000
1.849307e+003,4.569366e+000
1.850271e+003,4.153679e+000
1.851236e+003,3.145767e+000
1.852200e+003,2.265015e+000
1.853164e+003,2.662506e+000
1.854128e+003,3.897713e+000
1.855093e+003,4.295265e+000
1.856057e+003,3.326248e+000
1.857021e+003,2.120827e+000
1.857985e+003,1.572227e+000
1.858949e+003,1.410904e+000
1.859914e+003,1.119438e+000
1.860878e+003,8.126068e-001
1.861842e+003,1.199593e+000
1.862806e+003,2.289413e+000
1.863771e+003,3.123993e+000
1.864735e+003,3.561058e+000
1.865699e+003,3.543602e+000
1.866663e+003,2.817879e+000
1.867627e+003,2.142525e+000
1.868592e+003,2.136406e+000
1.869556e+003,2.578789e+000
1.870520e+003,3.323082e+000
1.871484e+003,4.249153e+000
1.872449e+003,4.521736e+000
1.873413e+003,4.017937e+000
1.874377e+003,3.527184e+000
1.875341e+003,3.018532e+000
1.876306e+003,2.688072e+000
1.877270e+003,2.917809e+000
1.878234e+003,3.098671e+000
1.879198e+003,2.326523e+000
1.880163e+003,1.219147e+000
1.881127e+003,9.898148e-001
1.882091e+003,1.690376e+000
1.883055e+003,2.845779e+000
1.884020e+003,4.087852e+000
1.884984e+003,4.275673e+000
1.885948e+003,2.298157e+000
1.886912e+003,-3.125153e-001
1.887876e+003,-3.097229e-001
1.888841e+003,2.036308e+000
1.889805e+003,3.246155e+000
1.890769e+003,3.044952e+000
1.891733e+003,3.258202e+000
1.892698e+003,4.399261e+000
1.893662e+003,5.015457e+000
1.894626e+003,4.220367e+000
1.895590e+003,3.307884e+000
1.896554e+003,3.316490e+000
1.897519e+003,3.636856e+000
1.898483e+003,3.381386e+000
1.899447e+003,2.737282e+000
1.900411e+003,2.624550e+000
1.901376e+003,3.240486e+000
1.902340e+003,3.776070e+000
1.903304e+003,4.006157e+000
1.904268e+003,3.944878e+000
1.905233e+003,3.531342e+000
1.906197e+003,2.930229e+000
1.907161e+003,1.817772e+000
1.908125e+003,9.107285e-001
1.909090e+003,1.813850e+000
1.910054e+003,4.122147e+000
1.911018e+003,5.979477e+000
1.911982e+003,6.690643e+000
1.912947e+003,6.292580e+000
1.913911e+003,4.798988e+000
1.914875e+003,3.103127e+000
1.915839e+003,2.611580e+000
1.916803e+003,3.063858e+000
1.917768e+003,3.348259e+000
1.918732e+003,3.510750e+000
1.919696e+003,3.316528e+000
1.920660e+003,2.441803e+000
1.921625e+003,2.241676e+000
1.922589e+003,3.452728e+000
1.923553e+003,4.601349e+000
1.924517e+003,4.711990e+000
1.925481e+003,4.613716e+000
1.926446e+003,5.160988e+000
1.927410e+003,5.984756e+000
1.928374e+003,6.195656e+000
1.929338e+003,5.785385e+000
1.930303e+003,5.838287e+000
1.931267e+003,6.906227e+000
1.932231e+003,7.751785e+000
1.933195e+003,7.618889e+000
1.934160e+003,7.221748e+000
1.935124e+003,7.043617e+000
1.936088e+003,6.900970e+000
1.937052e+003,6.611320e+000
1.938017e+003,6.205658e+000
1.938981e+003,5.585236e+000
1.939945e+003,4.897514e+000
1.940909e+003,4.834106e+000
1.941874e+003,5.629341e+000
1.942838e+003,6.429146e+000
1.943802e+003,6.459770e+000
1.944766e+003,6.213760e+000
1.945730e+003,6.725029e+000
1.946695e+003,7.782547e+000
1.947659e+003,7.740799e+000
1.948623e+003,6.463676e+000
1.949587e+003,5.473785e+000
1.950552e+003,4.908150e+000
1.951516e+003,4.846855e+000
1.952480e+003,5.516808e+000
1.953444e+003,6.265152e+000
1.954408e+003,6.600151e+000
1.955373e+003,6.754074e+000
1.956337e+003,7.417213e+000
1.957301e+003,8.246521e+000
1.958265e+003,7.478622e+000
1.959230e+003,4.722137e+000
1.960194e+003,3.515877e+000
1.961158e+003,5.655571e+000
1.962122e+003,7.234749e+000
1.963087e+003,6.981979e+000
1.964051e+003,6.272942e+000
1.965015e+003,5.664154e+000
1.965979e+003,5.261292e+000
1.966944e+003,4.912247e+000
1.967908e+003,4.828217e+000
1.968872e+003,5.780212e+000
1.969836e+003,7.451607e+000
1.970801e+003,8.208405e+000
1.971765e+003,7.416298e+000
1.972729e+003,6.319099e+000
1.973693e+003,5.856850e+000
1.974657e+003,5.973801e+000
1.975622e+003,6.972733e+000
1.976586e+003,8.321060e+000
1.977550e+003,8.346397e+000
1.978514e+003,7.354515e+000
1.979479e+003,7.331482e+000
1.980443e+003,8.485657e+000
1.981407e+003,9.174889e+000
1.982371e+003,8.788551e+000
1.983335e+003,8.202805e+000
1.984300e+003,8.037811e+000
1.985264e+003,8.057808e+000
1.986228e+003,7.934540e+000
1.987192e+003,7.700081e+000
1.988157e+003,7.505539e+000
1.989121e+003,7.288193e+000
1.990085e+003,7.571091e+000
1.991049e+003,8.991089e+000
1.992014e+003,9.663383e+000
1.992978e+003,8.400223e+000
1.993942e+003,7.635155e+000
1.994906e+003,9.029182e+000
1.995871e+003,1.036108e+001
1.996835e+003,9.394302e+000
1.997799e+003,7.720795e+000
1.998763e+003,8.083931e+000
1.999728e+003,1.001628e+001
