5.003444e+002,3.766782e+001
5.013087e+002,4.058926e+001
5.022729e+002,4.000491e+001
5.032371e+002,3.702414e+001
5.042014e+002,3.551331e+001
5.051656e+002,3.525980e+001
5.061298e+002,3.491904e+001
5.070941e+002,3.308456e+001
5.080583e+002,2.901607e+001
5.090225e+002,2.748062e+001
5.099868e+002,3.005898e+001
5.109510e+002,3.264061e+001
5.119152e+002,3.289467e+001
5.128795e+002,3.057414e+001
5.138437e+002,2.871556e+001
5.148079e+002,2.859697e+001
5.157722e+002,2.898944e+001
5.167364e+002,2.983496e+001
5.177006e+002,3.077625e+001
5.186649e+002,3.100653e+001
5.196291e+002,2.880798e+001
5.205933e+002,2.612263e+001
5.215576e+002,2.524106e+001
5.225218e+002,2.612254e+001
5.234860e+002,2.743282e+001
5.244503e+002,2.688759e+001
5.254145e+002,2.390967e+001
5.263787e+002,2.199539e+001
5.273430e+002,2.156117e+001
5.283072e+002,2.189079e+001
5.292714e+002,2.196506e+001
5.302357e+002,2.136008e+001
5.311999e+002,2.098145e+001
5.321641e+002,2.111241e+001
5.331284e+002,2.163213e+001
5.340926e+002,2.249536e+001
5.350568e+002,2.364513e+001
5.360211e+002,2.457620e+001
5.369853e+002,2.569777e+001
5.379495e+002,2.624805e+001
5.389138e+002,2.496729e+001
5.398780e+002,2.158424e+001
5.408422e+002,1.721678e+001
5.418065e+002,1.495128e+001
5.427707e+002,1.455692e+001
5.437349e+002,1.498387e+001
5.446992e+002,1.620284e+001
5.456634e+002,1.790329e+001
5.466276e+002,1.905592e+001
5.475919e+002,1.953386e+001
5.485561e+002,1.956577e+001
5.495203e+002,1.879866e+001
5.504846e+002,1.760526e+001
5.514488e+002,1.654605e+001
5.524130e+002,1.589560e+001
5.533773e+002,1.545111e+001
5.543415e+002,1.492255e+001
5.553057e+002,1.455464e+001
5.562700e+002,1.480991e+001
5.572342e+002,1.593512e+001
5.581984e+002,1.712723e+001
5.591627e+002,1.605496e+001
5.601269e+002,1.372604e+001
5.610911e+002,1.214549e+001
5.620554e+002,1.236696e+001
5.630196e+002,1.404652e+001
5.639838e+002,1.452925e+001
5.649481e+002,1.270059e+001
5.659123e+002,1.132277e+001
5.668765e+002,1.134610e+001
5.678408e+002,1.234634e+001
5.688050e+002,1.280919e+001
5.697692e+002,1.119055e+001
5.707335e+002,1.030254e+001
5.716977e+002,1.206241e+001
5.726619e+002,1.477217e+001
5.736262e+002,1.605914e+001
5.745904e+002,1.417343e+001
5.755546e+002,1.097676e+001
5.765189e+002,9.031158e+000
5.774831e+002,7.974228e+000
5.784473e+002,7.578339e+000
5.794116e+002,7.744873e+000
5.803758e+002,8.448029e+000
5.813400e+002,8.111649e+000
5.823043e+002,6.312195e+000
5.832685e+002,4.430878e+000
5.842327e+002,2.816177e+000
5.851970e+002,1.605530e+000
5.861612e+002,1.145081e+000
5.871254e+002,1.717346e+000
5.880897e+002,2.744186e+000
5.890539e+002,4.515778e+000
5.900181e+002,6.521210e+000
5.909824e+002,8.062576e+000
5.919466e+002,8.757858e+000
5.929108e+002,8.778214e+000
5.938751e+002,8.381683e+000
5.948393e+002,7.664932e+000
5.958035e+002,6.644730e+000
5.967678e+002,5.366348e+000
5.977320e+002,4.041183e+000
5.986962e+002,4.260544e+000
5.996605e+002,5.917740e+000
6.006247e+002,7.142593e+000
6.015889e+002,6.890167e+000
6.025532e+002,5.293655e+000
6.035174e+002,4.135620e+000
6.044816e+002,3.737106e+000
6.054459e+002,3.544891e+000
6.064101e+002,3.525024e+000
6.073743e+002,3.644592e+000
6.083386e+002,3.907379e+000
6.093028e+002,4.409378e+000
6.102670e+002,4.959457e+000
6.112313e+002,5.532654e+000
6.121955e+002,5.975433e+000
6.131597e+002,6.051407e+000
6.141240e+002,5.600449e+000
6.150882e+002,4.747086e+000
6.160524e+002,4.070496e+000
6.170167e+002,3.604721e+000
6.179809e+002,3.165649e+000
6.189451e+002,2.518829e+000
6.199094e+002,1.686951e+000
6.208736e+002,1.328079e+000
6.218378e+002,1.867767e+000
6.228021e+002,2.754257e+000
6.237663e+002,4.531143e+000
6.247305e+002,6.527252e+000
6.256948e+002,7.503937e+000
6.266590e+002,6.404053e+000
6.276232e+002,5.213699e+000
6.285875e+002,5.365326e+000
6.295517e+002,6.174011e+000
6.305159e+002,7.068176e+000
6.314802e+002,7.645767e+000
6.324444e+002,7.718521e+000
6.334086e+002,6.706284e+000
6.343729e+002,4.981247e+000
6.353371e+002,2.730423e+000
6.363013e+002,-2.758636e-001
6.372656e+002,-3.468094e+000
6.382298e+002,-4.640366e+000
6.391940e+002,-7.733765e-001
6.401583e+002,1.073471e+000
6.411225e+002,-1.645508e-001
6.420867e+002,-2.672668e+000
6.430510e+002,-4.496368e+000
6.440152e+002,-5.210022e+000
6.449794e+002,-5.444839e+000
6.459437e+002,-5.625137e+000
6.469079e+002,-5.536026e+000
6.478721e+002,-4.851089e+000
6.488364e+002,-3.491348e+000
6.498006e+002,-1.784424e+000
6.507648e+002,-2.157440e-001
6.517291e+002,1.140762e+000
6.526933e+002,2.184448e+000
6.536575e+002,2.891510e+000
6.546218e+002,3.237656e+000
6.555860e+002,3.179718e+000
6.565502e+002,2.540329e+000
6.575145e+002,1.734085e+000
6.584787e+002,8.138123e-001
6.594429e+002,-2.634125e-001
6.604072e+002,-1.916077e+000
6.613714e+002,-4.380051e+000
6.623356e+002,-5.552002e+000
6.632999e+002,-3.045593e+000
6.642641e+002,-3.710022e-001
6.652283e+002,6.567841e-001
6.661926e+002,4.745483e-002
6.671568e+002,-9.346771e-001
6.681210e+002,-9.436493e-001
6.690853e+002,-2.437897e-001
6.700495e+002,5.494385e-001
6.710137e+002,1.402893e+000
6.719780e+002,2.148560e+000
6.729422e+002,2.627670e+000
6.739064e+002,2.845490e+000
6.748707e+002,2.336105e+000
6.758349e+002,9.194794e-001
6.767991e+002,-8.072968e-001
6.777634e+002,-2.998489e+000
6.787276e+002,-5.349045e+000
6.796918e+002,-6.420013e+000
6.806561e+002,-4.696854e+000
6.816203e+002,-2.795410e+000
6.825845e+002,-1.330856e+000
6.835488e+002,-4.641876e-001
6.845130e+002,-3.789825e-001
6.854772e+002,-1.268066e+000
6.864415e+002,-2.525742e+000
6.874057e+002,-3.211258e+000
6.883699e+002,-3.473160e+000
6.893342e+002,-3.043732e+000
6.902984e+002,-1.633972e+000
6.912626e+002,4.972839e-001
6.922269e+002,1.298309e+000
6.931911e+002,-2.536926e-001
6.941553e+002,-1.418076e+000
6.951196e+002,-2.296280e+000
6.960838e+002,-2.801971e+000
6.970480e+002,-2.608734e+000
6.980123e+002,-1.318649e+000
6.989765e+002,4.611206e-002
6.999407e+002,1.819534e+000
7.009050e+002,2.958359e+000
7.018692e+002,1.900192e+000
7.028334e+002,-1.507874e+000
7.037977e+002,-5.043152e+000
7.047619e+002,-4.624695e+000
7.057261e+002,-1.675674e+000
7.066904e+002,9.633942e-001
7.076546e+002,2.828186e+000
7.086188e+002,3.958130e+000
7.095831e+002,4.355850e+000
7.105473e+002,3.727936e+000
7.115115e+002,2.951874e+000
7.124758e+002,1.865921e+000
7.134400e+002,7.447662e-001
7.144042e+002,-3.390961e-001
7.153685e+002,-1.310013e+000
7.163327e+002,-1.765259e+000
7.172969e+002,-6.291504e-001
7.182612e+002,2.741852e-001
7.192254e+002,-2.401733e-002
7.201896e+002,-1.220169e+000
7.211539e+002,-2.650589e+000
7.221181e+002,-3.842957e+000
7.230823e+002,-4.512909e+000
7.240466e+002,-3.824249e+000
7.250108e+002,-1.986404e+000
7.259750e+002,8.758545e-003
7.269393e+002,1.623764e+000
7.279035e+002,2.622192e+000
7.288677e+002,2.128342e+000
7.298320e+002,-2.201752e+000
7.307962e+002,-4.557022e+000
7.317604e+002,-3.412659e+000
7.327247e+002,-5.072784e-001
7.336889e+002,1.777054e+000
7.346531e+002,2.679779e+000
7.356174e+002,2.682648e+000
7.365816e+002,2.603775e+000
7.375458e+002,2.011200e+000
7.385101e+002,-2.053070e-001
7.394743e+002,-3.849030e+000
7.404385e+002,-7.022766e+000
7.414028e+002,-6.522903e+000
7.423670e+002,-3.295944e+000
7.433312e+002,-1.083450e+000
7.442955e+002,7.133484e-002
7.452597e+002,4.865875e-001
7.462239e+002,2.597198e-001
7.471882e+002,-9.816589e-001
7.481524e+002,-1.462723e+000
7.491166e+002,-7.294617e-001
7.500809e+002,-2.460175e-001
7.510451e+002,-1.172043e+000
7.520093e+002,-2.899368e+000
7.529736e+002,-3.032562e+000
7.539378e+002,1.254181e+000
7.549020e+002,4.997192e+000
7.558663e+002,4.291550e+000
7.568306e+002,1.384140e+000
7.577948e+002,-6.415710e-001
7.587590e+002,7.141113e-003
7.597233e+002,2.240601e+000
7.606875e+002,3.114212e+000
7.616517e+002,2.885742e+000
7.626160e+002,2.749359e+000
7.635802e+002,3.054352e+000
7.645444e+002,3.598999e+000
7.655087e+002,3.916016e+000
7.664729e+002,3.817642e+000
7.674371e+002,3.803772e+000
7.684014e+002,3.981293e+000
7.693656e+002,4.146072e+000
7.703298e+002,4.386398e+000
7.712941e+002,4.634186e+000
7.722583e+002,4.307892e+000
7.732225e+002,2.346649e+000
7.741868e+002,2.015686e-001
7.751510e+002,-1.115967e+000
7.761152e+002,-1.605728e+000
7.770795e+002,-1.519974e+000
7.780437e+002,-1.088440e+000
7.790079e+002,-3.861542e-001
7.799722e+002,3.019409e-001
7.809364e+002,9.920959e-001
7.819006e+002,1.559021e+000
7.828649e+002,1.931808e+000
7.838291e+002,2.264038e+000
7.847933e+002,2.912079e+000
7.857576e+002,4.084320e+000
7.867218e+002,4.836227e+000
7.876860e+002,5.236313e+000
7.886503e+002,5.303574e+000
7.896145e+002,4.956955e+000
7.905787e+002,4.207672e+000
7.915430e+002,3.288910e+000
7.925072e+002,1.738739e+000
7.934714e+002,4.560699e-001
7.944357e+002,1.185623e+000
7.953999e+002,3.712891e+000
7.963641e+002,6.138580e+000
7.973284e+002,6.234909e+000
7.982926e+002,3.806488e+000
7.992568e+002,2.727829e+000
8.002211e+002,3.088333e+000
8.011853e+002,3.617935e+000
8.021495e+002,4.602554e+000
8.031138e+002,5.812332e+000
8.040780e+002,5.638565e+000
8.050422e+002,1.997330e+000
8.060065e+002,-3.777313e-001
8.069707e+002,5.865173e-001
8.079349e+002,2.864990e+000
8.088992e+002,4.634415e+000
8.098634e+002,5.257050e+000
8.108276e+002,5.473495e+000
8.117919e+002,6.314377e+000
8.127561e+002,7.179367e+000
8.137203e+002,7.229385e+000
8.146846e+002,6.505753e+000
8.156488e+002,5.445740e+000
8.166130e+002,4.440125e+000
8.175773e+002,3.380585e+000
8.185415e+002,2.820770e+000
8.195057e+002,2.964462e+000
8.204700e+002,3.020874e+000
8.214342e+002,2.453369e+000
8.223984e+002,1.609970e+000
8.233627e+002,1.435013e+000
8.243269e+002,2.422775e+000
8.252911e+002,3.961273e+000
8.262554e+002,6.340576e+000
8.272196e+002,8.550003e+000
8.281838e+002,9.231216e+000
8.291481e+002,8.078659e+000
8.301123e+002,6.329346e+000
8.310765e+002,6.380707e+000
8.320408e+002,7.898865e+000
8.330050e+002,7.343018e+000
8.339692e+002,4.013809e+000
8.349335e+002,3.290863e-001
8.358977e+002,-1.081009e+000
8.368619e+002,1.860352e-001
8.378262e+002,1.233307e+000
8.387904e+002,1.763428e+000
8.397546e+002,2.101974e+000
8.407189e+002,2.034500e+000
8.416831e+002,1.923431e+000
8.426473e+002,2.507416e+000
8.436116e+002,4.317200e+000
8.445758e+002,6.094864e+000
8.455400e+002,6.274368e+000
8.465043e+002,5.543137e+000
8.474685e+002,4.640030e+000
8.484327e+002,3.938644e+000
8.493970e+002,3.513214e+000
8.503612e+002,3.331848e+000
8.513254e+002,3.354416e+000
8.522897e+002,3.704056e+000
8.532539e+002,4.563690e+000
8.542181e+002,5.312607e+000
8.551824e+002,5.498154e+000
8.561466e+002,5.362885e+000
8.571108e+002,6.000793e+000
8.580751e+002,8.177124e+000
8.590393e+002,9.812851e+000
8.600035e+002,9.803436e+000
8.609678e+002,9.365967e+000
8.619320e+002,1.007063e+001
8.628962e+002,1.244725e+001
8.638605e+002,1.514565e+001
8.648247e+002,1.608626e+001
8.657889e+002,1.577403e+001
8.667532e+002,1.506023e+001
8.677174e+002,1.406050e+001
8.686816e+002,1.344937e+001
8.696459e+002,1.420242e+001
8.706101e+002,1.671356e+001
8.715743e+002,1.806551e+001
8.725386e+002,1.789072e+001
8.735028e+002,1.720790e+001
8.744670e+002,1.540186e+001
8.754313e+002,1.326453e+001
8.763955e+002,1.250867e+001
8.773597e+002,1.414836e+001
8.783240e+002,1.588097e+001
8.792882e+002,1.565977e+001
8.802524e+002,1.489355e+001
8.812167e+002,1.483150e+001
8.821809e+002,1.570110e+001
8.831451e+002,1.691541e+001
8.841094e+002,1.772794e+001
8.850736e+002,1.825711e+001
8.860378e+002,1.928114e+001
8.870021e+002,2.091174e+001
8.879663e+002,2.232162e+001
8.889305e+002,2.284256e+001
8.898948e+002,2.263339e+001
8.908590e+002,2.276541e+001
8.918232e+002,2.398134e+001
8.927875e+002,2.457835e+001
8.937517e+002,2.388504e+001
8.947159e+002,2.275516e+001
8.956802e+002,2.149860e+001
8.966444e+002,2.031500e+001
8.976086e+002,1.981436e+001
8.985729e+002,2.119034e+001
8.995371e+002,2.342096e+001
9.005013e+002,2.439021e+001
9.014656e+002,2.435858e+001
9.024298e+002,2.462849e+001
9.033940e+002,2.613318e+001
9.043583e+002,2.860750e+001
9.053225e+002,3.072916e+001
9.062867e+002,3.322935e+001
9.072510e+002,3.400578e+001
9.082152e+002,3.203571e+001
9.091794e+002,2.924393e+001
9.101437e+002,2.723930e+001
9.111079e+002,2.625623e+001
9.120721e+002,2.617377e+001
9.130364e+002,2.791714e+001
9.140006e+002,2.950052e+001
9.149648e+002,3.003516e+001
9.159291e+002,2.961450e+001
9.168933e+002,2.827321e+001
9.178575e+002,2.602156e+001
9.188218e+002,2.339616e+001
9.197860e+002,2.261751e+001
9.207502e+002,2.361732e+001
9.217145e+002,2.515726e+001
9.226787e+002,2.785220e+001
9.236429e+002,3.051686e+001
9.246072e+002,3.122421e+001
9.255714e+002,2.949420e+001
9.265356e+002,2.784085e+001
9.274999e+002,2.664503e+001
9.284641e+002,2.551648e+001
9.294283e+002,2.430199e+001
9.303926e+002,2.315753e+001
9.313568e+002,2.224503e+001
9.323210e+002,2.161636e+001
9.332853e+002,2.143469e+001
9.342495e+002,2.272035e+001
9.352137e+002,2.445135e+001
9.361780e+002,2.499788e+001
9.371422e+002,2.410938e+001
9.381064e+002,2.254741e+001
9.390707e+002,2.106886e+001
9.400349e+002,1.934177e+001
9.409991e+002,1.912669e+001
9.419634e+002,2.207756e+001
9.429276e+002,2.415408e+001
9.438918e+002,2.382054e+001
9.448561e+002,2.215871e+001
9.458203e+002,2.111311e+001
9.467845e+002,2.138631e+001
9.477488e+002,2.161066e+001
9.487130e+002,2.022476e+001
9.496772e+002,1.868079e+001
9.506415e+002,1.797392e+001
9.516057e+002,1.827220e+001
9.525699e+002,1.952315e+001
9.535342e+002,2.170711e+001
9.544984e+002,2.450610e+001
9.554626e+002,2.530115e+001
9.564269e+002,2.390056e+001
9.573911e+002,2.286714e+001
9.583553e+002,2.314076e+001
9.593196e+002,2.397177e+001
9.602838e+002,2.420145e+001
9.612480e+002,2.370021e+001
9.622123e+002,2.273564e+001
9.631765e+002,2.065948e+001
9.641407e+002,1.894688e+001
9.651050e+002,1.857602e+001
9.660692e+002,1.901408e+001
9.670334e+002,1.904237e+001
9.679977e+002,1.795447e+001
9.689619e+002,1.660085e+001
9.699261e+002,1.676689e+001
9.708904e+002,1.790053e+001
9.718546e+002,1.877318e+001
9.728188e+002,1.900784e+001
9.737831e+002,1.915613e+001
9.747473e+002,2.017252e+001
9.757115e+002,2.241211e+001
9.766758e+002,2.379308e+001
9.776400e+002,2.348262e+001
9.786042e+002,2.352744e+001
9.795685e+002,2.472427e+001
9.805327e+002,2.624191e+001
9.814969e+002,2.703435e+001
9.824612e+002,2.682899e+001
9.834254e+002,2.626691e+001
9.843896e+002,2.605939e+001
9.853539e+002,2.549725e+001
9.863181e+002,2.341066e+001
9.872823e+002,2.000410e+001
9.882466e+002,1.667325e+001
9.892108e+002,1.471582e+001
9.901750e+002,1.416962e+001
9.911393e+002,1.421100e+001
9.921035e+002,1.521231e+001
9.930677e+002,1.551413e+001
9.940320e+002,1.443008e+001
9.949962e+002,1.333844e+001
9.959604e+002,1.342830e+001
9.969247e+002,1.480829e+001
9.978889e+002,1.705988e+001
9.988531e+002,2.114011e+001
9.998174e+002,2.420163e+001
1.000782e+003,2.384456e+001
1.001746e+003,2.188754e+001
1.002710e+003,2.099152e+001
1.003674e+003,2.226418e+001
1.004639e+003,2.461661e+001
1.005603e+003,2.622353e+001
1.006567e+003,2.694981e+001
1.007531e+003,2.672380e+001
1.008495e+003,2.493277e+001
1.009460e+003,2.348260e+001
1.010424e+003,2.383676e+001
1.011388e+003,2.555653e+001
1.012352e+003,2.679369e+001
1.013317e+003,2.733034e+001
1.014281e+003,2.714822e+001
1.015245e+003,2.580574e+001
1.016209e+003,2.420151e+001
1.017174e+003,2.328665e+001
1.018138e+003,2.288808e+001
1.019102e+003,2.187021e+001
1.020066e+003,1.925038e+001
1.021031e+003,1.574078e+001
1.021995e+003,1.278404e+001
1.022959e+003,1.025946e+001
1.023923e+003,9.134796e+000
1.024887e+003,1.009433e+001
1.025852e+003,1.190045e+001
1.026816e+003,1.273679e+001
1.027780e+003,1.261806e+001
1.028744e+003,1.187354e+001
1.029709e+003,9.674194e+000
1.030673e+003,7.799454e+000
1.031637e+003,6.977005e+000
1.032601e+003,6.641495e+000
1.033566e+003,5.995163e+000
1.034530e+003,4.792480e+000
1.035494e+003,3.513367e+000
1.036458e+003,2.391434e+000
1.037422e+003,1.662964e+000
1.038387e+003,2.092072e+000
1.039351e+003,3.477875e+000
1.040315e+003,4.305542e+000
1.041279e+003,3.313385e+000
1.042244e+003,1.151703e+000
1.043208e+003,9.344177e-001
1.044172e+003,4.597565e+000
1.045136e+003,6.656570e+000
1.046101e+003,6.291779e+000
1.047065e+003,5.234940e+000
1.048029e+003,4.134659e+000
1.048993e+003,3.234787e+000
1.049958e+003,3.110916e+000
1.050922e+003,4.403030e+000
1.051886e+003,5.785797e+000
1.052850e+003,5.606766e+000
1.053814e+003,4.792313e+000
1.054779e+003,4.519135e+000
1.055743e+003,5.020767e+000
1.056707e+003,5.784454e+000
1.057671e+003,6.192719e+000
1.058636e+003,6.219498e+000
1.059600e+003,6.565262e+000
1.060564e+003,7.863174e+000
1.061528e+003,8.841888e+000
1.062493e+003,9.283554e+000
1.063457e+003,9.137344e+000
1.064421e+003,8.111679e+000
1.065385e+003,6.268936e+000
1.066349e+003,5.033798e+000
1.067314e+003,5.930054e+000
1.068278e+003,6.677170e+000
1.069242e+003,5.285431e+000
1.070206e+003,2.854568e+000
1.071171e+003,9.786377e-001
1.072135e+003,3.495483e-001
1.073099e+003,6.635284e-001
1.074063e+003,1.535858e+000
1.075028e+003,3.069717e+000
1.075992e+003,4.579254e+000
1.076956e+003,6.361649e+000
1.077920e+003,7.499985e+000
1.078885e+003,7.552963e+000
1.079849e+003,6.946350e+000
1.080813e+003,6.227280e+000
1.081777e+003,5.367264e+000
1.082741e+003,5.055115e+000
1.083706e+003,6.417236e+000
1.084670e+003,7.524109e+000
1.085634e+003,6.938171e+000
1.086598e+003,5.317291e+000
1.087563e+003,4.158859e+000
1.088527e+003,4.318390e+000
1.089491e+003,5.177292e+000
1.090455e+003,5.358276e+000
1.091420e+003,4.678406e+000
1.092384e+003,4.095184e+000
1.093348e+003,3.507751e+000
1.094312e+003,3.019791e+000
1.095276e+003,2.951950e+000
1.096241e+003,3.156128e+000
1.097205e+003,2.885712e+000
1.098169e+003,1.695068e+000
1.099133e+003,8.219147e-001
1.100098e+003,1.059311e+000
1.101062e+003,1.525604e+000
1.102026e+003,1.416794e+000
1.102990e+003,1.108139e+000
1.103955e+003,1.874817e+000
1.104919e+003,4.424240e+000
1.105883e+003,7.220001e+000
1.106847e+003,6.648224e+000
1.107812e+003,2.652313e+000
1.108776e+003,7.380371e-001
1.109740e+003,1.734009e+000
1.110704e+003,3.569672e+000
1.111668e+003,5.197403e+000
1.112633e+003,6.622467e+000
1.113597e+003,7.517349e+000
1.114561e+003,7.689606e+000
1.115525e+003,7.439377e+000
1.116490e+003,6.036377e+000
1.117454e+003,5.034729e+000
1.118418e+003,5.923477e+000
1.119382e+003,8.195969e+000
1.120347e+003,1.039313e+001
1.121311e+003,1.152809e+001
1.122275e+003,1.152234e+001
1.123239e+003,1.018202e+001
1.124203e+003,7.800766e+000
1.125168e+003,6.334869e+000
1.126132e+003,6.225494e+000
1.127096e+003,6.347534e+000
1.128060e+003,5.490540e+000
1.129025e+003,3.995224e+000
1.129989e+003,3.846863e+000
1.130953e+003,5.916733e+000
1.131917e+003,7.535065e+000
1.132882e+003,7.246399e+000
1.133846e+003,7.142471e+000
1.134810e+003,8.727020e+000
1.135774e+003,1.157973e+001
1.136739e+003,1.457034e+001
1.137703e+003,1.702870e+001
1.138667e+003,1.877101e+001
1.139631e+003,1.916800e+001
1.140595e+003,1.844653e+001
1.141560e+003,1.876721e+001
1.142524e+003,2.030249e+001
1.143488e+003,2.293333e+001
1.144452e+003,2.689235e+001
1.145417e+003,3.185828e+001
1.146381e+003,3.669531e+001
1.147345e+003,4.138414e+001
1.148309e+003,4.578465e+001
1.149274e+003,4.897177e+001
1.150238e+003,5.289839e+001
1.151202e+003,5.923576e+001
1.152166e+003,6.703825e+001
1.153130e+003,7.464131e+001
1.154095e+003,8.108586e+001
1.155059e+003,8.609076e+001
1.156023e+003,8.925204e+001
1.156987e+003,9.077182e+001
1.157952e+003,9.249881e+001
1.158916e+003,9.487396e+001
1.159880e+003,9.635110e+001
1.160844e+003,9.670779e+001
1.161809e+003,9.502896e+001
1.162773e+003,8.885019e+001
1.163737e+003,7.692940e+001
1.164701e+003,6.620183e+001
1.165666e+003,5.860464e+001
1.166630e+003,5.257408e+001
1.167594e+003,4.819676e+001
1.168558e+003,4.474141e+001
1.169522e+003,4.140749e+001
1.170487e+003,3.793767e+001
1.171451e+003,3.470131e+001
1.172415e+003,3.206126e+001
1.173379e+003,2.998961e+001
1.174344e+003,2.839163e+001
1.175308e+003,2.722963e+001
1.176272e+003,2.678967e+001
1.177236e+003,2.786418e+001
1.178201e+003,2.924519e+001
1.179165e+003,2.930013e+001
1.180129e+003,2.793898e+001
1.181093e+003,2.607727e+001
1.182057e+003,2.308028e+001
1.183022e+003,2.098936e+001
1.183986e+003,2.125592e+001
1.184950e+003,2.218279e+001
1.185914e+003,2.196942e+001
1.186879e+003,2.066354e+001
1.187843e+003,1.978766e+001
1.188807e+003,2.056638e+001
1.189771e+003,2.232256e+001
1.190736e+003,2.316452e+001
1.191700e+003,2.299022e+001
1.192664e+003,2.271956e+001
1.193628e+003,2.261142e+001
1.194593e+003,2.232069e+001
1.195557e+003,2.163248e+001
1.196521e+003,2.052808e+001
1.197485e+003,1.883195e+001
1.198449e+003,1.619225e+001
1.199414e+003,1.407858e+001
1.200378e+003,1.320808e+001
1.201342e+003,1.303801e+001
1.202306e+003,1.347411e+001
1.203271e+003,1.426550e+001
1.204235e+003,1.538010e+001
1.205199e+003,1.668082e+001
1.206163e+003,1.728346e+001
1.207128e+003,1.546902e+001
1.208092e+003,1.104913e+001
1.209056e+003,9.176682e+000
1.210020e+003,1.136777e+001
1.210984e+003,1.264081e+001
1.211949e+003,1.108658e+001
1.212913e+003,8.117172e+000
1.213877e+003,5.369171e+000
1.214841e+003,3.017181e+000
1.215806e+003,1.020554e+000
1.216770e+003,-7.553711e-001
1.217734e+003,-1.997589e+000
1.218698e+003,-2.544662e+000
1.219663e+003,-2.626328e+000
1.220627e+003,-2.196289e+000
1.221591e+003,-1.482880e+000
1.222555e+003,-1.353882e+000
1.223520e+003,-2.640762e+000
1.224484e+003,-4.821671e+000
1.225448e+003,-5.565689e+000
1.226412e+003,-3.581589e+000
1.227376e+003,-3.157745e+000
1.228341e+003,-5.524170e+000
1.229305e+003,-8.073746e+000
1.230269e+003,-9.706268e+000
1.231233e+003,-1.044299e+001
1.232198e+003,-1.018279e+001
1.233162e+003,-8.787064e+000
1.234126e+003,-7.516357e+000
1.235090e+003,-7.216888e+000
1.236055e+003,-7.731125e+000
1.237019e+003,-9.578659e+000
1.237983e+003,-1.199799e+001
1.238947e+003,-1.265469e+001
1.239911e+003,-1.056456e+001
1.240876e+003,-7.891861e+000
1.241840e+003,-8.175613e+000
1.242804e+003,-1.170076e+001
1.243768e+003,-1.284332e+001
1.244733e+003,-8.586548e+000
1.245697e+003,-5.880798e+000
1.246661e+003,-6.445908e+000
1.247625e+003,-7.811768e+000
1.248590e+003,-8.324890e+000
1.249554e+003,-7.834259e+000
1.250518e+003,-6.663437e+000
1.251482e+003,-4.937775e+000
1.252447e+003,-3.336136e+000
1.253411e+003,-2.504761e+000
1.254375e+003,-2.349823e+000
1.255339e+003,-3.065948e+000
1.256303e+003,-4.530441e+000
1.257268e+003,-5.202347e+000
1.258232e+003,-3.943909e+000
1.259196e+003,-1.974228e+000
1.260160e+003,-2.062408e+000
1.261125e+003,-4.790680e+000
1.262089e+003,-5.366150e+000
1.263053e+003,-7.154388e-001
1.264017e+003,2.723267e+000
1.264982e+003,3.073456e+000
1.265946e+003,1.914825e+000
1.266910e+003,4.255066e-001
1.267874e+003,-1.003082e+000
1.268839e+003,-2.337067e+000
1.269803e+003,-3.543716e+000
1.270767e+003,-4.541687e+000
1.271731e+003,-5.203583e+000
1.272695e+003,-5.433746e+000
1.273660e+003,-4.914749e+000
1.274624e+003,-3.378525e+000
1.275588e+003,-2.201340e+000
1.276552e+003,-1.996780e+000
1.277517e+003,-2.524506e+000
1.278481e+003,-3.747604e+000
1.279445e+003,-5.801773e+000
1.280409e+003,-6.979111e+000
1.281374e+003,-5.790863e+000
1.282338e+003,-4.839554e+000
1.283302e+003,-6.026413e+000
1.284266e+003,-7.848328e+000
1.285230e+003,-8.382813e+000
1.286195e+003,-7.568649e+000
1.287159e+003,-6.861313e+000
1.288123e+003,-7.418900e+000
1.289087e+003,-8.793427e+000
1.290052e+003,-9.807281e+000
1.291016e+003,-1.050800e+001
1.291980e+003,-1.086293e+001
1.292944e+003,-1.062019e+001
1.293909e+003,-1.054933e+001
1.294873e+003,-1.125359e+001
1.295837e+003,-1.198784e+001
1.296801e+003,-1.144116e+001
1.297766e+003,-9.585449e+000
1.298730e+003,-8.364090e+000
1.299694e+003,-9.273575e+000
1.300658e+003,-1.043349e+001
1.301622e+003,-9.126602e+000
1.302587e+003,-6.818527e+000
1.303551e+003,-6.092773e+000
1.304515e+003,-7.253906e+000
1.305479e+003,-8.470047e+000
1.306444e+003,-8.272217e+000
1.307408e+003,-7.169159e+000
1.308372e+003,-6.861816e+000
1.309336e+003,-7.905243e+000
1.310301e+003,-8.033951e+000
1.311265e+003,-5.619720e+000
1.312229e+003,-4.073761e+000
1.313193e+003,-4.981201e+000
1.314157e+003,-6.902039e+000
1.315122e+003,-8.562698e+000
1.316086e+003,-9.619736e+000
1.317050e+003,-9.980957e+000
1.318014e+003,-9.473312e+000
1.318979e+003,-8.840942e+000
1.319943e+003,-9.902603e+000
1.320907e+003,-1.222839e+001
1.321871e+003,-1.229457e+001
1.322836e+003,-9.423996e+000
1.323800e+003,-6.654816e+000
1.324764e+003,-5.361832e+000
1.325728e+003,-5.247513e+000
1.326693e+003,-6.215378e+000
1.327657e+003,-8.332718e+000
1.328621e+003,-9.828430e+000
1.329585e+003,-1.004002e+001
1.330549e+003,-9.340866e+000
1.331514e+003,-7.374100e+000
1.332478e+003,-5.535156e+000
1.333442e+003,-5.336609e+000
1.334406e+003,-6.484482e+000
1.335371e+003,-7.635208e+000
1.336335e+003,-7.959610e+000
1.337299e+003,-7.687012e+000
1.338263e+003,-7.247559e+000
1.339228e+003,-6.588852e+000
1.340192e+003,-6.222626e+000
1.341156e+003,-6.450546e+000
1.342120e+003,-6.513687e+000
1.343084e+003,-6.255249e+000
1.344049e+003,-6.000900e+000
1.345013e+003,-5.849960e+000
1.345977e+003,-5.820221e+000
1.346941e+003,-6.246292e+000
1.347906e+003,-7.325180e+000
1.348870e+003,-7.732956e+000
1.349834e+003,-5.500427e+000
1.350798e+003,-2.467728e+000
1.351763e+003,-2.113876e+000
1.352727e+003,-4.070190e+000
1.353691e+003,-6.435776e+000
1.354655e+003,-8.857239e+000
1.355620e+003,-1.027910e+001
1.356584e+003,-8.448929e+000
1.357548e+003,-3.956223e+000
1.358512e+003,-2.856781e+000
1.359476e+003,-7.280624e+000
1.360441e+003,-1.034209e+001
1.361405e+003,-9.261627e+000
1.362369e+003,-7.492676e+000
1.363333e+003,-6.250824e+000
1.364298e+003,-5.590469e+000
1.365262e+003,-5.390228e+000
1.366226e+003,-5.574158e+000
1.367190e+003,-6.137512e+000
1.368155e+003,-7.093033e+000
1.369119e+003,-8.207596e+000
1.370083e+003,-8.735306e+000
1.371047e+003,-8.595337e+000
1.372011e+003,-7.802551e+000
1.372976e+003,-5.527634e+000
1.373940e+003,-3.913452e+000
1.374904e+003,-4.080505e+000
1.375868e+003,-5.038589e+000
1.376833e+003,-5.843307e+000
1.377797e+003,-6.304382e+000
1.378761e+003,-5.934265e+000
1.379725e+003,-4.198914e+000
1.380690e+003,-2.547409e+000
1.381654e+003,-2.810822e+000
1.382618e+003,-3.896332e+000
1.383582e+003,-4.354599e+000
1.384547e+003,-4.153976e+000
1.385511e+003,-3.967056e+000
1.386475e+003,-4.225494e+000
1.387439e+003,-4.469406e+000
1.388403e+003,-3.777237e+000
1.389368e+003,-2.163620e+000
1.390332e+003,-1.229568e+000
1.391296e+003,-1.063873e+000
1.392260e+003,-1.399109e+000
1.393225e+003,-2.798477e+000
1.394189e+003,-3.999924e+000
1.395153e+003,-4.067764e+000
1.396117e+003,-3.546188e+000
1.397082e+003,-3.494904e+000
1.398046e+003,-4.038956e+000
1.399010e+003,-4.051453e+000
1.399974e+003,-2.501373e+000
1.400938e+003,-3.352203e-001
1.401903e+003,-3.580780e-001
1.402867e+003,-3.100311e+000
1.403831e+003,-4.657410e+000
1.404795e+003,-4.622284e+000
1.405760e+003,-4.260345e+000
1.406724e+003,-3.940948e+000
1.407688e+003,-3.861832e+000
1.408652e+003,-4.295029e+000
1.409617e+003,-4.980362e+000
1.410581e+003,-4.892151e+000
1.411545e+003,-3.441467e+000
1.412509e+003,-2.161118e+000
1.413474e+003,-3.023422e+000
1.414438e+003,-4.853500e+000
1.415402e+003,-5.381836e+000
1.416366e+003,-4.705475e+000
1.417330e+003,-4.234131e+000
1.418295e+003,-4.554245e+000
1.419259e+003,-5.089172e+000
1.420223e+003,-5.306747e+000
1.421187e+003,-5.262543e+000
1.422152e+003,-4.892242e+000
1.423116e+003,-3.949295e+000
1.424080e+003,-3.154831e+000
1.425044e+003,-2.912384e+000
1.426009e+003,-2.825668e+000
1.426973e+003,-2.807159e+000
1.427937e+003,-2.822662e+000
1.428901e+003,-3.019882e+000
1.429865e+003,-3.186462e+000
1.430830e+003,-2.486145e+000
1.431794e+003,-4.532013e-001
1.432758e+003,1.641922e+000
1.433722e+003,1.241806e+000
1.434687e+003,-1.863007e+000
1.435651e+003,-2.930832e+000
1.436615e+003,-4.391022e-001
1.437579e+003,1.185455e+000
1.438544e+003,1.120804e+000
1.439508e+003,6.175079e-001
1.440472e+003,4.490356e-001
1.441436e+003,5.998688e-001
1.442401e+003,8.173981e-001
1.443365e+003,1.005341e+000
1.444329e+003,1.184128e+000
1.445293e+003,1.341614e+000
1.446257e+003,1.689743e+000
1.447222e+003,2.740952e+000
1.448186e+003,4.326614e+000
1.449150e+003,5.664505e+000
1.450114e+003,6.830704e+000
1.451079e+003,7.051376e+000
1.452043e+003,5.569809e+000
1.453007e+003,3.301239e+000
1.453971e+003,1.212982e+000
1.454936e+003,-6.642761e-001
1.455900e+003,-2.111847e+000
1.456864e+003,-3.216919e+000
1.457828e+003,-3.227463e+000
1.458792e+003,-5.739594e-001
1.459757e+003,2.234329e+000
1.460721e+003,3.048798e+000
1.461685e+003,2.463730e+000
1.462649e+003,1.780045e+000
1.463614e+003,1.424454e+000
1.464578e+003,1.274109e+000
1.465542e+003,1.236893e+000
1.466506e+003,1.170181e+000
1.467471e+003,6.872864e-001
1.468435e+003,-2.608337e-001
1.469399e+003,-8.632813e-001
1.470363e+003,-1.376831e+000
1.471328e+003,-1.286331e+000
1.472292e+003,5.996704e-003
1.473256e+003,1.279251e+000
1.474220e+003,1.647079e+000
1.475184e+003,1.521530e+000
1.476149e+003,1.743942e+000
1.477113e+003,2.513947e+000
1.478077e+003,3.446487e+000
1.479041e+003,4.271515e+000
1.480006e+003,4.815033e+000
1.480970e+003,4.215866e+000
1.481934e+003,1.901306e+000
1.482898e+003,4.716187e-001
1.483863e+003,3.260803e-002
1.484827e+003,1.808777e-001
1.485791e+003,1.408417e+000
1.486755e+003,2.821686e+000
1.487719e+003,3.485016e+000
1.488684e+003,3.549301e+000
1.489648e+003,3.557053e+000
1.490612e+003,3.763168e+000
1.491576e+003,4.756546e+000
1.492541e+003,7.252472e+000
1.493505e+003,1.033386e+001
1.494469e+003,1.187544e+001
1.495433e+003,1.204762e+001
1.496398e+003,1.244031e+001
1.497362e+003,1.348532e+001
1.498326e+003,1.445663e+001
1.499290e+003,1.447772e+001
1.500255e+003,1.453412e+001
1.501219e+003,1.608156e+001
1.502183e+003,1.890083e+001
1.503147e+003,2.171269e+001
1.504111e+003,2.424117e+001
1.505076e+003,2.670139e+001
1.506040e+003,2.886324e+001
1.507004e+003,3.146973e+001
1.507968e+003,3.588959e+001
1.508933e+003,4.106923e+001
1.509897e+003,4.404311e+001
1.510861e+003,4.467256e+001
1.511825e+003,4.772318e+001
1.512790e+003,5.713989e+001
1.513754e+003,6.954111e+001
1.514718e+003,7.846252e+001
1.515682e+003,8.382556e+001
1.516646e+003,8.981320e+001
1.517611e+003,9.685614e+001
1.518575e+003,1.044792e+002
1.519539e+003,1.144195e+002
1.520503e+003,1.231268e+002
1.521468e+003,1.281122e+002
1.522432e+003,1.309364e+002
1.523396e+003,1.339955e+002
1.524360e+003,1.374621e+002
1.525325e+003,1.400652e+002
1.526289e+003,1.409770e+002
1.527253e+003,1.398466e+002
1.528217e+003,1.357765e+002
1.529182e+003,1.288119e+002
1.530146e+003,1.223619e+002
1.531110e+003,1.175261e+002
1.532074e+003,1.108754e+002
1.533039e+003,1.014365e+002
1.534003e+003,9.074976e+001
1.534967e+003,7.889394e+001
1.535931e+003,6.700095e+001
1.536896e+003,5.572372e+001
1.537860e+003,4.556577e+001
1.538824e+003,3.723503e+001
1.539788e+003,3.099686e+001
1.540752e+003,2.610455e+001
1.541717e+003,2.161156e+001
1.542681e+003,1.770807e+001
1.543645e+003,1.519020e+001
1.544609e+003,1.500894e+001
1.545573e+003,1.407549e+001
1.546538e+003,1.131387e+001
1.547502e+003,8.965240e+000
1.548466e+003,7.749176e+000
1.549430e+003,7.628296e+000
1.550395e+003,9.238846e+000
1.551359e+003,1.167165e+001
1.552323e+003,1.246428e+001
1.553287e+003,1.087971e+001
1.554252e+003,9.165100e+000
1.555216e+003,9.388077e+000
1.556180e+003,1.048248e+001
1.557144e+003,9.851242e+000
1.558109e+003,7.457962e+000
1.559073e+003,5.659012e+000
1.560037e+003,4.477905e+000
1.561001e+003,3.654663e+000
1.561966e+003,3.380096e+000
1.562930e+003,3.411072e+000
1.563894e+003,3.239807e+000
1.564858e+003,3.141525e+000
1.565823e+003,4.276505e+000
1.566787e+003,6.713043e+000
1.567751e+003,8.130096e+000
1.568715e+003,7.054092e+000
1.569679e+003,5.040421e+000
1.570644e+003,3.551971e+000
1.571608e+003,2.717941e+000
1.572572e+003,3.190567e+000
1.573536e+003,5.083694e+000
1.574500e+003,6.785812e+000
1.575465e+003,7.808090e+000
1.576429e+003,8.356140e+000
1.577393e+003,8.334076e+000
1.578357e+003,7.988632e+000
1.579322e+003,7.764557e+000
1.580286e+003,7.754074e+000
1.581250e+003,8.429123e+000
1.582214e+003,1.031920e+001
1.583179e+003,1.137625e+001
1.584143e+003,8.920044e+000
1.585107e+003,5.782608e+000
1.586071e+003,6.554367e+000
1.587036e+003,9.954666e+000
1.588000e+003,1.143015e+001
1.588964e+003,9.834274e+000
1.589928e+003,8.112839e+000
1.590893e+003,8.374969e+000
1.591857e+003,9.473801e+000
1.592821e+003,9.626083e+000
1.593785e+003,9.048111e+000
1.594750e+003,8.853134e+000
1.595714e+003,9.108353e+000
1.596678e+003,9.952408e+000
1.597642e+003,1.192575e+001
1.598606e+003,1.381544e+001
1.599571e+003,1.457016e+001
1.600535e+003,1.479076e+001
1.601499e+003,1.530389e+001
1.602463e+003,1.602116e+001
1.603427e+003,1.619415e+001
1.604392e+003,1.548775e+001
1.605356e+003,1.448351e+001
1.606320e+003,1.358278e+001
1.607284e+003,1.290643e+001
1.608249e+003,1.295863e+001
1.609213e+003,1.377869e+001
1.610177e+003,1.399963e+001
1.611141e+003,1.301176e+001
1.612106e+003,1.238696e+001
1.613070e+003,1.351375e+001
1.614034e+003,1.468106e+001
1.614998e+003,1.444054e+001
1.615963e+003,1.347498e+001
1.616927e+003,1.297583e+001
1.617891e+003,1.309587e+001
1.618855e+003,1.329123e+001
1.619820e+003,1.322202e+001
1.620784e+003,1.289816e+001
1.621748e+003,1.246033e+001
1.622712e+003,1.203741e+001
1.623677e+003,1.158658e+001
1.624641e+003,1.104868e+001
1.625605e+003,1.094162e+001
1.626569e+003,1.158195e+001
1.627533e+003,1.186107e+001
1.628498e+003,1.044209e+001
1.629462e+003,9.343597e+000
1.630426e+003,1.097327e+001
1.631390e+003,1.408131e+001
1.632354e+003,1.575783e+001
1.633319e+003,1.534285e+001
1.634283e+003,1.432643e+001
1.635247e+003,1.370546e+001
1.636211e+003,1.338275e+001
1.637176e+003,1.326570e+001
1.638140e+003,1.338443e+001
1.639104e+003,1.358713e+001
1.640068e+003,1.384335e+001
1.641033e+003,1.412958e+001
1.641997e+003,1.464972e+001
1.642961e+003,1.498740e+001
1.643925e+003,1.471672e+001
1.644890e+003,1.434314e+001
1.645854e+003,1.448705e+001
1.646818e+003,1.491345e+001
1.647782e+003,1.485262e+001
1.648747e+003,1.410179e+001
1.649711e+003,1.335957e+001
1.650675e+003,1.313579e+001
1.651639e+003,1.360612e+001
1.652604e+003,1.565775e+001
1.653568e+003,1.911165e+001
1.654532e+003,1.967804e+001
1.655496e+003,1.603963e+001
1.656460e+003,1.349478e+001
1.657425e+003,1.453369e+001
1.658389e+003,1.573520e+001
1.659353e+003,1.494093e+001
1.660317e+003,1.356334e+001
1.661281e+003,1.321617e+001
1.662246e+003,1.362936e+001
1.663210e+003,1.361855e+001
1.664174e+003,1.282849e+001
1.665138e+003,1.183365e+001
1.666103e+003,1.101402e+001
1.667067e+003,1.034708e+001
1.668031e+003,9.696808e+000
1.668995e+003,9.137115e+000
1.669960e+003,9.760925e+000
1.670924e+003,1.227809e+001
1.671888e+003,1.329594e+001
1.672852e+003,1.054594e+001
1.673817e+003,7.718170e+000
1.674781e+003,6.947922e+000
1.675745e+003,7.440536e+000
1.676709e+003,9.038223e+000
1.677674e+003,1.108067e+001
1.678638e+003,1.182100e+001
1.679602e+003,1.072421e+001
1.680566e+003,9.153885e+000
1.681531e+003,8.104767e+000
1.682495e+003,7.393250e+000
1.683459e+003,6.353653e+000
1.684423e+003,5.151123e+000
1.685387e+003,5.490738e+000
1.686352e+003,7.837158e+000
1.687316e+003,9.326965e+000
1.688280e+003,8.689987e+000
1.689244e+003,7.668228e+000
1.690208e+003,7.582611e+000
1.691173e+003,7.714294e+000
1.692137e+003,7.366837e+000
1.693101e+003,6.643997e+000
1.694065e+003,5.666718e+000
1.695030e+003,4.369202e+000
1.695994e+003,3.367508e+000
1.696958e+003,3.204071e+000
1.697922e+003,3.426270e+000
1.698887e+003,3.508957e+000
1.699851e+003,3.524902e+000
1.700815e+003,3.614456e+000
1.701779e+003,3.751999e+000
1.702744e+003,3.898499e+000
1.703708e+003,4.079666e+000
1.704672e+003,4.531906e+000
1.705636e+003,5.635223e+000
1.706601e+003,6.644302e+000
1.707565e+003,6.358902e+000
1.708529e+003,5.250473e+000
1.709493e+003,4.809723e+000
1.710458e+003,5.355804e+000
1.711422e+003,5.006287e+000
1.712386e+003,1.947693e+000
1.713350e+003,-8.928375e-001
1.714314e+003,-1.190414e+000
1.715279e+003,9.793091e-002
1.716243e+003,2.057022e+000
1.717207e+003,4.201859e+000
1.718171e+003,4.668350e+000
1.719135e+003,2.964081e+000
1.720100e+003,1.694855e+000
1.721064e+003,2.774017e+000
1.722028e+003,4.448395e+000
1.722992e+003,4.043427e+000
1.723957e+003,2.165588e+000
1.724921e+003,2.148865e+000
1.725885e+003,4.415543e+000
1.726849e+003,4.897156e+000
1.727814e+003,1.201157e+000
1.728778e+003,-1.690659e+000
1.729742e+003,-1.125092e+000
1.730706e+003,6.657562e-001
1.731671e+003,1.691803e+000
1.732635e+003,1.982666e+000
1.733599e+003,2.374817e+000
1.734563e+003,2.946609e+000
1.735528e+003,2.510635e+000
1.736492e+003,4.132233e-001
1.737456e+003,-1.555908e+000
1.738420e+003,-1.186600e+000
1.739385e+003,7.628174e-001
1.740349e+003,1.774872e+000
1.741313e+003,1.861908e+000
1.742277e+003,1.224442e+000
1.743241e+003,-9.960938e-001
1.744206e+003,-2.419540e+000
1.745170e+003,-2.469254e+000
1.746134e+003,-2.060455e+000
1.747098e+003,-1.216537e+000
1.748063e+003,-5.579987e-001
1.749027e+003,-1.082489e+000
1.749991e+003,-2.303116e+000
1.750955e+003,-2.638687e+000
1.751919e+003,-1.736069e+000
1.752884e+003,-1.159637e+000
1.753848e+003,-2.228760e+000
1.754812e+003,-3.838470e+000
1.755776e+003,-3.602585e+000
1.756741e+003,-1.530121e+000
1.757705e+003,-2.087402e-001
1.758669e+003,4.141235e-002
1.759633e+003,2.847900e-001
1.760598e+003,6.954956e-001
1.761562e+003,8.673401e-001
1.762526e+003,4.752045e-001
1.763490e+003,1.655273e-001
1.764455e+003,7.752838e-001
1.765419e+003,1.599182e+000
1.766383e+003,1.131653e+000
1.767347e+003,-4.704590e-001
1.768312e+003,-1.252075e+000
1.769276e+003,-2.953186e-001
1.770240e+003,8.140106e-001
1.771204e+003,4.384460e-001
1.772168e+003,-7.207489e-001
1.773133e+003,-1.411819e+000
1.774097e+003,-1.610977e+000
1.775061e+003,-7.962189e-001
1.776025e+003,1.221634e+000
1.776990e+003,2.581909e+000
1.777954e+003,2.557983e+000
1.778918e+003,2.266373e+000
1.779882e+003,2.441193e+000
1.780846e+003,2.700180e+000
1.781811e+003,2.771286e+000
1.782775e+003,2.586105e+000
1.783739e+003,1.644455e+000
1.784703e+003,-2.166748e-001
1.785668e+003,-1.426804e+000
1.786632e+003,-1.251877e+000
1.787596e+003,-5.426025e-001
1.788560e+003,9.853668e-001
1.789525e+003,2.239487e+000
1.790489e+003,8.870239e-001
1.791453e+003,-2.170105e+000
1.792417e+003,-3.829666e+000
1.793382e+003,-3.456360e+000
1.794346e+003,-2.227142e+000
1.795310e+003,-7.021027e-001
1.796274e+003,5.669250e-001
1.797239e+003,9.735107e-001
1.798203e+003,8.225098e-001
1.799167e+003,7.995758e-001
1.800131e+003,8.229828e-001
1.801095e+003,3.797150e-001
1.802060e+003,-1.257431e+000
1.803024e+003,-1.848297e+000
1.803988e+003,-2.489929e-001
1.804952e+003,1.179367e+000
1.805917e+003,1.766479e+000
1.806881e+003,1.267502e+000
1.807845e+003,-1.815430e+000
1.808809e+003,-5.562714e+000
1.809773e+003,-5.806412e+000
1.810738e+003,-2.275192e+000
1.811702e+003,9.901428e-001
1.812666e+003,1.452332e+000
1.813630e+003,5.762787e-001
1.814595e+003,2.999268e-001
1.815559e+003,3.557434e-001
1.816523e+003,-4.958649e-001
1.817487e+003,-2.427856e+000
1.818452e+003,-2.819778e+000
1.819416e+003,-5.117340e-001
1.820380e+003,4.081879e-001
1.821344e+003,-2.925446e+000
1.822309e+003,-5.537354e+000
1.823273e+003,-3.425537e+000
1.824237e+003,4.689026e-002
1.825201e+003,1.553314e+000
1.826166e+003,1.473343e+000
1.827130e+003,1.137863e+000
1.828094e+003,7.936401e-001
1.829058e+003,9.614563e-001
1.830022e+003,2.304337e+000
1.830987e+003,3.472427e+000
1.831951e+003,3.046066e+000
1.832915e+003,1.989349e+000
1.833879e+003,1.711136e+000
1.834844e+003,2.020721e+000
1.835808e+003,2.103317e+000
1.836772e+003,1.870422e+000
1.837736e+003,1.939255e+000
1.838700e+003,2.573334e+000
1.839665e+003,2.649689e+000
1.840629e+003,9.806976e-001
1.841593e+003,-1.327606e+000
1.842557e+003,-1.949402e+000
1.843522e+003,-9.120178e-001
1.844486e+003,-2.671814e-002
1.845450e+003,9.246979e-001
1.846414e+003,1.469589e+000
1.847379e+003,1.295242e+000
1.848343e+003,8.883514e-001
1.849307e+003,3.061066e-001
1.850271e+003,-2.849426e-001
1.851236e+003,-1.094910e+000
1.852200e+003,-1.572235e+000
1.853164e+003,-5.912170e-001
1.854128e+003,1.249695e+000
1.855093e+003,1.732376e+000
1.856057e+003,3.089600e-001
1.857021e+003,-4.168396e-001
1.857985e+003,1.911652e+000
1.858949e+003,5.013062e+000
1.859914e+003,4.511093e+000
1.860878e+003,1.224915e+000
1.861842e+003,-1.536713e-001
1.862806e+003,4.272766e-001
1.863771e+003,4.859619e-001
1.864735e+003,-6.537170e-001
1.865699e+003,-1.133789e+000
1.866663e+003,3.998718e-001
1.867627e+003,1.896790e+000
1.868592e+003,9.132538e-001
1.869556e+003,-1.037979e+000
1.870520e+003,-3.999786e-001
1.871484e+003,2.234360e+000
1.872449e+003,2.591934e+000
1.873413e+003,-4.749756e-001
1.874377e+003,-2.092010e+000
1.875341e+003,-5.877686e-002
1.876306e+003,2.318390e+000
1.877270e+003,3.929047e+000
1.878234e+003,4.414810e+000
1.879198e+003,2.602173e+000
1.880163e+003,-1.134949e-001
1.881127e+003,-1.252121e+000
1.882091e+003,-6.546326e-001
1.883055e+003,3.860474e-001
1.884020e+003,1.249084e+000
1.884984e+003,2.072342e+000
1.885948e+003,3.014755e+000
1.886912e+003,3.598953e+000
1.887876e+003,2.503738e+000
1.888841e+003,8.033752e-002
1.889805e+003,1.269058e+000
1.890769e+003,7.338608e+000
1.891733e+003,9.975571e+000
1.892698e+003,7.085281e+000
1.893662e+003,3.755356e+000
1.894626e+003,1.013794e+000
1.895590e+003,-7.128296e-001
1.896554e+003,-9.347839e-001
1.897519e+003,-7.829285e-002
1.898483e+003,2.030701e+000
1.899447e+003,4.654327e+000
1.900411e+003,5.523468e+000
1.901376e+003,4.208298e+000
1.902340e+003,2.738937e+000
1.903304e+003,1.471664e+000
1.904268e+003,8.362732e-001
1.905233e+003,1.391617e+000
1.906197e+003,2.476761e+000
1.907161e+003,3.521545e+000
1.908125e+003,4.567368e+000
1.909090e+003,6.093323e+000
1.910054e+003,7.680435e+000
1.911018e+003,7.597290e+000
1.911982e+003,5.574646e+000
1.912947e+003,4.047150e+000
1.913911e+003,4.779419e+000
1.914875e+003,6.188217e+000
1.915839e+003,5.700897e+000
1.916803e+003,3.782425e+000
1.917768e+003,3.216476e+000
1.918732e+003,4.346344e+000
1.919696e+003,4.861649e+000
1.920660e+003,4.437027e+000
1.921625e+003,4.356781e+000
1.922589e+003,4.863174e+000
1.923553e+003,5.701202e+000
1.924517e+003,7.400299e+000
1.925481e+003,8.797623e+000
1.926446e+003,8.616882e+000
1.927410e+003,7.500916e+000
1.928374e+003,6.567322e+000
1.929338e+003,5.897308e+000
1.930303e+003,5.592514e+000
1.931267e+003,5.918564e+000
1.932231e+003,6.217117e+000
1.933195e+003,5.676010e+000
1.934160e+003,5.445938e+000
1.935124e+003,7.174698e+000
1.936088e+003,8.993576e+000
1.937052e+003,8.169403e+000
1.938017e+003,5.843201e+000
1.938981e+003,4.777802e+000
1.939945e+003,5.316711e+000
1.940909e+003,6.237045e+000
1.941874e+003,6.869354e+000
1.942838e+003,6.977020e+000
1.943802e+003,6.383575e+000
1.944766e+003,5.395386e+000
1.945730e+003,4.267456e+000
1.946695e+003,3.114853e+000
1.947659e+003,3.681915e+000
1.948623e+003,6.216995e+000
1.949587e+003,7.258408e+000
1.950552e+003,6.046799e+000
1.951516e+003,5.190887e+000
1.952480e+003,5.810501e+000
1.953444e+003,6.387604e+000
1.954408e+003,5.521454e+000
1.955373e+003,4.283966e+000
1.956337e+003,4.550613e+000
1.957301e+003,5.850113e+000
1.958265e+003,6.004639e+000
1.959230e+003,4.724792e+000
1.960194e+003,4.510925e+000
1.961158e+003,6.941055e+000
1.962122e+003,8.317673e+000
1.963087e+003,6.784943e+000
1.964051e+003,5.105591e+000
1.965015e+003,4.813232e+000
1.965979e+003,5.319214e+000
1.966944e+003,6.268951e+000
1.967908e+003,7.185104e+000
1.968872e+003,7.234695e+000
1.969836e+003,6.637329e+000
1.970801e+003,6.797119e+000
1.971765e+003,8.251785e+000
1.972729e+003,9.624557e+000
1.973693e+003,9.715500e+000
1.974657e+003,9.185181e+000
1.975622e+003,9.053650e+000
1.976586e+003,9.017105e+000
1.977550e+003,7.878189e+000
1.978514e+003,6.066071e+000
1.979479e+003,6.258865e+000
1.980443e+003,8.682220e+000
1.981407e+003,1.047484e+001
1.982371e+003,1.060617e+001
1.983335e+003,9.869629e+000
1.984300e+003,8.645645e+000
1.985264e+003,7.701797e+000
1.986228e+003,8.472504e+000
1.987192e+003,1.038870e+001
1.988157e+003,1.035545e+001
1.989121e+003,7.681885e+000
1.990085e+003,6.882675e+000
1.991049e+003,9.584198e+000
1.992014e+003,1.094891e+001
1.992978e+003,9.091965e+000
1.993942e+003,7.535583e+000
1.994906e+003,7.458603e+000
1.995871e+003,8.120407e+000
1.996835e+003,9.676086e+000
1.997799e+003,1.126221e+001
1.998763e+003,1.152922e+001
1.999728e+003,1.059718e+001
