5.003444e+002,2.213202e+001
5.013087e+002,2.546167e+001
5.022729e+002,2.836133e+001
5.032371e+002,3.056226e+001
5.042014e+002,3.013489e+001
5.051656e+002,2.758984e+001
5.061298e+002,2.501184e+001
5.070941e+002,2.421344e+001
5.080583e+002,2.538281e+001
5.090225e+002,2.629016e+001
5.099868e+002,2.674609e+001
5.109510e+002,2.719745e+001
5.119152e+002,2.806238e+001
5.128795e+002,2.944061e+001
5.138437e+002,3.032385e+001
5.148079e+002,3.071136e+001
5.157722e+002,3.043774e+001
5.167364e+002,2.913684e+001
5.177006e+002,2.675500e+001
5.186649e+002,2.350635e+001
5.196291e+002,1.887152e+001
5.205933e+002,1.485278e+001
5.215576e+002,1.340326e+001
5.225218e+002,1.435730e+001
5.234860e+002,1.666791e+001
5.244503e+002,1.894135e+001
5.254145e+002,2.177722e+001
5.263787e+002,2.292542e+001
5.273430e+002,2.087872e+001
5.283072e+002,1.816583e+001
5.292714e+002,1.858075e+001
5.302357e+002,2.439496e+001
5.311999e+002,2.711829e+001
5.321641e+002,2.531903e+001
5.331284e+002,2.190271e+001
5.340926e+002,1.830994e+001
5.350568e+002,1.475482e+001
5.360211e+002,1.231024e+001
5.369853e+002,1.376312e+001
5.379495e+002,1.633643e+001
5.389138e+002,1.766162e+001
5.398780e+002,1.675085e+001
5.408422e+002,1.428741e+001
5.418065e+002,1.195209e+001
5.427707e+002,9.769775e+000
5.437349e+002,8.023315e+000
5.446992e+002,6.613098e+000
5.456634e+002,5.707336e+000
5.466276e+002,6.073303e+000
5.475919e+002,1.016962e+001
5.485561e+002,1.274554e+001
5.495203e+002,1.261218e+001
5.504846e+002,1.090308e+001
5.514488e+002,9.310852e+000
5.524130e+002,8.509094e+000
5.533773e+002,8.238037e+000
5.543415e+002,7.929688e+000
5.553057e+002,8.079468e+000
5.562700e+002,9.320801e+000
5.572342e+002,1.198352e+001
5.581984e+002,1.526422e+001
5.591627e+002,1.893549e+001
5.601269e+002,2.231012e+001
5.610911e+002,2.204358e+001
5.620554e+002,1.596021e+001
5.630196e+002,4.974304e+000
5.639838e+002,-1.258301e+000
5.649481e+002,6.508179e-001
5.659123e+002,2.340332e+000
5.668765e+002,2.733459e+000
5.678408e+002,2.453369e+000
5.688050e+002,2.715088e+000
5.697692e+002,3.647644e+000
5.707335e+002,4.267578e+000
5.716977e+002,4.383911e+000
5.726619e+002,4.267151e+000
5.736262e+002,4.304504e+000
5.745904e+002,4.821472e+000
5.755546e+002,5.630615e+000
5.765189e+002,6.482910e+000
5.774831e+002,6.850220e+000
5.784473e+002,5.877563e+000
5.794116e+002,3.151611e+000
5.803758e+002,-7.811890e-001
5.813400e+002,-1.614136e+000
5.823043e+002,1.236511e+000
5.832685e+002,3.200562e+000
5.842327e+002,2.385498e+000
5.851970e+002,-4.302368e-001
5.861612e+002,-1.650513e+000
5.871254e+002,1.445923e-001
5.880897e+002,2.156006e+000
5.890539e+002,4.498169e+000
5.900181e+002,6.380615e+000
5.909824e+002,6.606201e+000
5.919466e+002,3.999634e+000
5.929108e+002,7.634888e-001
5.938751e+002,-1.000671e+000
5.948393e+002,-1.658325e+000
5.958035e+002,-1.620544e+000
5.967678e+002,-1.149719e+000
5.977320e+002,-1.493530e-001
5.986962e+002,1.193848e+000
5.996605e+002,2.473633e+000
6.006247e+002,3.590149e+000
6.015889e+002,4.683777e+000
6.025532e+002,5.754456e+000
6.035174e+002,6.239624e+000
6.044816e+002,5.883850e+000
6.054459e+002,5.248047e+000
6.064101e+002,3.825256e+000
6.073743e+002,2.223511e+000
6.083386e+002,1.604370e+000
6.093028e+002,3.029907e+000
6.102670e+002,4.923584e+000
6.112313e+002,6.348755e+000
6.121955e+002,7.158325e+000
6.131597e+002,7.040527e+000
6.141240e+002,5.791565e+000
6.150882e+002,3.715881e+000
6.160524e+002,2.265503e+000
6.170167e+002,1.505432e+000
6.179809e+002,1.130676e+000
6.189451e+002,9.293213e-001
6.199094e+002,6.844482e-001
6.208736e+002,4.846191e-002
6.218378e+002,-2.179932e+000
6.228021e+002,-2.508606e+000
6.237663e+002,1.418762e+000
6.247305e+002,7.040222e+000
6.256948e+002,9.993347e+000
6.266590e+002,7.610229e+000
6.276232e+002,3.524597e+000
6.285875e+002,-8.033447e-001
6.295517e+002,-4.215515e+000
6.305159e+002,-5.116882e+000
6.314802e+002,-2.895935e+000
6.324444e+002,6.861572e-001
6.334086e+002,6.224976e-001
6.343729e+002,-1.549377e+000
6.353371e+002,-2.116089e+000
6.363013e+002,5.341797e-001
6.372656e+002,4.957336e+000
6.382298e+002,6.228699e+000
6.391940e+002,1.112671e-001
6.401583e+002,-4.037354e+000
6.411225e+002,-4.313110e+000
6.420867e+002,-2.752747e+000
6.430510e+002,-2.119568e+000
6.440152e+002,-3.752502e+000
6.449794e+002,-5.409058e+000
6.459437e+002,-5.513306e+000
6.469079e+002,-5.387329e+000
6.478721e+002,-6.122925e+000
6.488364e+002,-7.929443e+000
6.498006e+002,-9.875488e+000
6.507648e+002,-1.084937e+001
6.517291e+002,-1.079388e+001
6.526933e+002,-8.606323e+000
6.536575e+002,-3.934326e+000
6.546218e+002,1.407959e+000
6.555860e+002,3.934998e+000
6.565502e+002,1.970825e+000
6.575145e+002,2.570801e-001
6.584787e+002,-1.221375e+000
6.594429e+002,-2.425842e+000
6.604072e+002,-3.488220e+000
6.613714e+002,-4.490662e+000
6.623356e+002,-4.513489e+000
6.632999e+002,-1.415894e+000
6.642641e+002,8.499146e-001
6.652283e+002,-3.921509e-001
6.661926e+002,-4.530640e+000
6.671568e+002,-8.582520e+000
6.681210e+002,-9.149719e+000
6.690853e+002,-7.204468e+000
6.700495e+002,-5.005981e+000
6.710137e+002,-2.700012e+000
6.719780e+002,-1.289246e+000
6.729422e+002,-2.128235e+000
6.739064e+002,-6.214966e+000
6.748707e+002,-7.120239e+000
6.758349e+002,-2.127502e+000
6.767991e+002,1.819458e+000
6.777634e+002,1.480530e+000
6.787276e+002,-2.384583e+000
6.796918e+002,-5.340210e+000
6.806561e+002,-5.208130e+000
6.816203e+002,-5.194397e+000
6.825845e+002,-7.209534e+000
6.835488e+002,-1.004474e+001
6.845130e+002,-1.139307e+001
6.854772e+002,-9.321472e+000
6.864415e+002,-5.373169e+000
6.874057e+002,-3.581787e+000
6.883699e+002,-3.713257e+000
6.893342e+002,-4.566650e+000
6.902984e+002,-5.456177e+000
6.912626e+002,-6.188538e+000
6.922269e+002,-6.178406e+000
6.931911e+002,-4.606995e+000
6.941553e+002,-2.308105e+000
6.951196e+002,1.530762e+000
6.960838e+002,5.175964e+000
6.970480e+002,5.679749e+000
6.980123e+002,9.801636e-001
6.989765e+002,-2.637573e+000
6.999407e+002,-1.792786e+000
7.009050e+002,2.529907e-001
7.018692e+002,8.911743e-001
7.028334e+002,-7.701416e-001
7.037977e+002,-3.475647e+000
7.047619e+002,-5.537964e+000
7.057261e+002,-6.545654e+000
7.066904e+002,-5.727905e+000
7.076546e+002,-2.984619e+000
7.086188e+002,1.754761e-001
7.095831e+002,1.238708e+000
7.105473e+002,-1.103027e+000
7.115115e+002,-2.054321e+000
7.124758e+002,-9.832153e-001
7.134400e+002,2.983398e-001
7.144042e+002,1.392578e+000
7.153685e+002,2.307739e+000
7.163327e+002,1.734863e+000
7.172969e+002,-3.300598e+000
7.182612e+002,-7.728149e+000
7.192254e+002,-9.762512e+000
7.201896e+002,-9.656677e+000
7.211539e+002,-8.010681e+000
7.221181e+002,-5.003967e+000
7.230823e+002,-1.711853e+000
7.240466e+002,-8.452148e-001
7.250108e+002,-1.701355e+000
7.259750e+002,-3.293701e+000
7.269393e+002,-5.617798e+000
7.279035e+002,-8.752991e+000
7.288677e+002,-1.028973e+001
7.298320e+002,-7.351013e+000
7.307962e+002,-4.847595e+000
7.317604e+002,-2.911377e+000
7.327247e+002,-1.552124e+000
7.336889e+002,-1.288452e+000
7.346531e+002,-3.187439e+000
7.356174e+002,-5.337463e+000
7.365816e+002,-6.130920e+000
7.375458e+002,-5.867737e+000
7.385101e+002,-4.557251e+000
7.394743e+002,-2.379089e+000
7.404385e+002,2.177124e-001
7.414028e+002,2.520874e+000
7.423670e+002,3.772705e+000
7.433312e+002,4.273010e+000
7.442955e+002,4.579224e+000
7.452597e+002,4.829956e+000
7.462239e+002,4.815918e+000
7.471882e+002,4.208435e+000
7.481524e+002,4.013123e+000
7.491166e+002,3.790710e+000
7.500809e+002,3.344421e+000
7.510451e+002,2.588013e+000
7.520093e+002,1.582275e+000
7.529736e+002,6.599121e-001
7.539378e+002,8.545532e-001
7.549020e+002,6.759644e-001
7.558663e+002,-1.957275e+000
7.568306e+002,-5.241394e+000
7.577948e+002,-6.787170e+000
7.587590e+002,-5.308350e+000
7.597233e+002,-1.847351e+000
7.606875e+002,2.091248e+000
7.616517e+002,6.577698e+000
7.626160e+002,8.704407e+000
7.635802e+002,7.032410e+000
7.645444e+002,3.435608e+000
7.655087e+002,1.680298e+000
7.664729e+002,2.307068e+000
7.674371e+002,3.595093e+000
7.684014e+002,6.790161e+000
7.693656e+002,9.201233e+000
7.703298e+002,8.232849e+000
7.712941e+002,4.104675e+000
7.722583e+002,1.139526e+000
7.732225e+002,4.285461e+000
7.741868e+002,8.096802e+000
7.751510e+002,7.523376e+000
7.761152e+002,3.879944e+000
7.770795e+002,1.188110e+000
7.780437e+002,2.981079e+000
7.790079e+002,8.284302e+000
7.799722e+002,8.943359e+000
7.809364e+002,4.749023e+000
7.819006e+002,7.152710e-001
7.828649e+002,-9.219971e-001
7.838291e+002,-5.864868e-001
7.847933e+002,-2.902832e-001
7.857576e+002,-5.891113e-001
7.867218e+002,-1.225098e+000
7.876860e+002,-2.363647e+000
7.886503e+002,-2.943604e+000
7.896145e+002,-1.761169e+000
7.905787e+002,1.345215e+000
7.915430e+002,4.706116e+000
7.925072e+002,6.680786e+000
7.934714e+002,7.037598e+000
7.944357e+002,5.242798e+000
7.953999e+002,1.947693e+000
7.963641e+002,-1.035339e+000
7.973284e+002,-1.781860e+000
7.982926e+002,-1.016235e-001
7.992568e+002,4.248047e-001
8.002211e+002,-1.778564e+000
8.011853e+002,-3.834534e+000
8.021495e+002,-3.740112e+000
8.031138e+002,-1.586609e+000
8.040780e+002,5.538940e-001
8.050422e+002,1.397827e+000
8.060065e+002,2.672974e+000
8.069707e+002,5.702698e+000
8.079349e+002,8.492798e+000
8.088992e+002,8.976013e+000
8.098634e+002,6.724060e+000
8.108276e+002,3.663574e+000
8.117919e+002,1.994385e+000
8.127561e+002,8.057861e-001
8.137203e+002,-3.244629e-001
8.146846e+002,-1.075073e+000
8.156488e+002,-1.708862e+000
8.166130e+002,-2.989563e+000
8.175773e+002,-5.497864e+000
8.185415e+002,-5.670776e+000
8.195057e+002,-2.875000e+000
8.204700e+002,2.502441e-001
8.214342e+002,3.246460e+000
8.223984e+002,5.919006e+000
8.233627e+002,8.058899e+000
8.243269e+002,1.015167e+001
8.252911e+002,1.068188e+001
8.262554e+002,8.180359e+000
8.272196e+002,4.434143e+000
8.281838e+002,7.926025e-001
8.291481e+002,-2.008484e+000
8.301123e+002,-3.619202e+000
8.310765e+002,-3.046570e+000
8.320408e+002,-5.688477e-001
8.330050e+002,9.374390e-001
8.339692e+002,1.288635e+000
8.349335e+002,1.084412e+000
8.358977e+002,7.310181e-001
8.368619e+002,2.524414e-001
8.378262e+002,1.107422e+000
8.387904e+002,4.335144e+000
8.397546e+002,7.124939e+000
8.407189e+002,8.918396e+000
8.416831e+002,9.853088e+000
8.426473e+002,1.012537e+001
8.436116e+002,9.676575e+000
8.445758e+002,9.480835e+000
8.455400e+002,1.034412e+001
8.465043e+002,1.133112e+001
8.474685e+002,1.215564e+001
8.484327e+002,1.288458e+001
8.493970e+002,1.329657e+001
8.503612e+002,1.247687e+001
8.513254e+002,9.916016e+000
8.522897e+002,8.551880e+000
8.532539e+002,8.531433e+000
8.542181e+002,8.829468e+000
8.551824e+002,9.267822e+000
8.561466e+002,1.022455e+001
8.571108e+002,1.183508e+001
8.580751e+002,1.385773e+001
8.590393e+002,1.494745e+001
8.600035e+002,1.579865e+001
8.609678e+002,1.568213e+001
8.619320e+002,1.251910e+001
8.628962e+002,5.853210e+000
8.638605e+002,-2.528076e-001
8.648247e+002,1.816650e+000
8.657889e+002,8.752930e+000
8.667532e+002,1.408789e+001
8.677174e+002,1.695966e+001
8.686816e+002,1.790253e+001
8.696459e+002,1.727661e+001
8.706101e+002,1.485846e+001
8.715743e+002,1.416339e+001
8.725386e+002,1.755219e+001
8.735028e+002,1.960724e+001
8.744670e+002,1.688495e+001
8.754313e+002,1.185254e+001
8.763955e+002,9.854614e+000
8.773597e+002,1.358447e+001
8.783240e+002,1.790204e+001
8.792882e+002,1.843188e+001
8.802524e+002,1.786108e+001
8.812167e+002,1.913794e+001
8.821809e+002,2.239703e+001
8.831451e+002,2.502374e+001
8.841094e+002,2.347803e+001
8.850736e+002,1.832941e+001
8.860378e+002,1.712982e+001
8.870021e+002,2.052808e+001
8.879663e+002,2.407867e+001
8.889305e+002,2.493152e+001
8.898948e+002,2.357953e+001
8.908590e+002,2.322937e+001
8.918232e+002,2.541357e+001
8.927875e+002,2.702667e+001
8.937517e+002,2.651910e+001
8.947159e+002,2.590680e+001
8.956802e+002,2.690393e+001
8.966444e+002,2.952539e+001
8.976086e+002,3.209003e+001
8.985729e+002,3.332446e+001
8.995371e+002,3.381525e+001
9.005013e+002,3.448187e+001
9.014656e+002,3.531866e+001
9.024298e+002,3.522607e+001
9.033940e+002,3.294019e+001
9.043583e+002,2.870355e+001
9.053225e+002,2.678918e+001
9.062867e+002,2.941119e+001
9.072510e+002,3.112378e+001
9.082152e+002,3.190192e+001
9.091794e+002,3.247913e+001
9.101437e+002,3.359961e+001
9.111079e+002,3.534961e+001
9.120721e+002,3.663678e+001
9.130364e+002,3.548029e+001
9.140006e+002,3.417157e+001
9.149648e+002,3.479681e+001
9.159291e+002,3.681219e+001
9.168933e+002,3.851471e+001
9.178575e+002,3.853973e+001
9.188218e+002,3.709552e+001
9.197860e+002,3.523712e+001
9.207502e+002,3.274854e+001
9.217145e+002,3.096375e+001
9.226787e+002,3.110809e+001
9.236429e+002,3.202826e+001
9.246072e+002,3.165973e+001
9.255714e+002,2.935107e+001
9.265356e+002,2.772290e+001
9.274999e+002,2.761316e+001
9.284641e+002,2.747253e+001
9.294283e+002,2.730524e+001
9.303926e+002,2.688855e+001
9.313568e+002,2.569122e+001
9.323210e+002,2.334918e+001
9.332853e+002,2.072888e+001
9.342495e+002,1.887567e+001
9.352137e+002,1.770557e+001
9.361780e+002,1.810254e+001
9.371422e+002,2.046759e+001
9.381064e+002,2.338147e+001
9.390707e+002,2.452063e+001
9.400349e+002,2.317993e+001
9.409991e+002,2.217505e+001
9.419634e+002,2.003485e+001
9.429276e+002,1.980573e+001
9.438918e+002,2.470367e+001
9.448561e+002,3.139636e+001
9.458203e+002,3.371393e+001
9.467845e+002,2.922150e+001
9.477488e+002,2.475897e+001
9.487130e+002,2.662842e+001
9.496772e+002,2.968799e+001
9.506415e+002,2.944092e+001
9.516057e+002,2.606842e+001
9.525699e+002,2.287756e+001
9.535342e+002,2.308026e+001
9.544984e+002,2.601318e+001
9.554626e+002,2.710327e+001
9.564269e+002,2.649139e+001
9.573911e+002,2.649506e+001
9.583553e+002,2.828979e+001
9.593196e+002,3.056213e+001
9.602838e+002,3.084979e+001
9.612480e+002,2.823700e+001
9.622123e+002,2.660010e+001
9.631765e+002,2.787787e+001
9.641407e+002,2.978906e+001
9.651050e+002,3.198419e+001
9.660692e+002,3.361719e+001
9.670334e+002,3.349127e+001
9.679977e+002,3.103284e+001
9.689619e+002,2.778479e+001
9.699261e+002,2.591699e+001
9.708904e+002,2.503027e+001
9.718546e+002,2.557422e+001
9.728188e+002,2.773431e+001
9.737831e+002,3.028455e+001
9.747473e+002,3.171594e+001
9.757115e+002,3.191046e+001
9.766758e+002,3.231970e+001
9.776400e+002,3.354950e+001
9.786042e+002,3.488092e+001
9.795685e+002,3.692444e+001
9.805327e+002,3.811639e+001
9.814969e+002,3.582288e+001
9.824612e+002,2.936981e+001
9.834254e+002,2.374762e+001
9.843896e+002,2.430157e+001
9.853539e+002,2.755029e+001
9.863181e+002,3.086908e+001
9.872823e+002,3.335297e+001
9.882466e+002,3.375543e+001
9.892108e+002,3.125543e+001
9.901750e+002,2.708252e+001
9.911393e+002,2.653320e+001
9.921035e+002,3.127393e+001
9.930677e+002,3.500433e+001
9.940320e+002,3.794952e+001
9.949962e+002,4.022888e+001
9.959604e+002,4.087079e+001
9.969247e+002,4.014337e+001
9.978889e+002,4.243414e+001
9.988531e+002,5.286182e+001
9.998174e+002,6.180188e+001
1.000782e+003,6.276147e+001
1.001746e+003,5.944543e+001
1.002710e+003,5.710431e+001
1.003674e+003,5.805701e+001
1.004639e+003,6.070679e+001
1.005603e+003,6.228973e+001
1.006567e+003,6.254773e+001
1.007531e+003,6.349994e+001
1.008495e+003,6.603113e+001
1.009460e+003,6.767010e+001
1.010424e+003,6.626398e+001
1.011388e+003,6.280731e+001
1.012352e+003,6.111700e+001
1.013317e+003,6.238641e+001
1.014281e+003,6.346008e+001
1.015245e+003,6.433777e+001
1.016209e+003,6.357037e+001
1.017174e+003,5.954108e+001
1.018138e+003,5.284021e+001
1.019102e+003,4.552869e+001
1.020066e+003,3.917065e+001
1.021031e+003,3.432739e+001
1.021995e+003,3.282660e+001
1.022959e+003,3.354120e+001
1.023923e+003,3.262952e+001
1.024887e+003,2.811725e+001
1.025852e+003,2.249860e+001
1.026816e+003,2.046326e+001
1.027780e+003,2.361102e+001
1.028744e+003,2.419830e+001
1.029709e+003,1.771442e+001
1.030673e+003,1.306805e+001
1.031637e+003,1.396558e+001
1.032601e+003,1.762262e+001
1.033566e+003,2.039154e+001
1.034530e+003,2.106390e+001
1.035494e+003,2.056885e+001
1.036458e+003,1.933289e+001
1.037422e+003,1.756567e+001
1.038387e+003,1.545782e+001
1.039351e+003,1.308008e+001
1.040315e+003,1.130811e+001
1.041279e+003,1.086182e+001
1.042244e+003,1.189594e+001
1.043208e+003,1.464722e+001
1.044172e+003,2.153027e+001
1.045136e+003,2.493365e+001
1.046101e+003,2.332562e+001
1.047065e+003,2.024878e+001
1.048029e+003,1.695129e+001
1.048993e+003,1.393250e+001
1.049958e+003,1.238080e+001
1.050922e+003,1.342981e+001
1.051886e+003,1.530609e+001
1.052850e+003,1.585266e+001
1.053814e+003,1.602814e+001
1.054779e+003,1.751251e+001
1.055743e+003,2.036542e+001
1.056707e+003,2.266034e+001
1.057671e+003,2.201038e+001
1.058636e+003,1.831152e+001
1.059600e+003,1.588739e+001
1.060564e+003,1.611322e+001
1.061528e+003,1.650989e+001
1.062493e+003,1.603430e+001
1.063457e+003,1.532379e+001
1.064421e+003,1.557947e+001
1.065385e+003,1.705548e+001
1.066349e+003,1.823047e+001
1.067314e+003,1.837585e+001
1.068278e+003,1.792395e+001
1.069242e+003,1.707916e+001
1.070206e+003,1.615021e+001
1.071171e+003,1.534778e+001
1.072135e+003,1.462604e+001
1.073099e+003,1.384296e+001
1.074063e+003,1.308136e+001
1.075028e+003,1.250269e+001
1.075992e+003,1.175726e+001
1.076956e+003,9.965698e+000
1.077920e+003,8.806396e+000
1.078885e+003,1.008319e+001
1.079849e+003,1.250201e+001
1.080813e+003,1.297302e+001
1.081777e+003,1.056476e+001
1.082741e+003,9.468750e+000
1.083706e+003,1.360913e+001
1.084670e+003,1.728101e+001
1.085634e+003,1.646222e+001
1.086598e+003,1.284607e+001
1.087563e+003,1.032892e+001
1.088527e+003,1.120734e+001
1.089491e+003,1.421472e+001
1.090455e+003,1.652460e+001
1.091420e+003,1.773920e+001
1.092384e+003,1.680096e+001
1.093348e+003,1.202173e+001
1.094312e+003,7.608704e+000
1.095276e+003,6.543274e+000
1.096241e+003,8.157776e+000
1.097205e+003,9.784607e+000
1.098169e+003,1.079559e+001
1.099133e+003,1.189923e+001
1.100098e+003,1.403967e+001
1.101062e+003,1.609137e+001
1.102026e+003,1.733337e+001
1.102990e+003,1.792456e+001
1.103955e+003,1.817517e+001
1.104919e+003,1.822754e+001
1.105883e+003,1.834253e+001
1.106847e+003,1.943420e+001
1.107812e+003,2.145190e+001
1.108776e+003,2.287140e+001
1.109740e+003,2.360059e+001
1.110704e+003,2.381427e+001
1.111668e+003,2.370251e+001
1.112633e+003,2.361871e+001
1.113597e+003,2.410339e+001
1.114561e+003,2.527588e+001
1.115525e+003,2.605060e+001
1.116490e+003,2.516943e+001
1.117454e+003,2.457751e+001
1.118418e+003,2.678156e+001
1.119382e+003,3.074359e+001
1.120347e+003,3.301019e+001
1.121311e+003,3.116504e+001
1.122275e+003,2.686859e+001
1.123239e+003,2.432977e+001
1.124203e+003,2.400122e+001
1.125168e+003,2.427643e+001
1.126132e+003,2.497528e+001
1.127096e+003,2.681171e+001
1.128060e+003,3.074469e+001
1.129025e+003,3.609448e+001
1.129989e+003,4.016730e+001
1.130953e+003,4.216455e+001
1.131917e+003,4.384570e+001
1.132882e+003,4.628357e+001
1.133846e+003,4.839557e+001
1.134810e+003,4.847925e+001
1.135774e+003,4.785822e+001
1.136739e+003,4.959204e+001
1.137703e+003,5.533270e+001
1.138667e+003,6.310443e+001
1.139631e+003,7.002063e+001
1.140595e+003,7.581580e+001
1.141560e+003,7.955316e+001
1.142524e+003,8.025629e+001
1.143488e+003,8.337634e+001
1.144452e+003,9.385333e+001
1.145417e+003,1.095902e+002
1.146381e+003,1.226635e+002
1.147345e+003,1.312050e+002
1.148309e+003,1.411312e+002
1.149274e+003,1.551248e+002
1.150238e+003,1.698974e+002
1.151202e+003,1.846151e+002
1.152166e+003,1.990061e+002
1.153130e+003,2.131402e+002
1.154095e+003,2.265757e+002
1.155059e+003,2.375715e+002
1.156023e+003,2.444363e+002
1.156987e+003,2.470649e+002
1.157952e+003,2.457419e+002
1.158916e+003,2.408713e+002
1.159880e+003,2.342739e+002
1.160844e+003,2.263058e+002
1.161809e+003,2.161008e+002
1.162773e+003,2.024582e+002
1.163737e+003,1.847067e+002
1.164701e+003,1.668157e+002
1.165666e+003,1.484009e+002
1.166630e+003,1.320628e+002
1.167594e+003,1.180306e+002
1.168558e+003,1.069293e+002
1.169522e+003,1.000056e+002
1.170487e+003,9.729999e+001
1.171451e+003,9.721790e+001
1.172415e+003,9.815045e+001
1.173379e+003,9.971552e+001
1.174344e+003,1.008628e+002
1.175308e+003,1.019280e+002
1.176272e+003,1.013282e+002
1.177236e+003,9.774713e+001
1.178201e+003,9.313806e+001
1.179165e+003,8.987335e+001
1.180129e+003,8.767932e+001
1.181093e+003,8.444196e+001
1.182057e+003,7.844470e+001
1.183022e+003,7.377942e+001
1.183986e+003,7.204272e+001
1.184950e+003,7.214343e+001
1.185914e+003,7.388580e+001
1.186879e+003,7.661932e+001
1.187843e+003,7.860724e+001
1.188807e+003,7.826654e+001
1.189771e+003,7.671173e+001
1.190736e+003,7.819836e+001
1.191700e+003,8.318201e+001
1.192664e+003,8.585382e+001
1.193628e+003,8.567529e+001
1.194593e+003,8.367059e+001
1.195557e+003,7.957361e+001
1.196521e+003,7.404193e+001
1.197485e+003,6.964679e+001
1.198449e+003,6.703094e+001
1.199414e+003,6.499500e+001
1.200378e+003,6.304297e+001
1.201342e+003,6.149689e+001
1.202306e+003,6.075494e+001
1.203271e+003,6.032507e+001
1.204235e+003,5.954315e+001
1.205199e+003,5.809918e+001
1.206163e+003,5.587958e+001
1.207128e+003,5.244348e+001
1.208092e+003,4.772485e+001
1.209056e+003,4.465948e+001
1.210020e+003,4.467065e+001
1.210984e+003,4.332404e+001
1.211949e+003,3.862567e+001
1.212913e+003,3.217078e+001
1.213877e+003,2.557458e+001
1.214841e+003,1.916400e+001
1.215806e+003,1.445361e+001
1.216770e+003,1.235907e+001
1.217734e+003,1.151660e+001
1.218698e+003,1.085229e+001
1.219663e+003,1.035547e+001
1.220627e+003,1.033130e+001
1.221591e+003,1.066168e+001
1.222555e+003,1.053046e+001
1.223520e+003,9.198975e+000
1.224484e+003,7.335510e+000
1.225448e+003,7.452576e+000
1.226412e+003,1.142828e+001
1.227376e+003,1.282611e+001
1.228341e+003,1.018250e+001
1.229305e+003,6.457703e+000
1.230269e+003,1.984985e+000
1.231233e+003,-2.125427e+000
1.232198e+003,-3.408875e+000
1.233162e+003,-9.537964e-001
1.234126e+003,2.520508e+000
1.235090e+003,5.515808e+000
1.236055e+003,7.609619e+000
1.237019e+003,9.041687e+000
1.237983e+003,9.222412e+000
1.238947e+003,6.173828e+000
1.239911e+003,-6.661377e-001
1.240876e+003,-7.514954e+000
1.241840e+003,-8.680725e+000
1.242804e+003,-3.775757e+000
1.243768e+003,-7.012939e-002
1.244733e+003,1.848145e+000
1.245697e+003,3.222290e+000
1.246661e+003,2.824768e+000
1.247625e+003,2.391663e+000
1.248590e+003,3.882568e+000
1.249554e+003,6.951904e+000
1.250518e+003,9.782043e+000
1.251482e+003,1.142407e+001
1.252447e+003,1.163525e+001
1.253411e+003,9.400146e+000
1.254375e+003,6.443542e+000
1.255339e+003,6.201965e+000
1.256303e+003,8.914001e+000
1.257268e+003,1.261371e+001
1.258232e+003,1.627362e+001
1.259196e+003,1.924792e+001
1.260160e+003,2.052850e+001
1.261125e+003,2.003235e+001
1.262089e+003,2.044666e+001
1.263053e+003,2.194983e+001
1.264017e+003,2.383295e+001
1.264982e+003,2.749731e+001
1.265946e+003,3.060583e+001
1.266910e+003,3.012482e+001
1.267874e+003,2.679327e+001
1.268839e+003,2.455865e+001
1.269803e+003,2.609515e+001
1.270767e+003,2.888983e+001
1.271731e+003,2.769104e+001
1.272695e+003,2.286462e+001
1.273660e+003,2.099994e+001
1.274624e+003,2.319904e+001
1.275588e+003,2.421033e+001
1.276552e+003,2.058630e+001
1.277517e+003,1.484814e+001
1.278481e+003,1.130768e+001
1.279445e+003,1.019543e+001
1.280409e+003,9.381287e+000
1.281374e+003,8.007813e+000
1.282338e+003,7.250000e+000
1.283302e+003,7.514648e+000
1.284266e+003,8.662659e+000
1.285230e+003,1.178815e+001
1.286195e+003,1.587964e+001
1.287159e+003,1.692419e+001
1.288123e+003,1.173212e+001
1.289087e+003,3.460754e+000
1.290052e+003,1.269653e+000
1.291016e+003,7.554382e+000
1.291980e+003,1.033685e+001
1.292944e+003,6.841858e+000
1.293909e+003,3.135376e+000
1.294873e+003,1.477112e+000
1.295837e+003,1.538940e+000
1.296801e+003,3.228333e+000
1.297766e+003,6.290405e+000
1.298730e+003,8.668030e+000
1.299694e+003,9.068604e+000
1.300658e+003,8.166382e+000
1.301622e+003,5.928467e+000
1.302587e+003,3.624939e+000
1.303551e+003,3.346191e+000
1.304515e+003,5.486084e+000
1.305479e+003,8.791077e+000
1.306444e+003,1.231439e+001
1.307408e+003,1.558850e+001
1.308372e+003,1.748199e+001
1.309336e+003,1.771350e+001
1.310301e+003,1.728156e+001
1.311265e+003,1.697839e+001
1.312229e+003,1.554834e+001
1.313193e+003,1.102869e+001
1.314157e+003,6.087097e+000
1.315122e+003,3.875122e+000
1.316086e+003,4.232544e+000
1.317050e+003,4.211426e+000
1.318014e+003,1.951050e+000
1.318979e+003,-6.043091e-001
1.319943e+003,2.147217e-001
1.320907e+003,4.075500e+000
1.321871e+003,6.063049e+000
1.322836e+003,4.945496e+000
1.323800e+003,3.962219e+000
1.324764e+003,5.314880e+000
1.325728e+003,7.763733e+000
1.326693e+003,9.292358e+000
1.327657e+003,9.647095e+000
1.328621e+003,8.342896e+000
1.329585e+003,4.717896e+000
1.330549e+003,2.397400e+000
1.331514e+003,2.216553e+000
1.332478e+003,3.184998e+000
1.333442e+003,5.760193e+000
1.334406e+003,9.105774e+000
1.335371e+003,1.068250e+001
1.336335e+003,8.996582e+000
1.337299e+003,5.511963e+000
1.338263e+003,2.740295e+000
1.339228e+003,5.533447e-001
1.340192e+003,5.159302e-001
1.341156e+003,5.587036e+000
1.342120e+003,8.293274e+000
1.343084e+003,4.651428e+000
1.344049e+003,2.324219e-001
1.345013e+003,3.863525e-001
1.345977e+003,4.263794e+000
1.346941e+003,7.757324e+000
1.347906e+003,9.408325e+000
1.348870e+003,9.879944e+000
1.349834e+003,9.272400e+000
1.350798e+003,7.933838e+000
1.351763e+003,7.160645e+000
1.352727e+003,6.864685e+000
1.353691e+003,5.780823e+000
1.354655e+003,3.267456e+000
1.355620e+003,6.305542e-001
1.356584e+003,-6.315918e-001
1.357548e+003,-4.800415e-001
1.358512e+003,5.521240e-001
1.359476e+003,2.623352e+000
1.360441e+003,3.837280e+000
1.361405e+003,2.188843e+000
1.362369e+003,1.612854e+000
1.363333e+003,5.860352e+000
1.364298e+003,1.157953e+001
1.365262e+003,1.376624e+001
1.366226e+003,1.151361e+001
1.367190e+003,7.731567e+000
1.368155e+003,4.952698e+000
1.369119e+003,3.418823e+000
1.370083e+003,4.190735e+000
1.371047e+003,8.479492e+000
1.372011e+003,1.065411e+001
1.372976e+003,7.709229e+000
1.373940e+003,5.897095e+000
1.374904e+003,1.001563e+001
1.375868e+003,1.522852e+001
1.376833e+003,1.375842e+001
1.377797e+003,6.128052e+000
1.378761e+003,1.740967e+000
1.379725e+003,5.434692e+000
1.380690e+003,1.098724e+001
1.381654e+003,1.236426e+001
1.382618e+003,1.156677e+001
1.383582e+003,1.085883e+001
1.384547e+003,1.045715e+001
1.385511e+003,1.039325e+001
1.386475e+003,1.068805e+001
1.387439e+003,1.069849e+001
1.388403e+003,8.880066e+000
1.389368e+003,5.209534e+000
1.390332e+003,4.612976e+000
1.391296e+003,9.870544e+000
1.392260e+003,1.333752e+001
1.393225e+003,1.124780e+001
1.394189e+003,9.111206e+000
1.395153e+003,1.118860e+001
1.396117e+003,1.482855e+001
1.397082e+003,1.499896e+001
1.398046e+003,1.105890e+001
1.399010e+003,7.584900e+000
1.399974e+003,8.615479e+000
1.400938e+003,1.199689e+001
1.401903e+003,1.203687e+001
1.402867e+003,8.561890e+000
1.403831e+003,6.980835e+000
1.404795e+003,6.620789e+000
1.405760e+003,7.961731e+000
1.406724e+003,1.244360e+001
1.407688e+003,1.658234e+001
1.408652e+003,1.663635e+001
1.409617e+003,1.330804e+001
1.410581e+003,1.005170e+001
1.411545e+003,8.204468e+000
1.412509e+003,6.657593e+000
1.413474e+003,2.952515e+000
1.414438e+003,-7.259521e-001
1.415402e+003,8.504028e-001
1.416366e+003,7.152405e+000
1.417330e+003,1.281555e+001
1.418295e+003,1.596301e+001
1.419259e+003,1.706665e+001
1.420223e+003,1.549011e+001
1.421187e+003,1.164606e+001
1.422152e+003,9.662231e+000
1.423116e+003,1.029138e+001
1.424080e+003,1.203156e+001
1.425044e+003,1.590381e+001
1.426009e+003,1.848602e+001
1.426973e+003,1.757495e+001
1.427937e+003,1.499170e+001
1.428901e+003,1.268329e+001
1.429865e+003,1.132208e+001
1.430830e+003,1.071881e+001
1.431794e+003,1.058356e+001
1.432758e+003,1.124792e+001
1.433722e+003,1.400586e+001
1.434687e+003,1.970947e+001
1.435651e+003,2.392700e+001
1.436615e+003,2.472064e+001
1.437579e+003,2.432300e+001
1.438544e+003,2.221075e+001
1.439508e+003,2.002081e+001
1.440472e+003,1.910895e+001
1.441436e+003,1.930212e+001
1.442401e+003,1.994305e+001
1.443365e+003,2.065833e+001
1.444329e+003,2.107886e+001
1.445293e+003,2.108276e+001
1.446257e+003,2.070514e+001
1.447222e+003,1.947815e+001
1.448186e+003,1.758331e+001
1.449150e+003,1.643085e+001
1.450114e+003,1.615314e+001
1.451079e+003,1.601575e+001
1.452043e+003,1.579504e+001
1.453007e+003,1.591681e+001
1.453971e+003,1.698883e+001
1.454936e+003,1.865790e+001
1.455900e+003,1.940546e+001
1.456864e+003,1.893555e+001
1.457828e+003,1.817651e+001
1.458792e+003,1.652521e+001
1.459757e+003,1.536023e+001
1.460721e+003,1.672137e+001
1.461685e+003,1.921143e+001
1.462649e+003,2.009705e+001
1.463614e+003,1.883167e+001
1.464578e+003,1.657007e+001
1.465542e+003,1.390930e+001
1.466506e+003,1.127887e+001
1.467471e+003,1.047400e+001
1.468435e+003,1.215704e+001
1.469399e+003,1.458850e+001
1.470363e+003,1.820734e+001
1.471328e+003,2.085577e+001
1.472292e+003,2.113837e+001
1.473256e+003,2.044476e+001
1.474220e+003,2.049237e+001
1.475184e+003,2.102087e+001
1.476149e+003,2.013629e+001
1.477113e+003,1.746179e+001
1.478077e+003,1.581616e+001
1.479041e+003,1.833997e+001
1.480006e+003,2.366693e+001
1.480970e+003,2.639282e+001
1.481934e+003,2.545044e+001
1.482898e+003,2.448010e+001
1.483863e+003,2.235840e+001
1.484827e+003,2.159979e+001
1.485791e+003,2.447949e+001
1.486755e+003,2.825311e+001
1.487719e+003,3.014960e+001
1.488684e+003,3.036462e+001
1.489648e+003,3.041809e+001
1.490612e+003,3.101569e+001
1.491576e+003,3.233636e+001
1.492541e+003,3.442291e+001
1.493505e+003,3.698242e+001
1.494469e+003,3.966180e+001
1.495433e+003,4.200427e+001
1.496398e+003,4.345154e+001
1.497362e+003,4.388373e+001
1.498326e+003,4.569647e+001
1.499290e+003,5.092126e+001
1.500255e+003,5.752118e+001
1.501219e+003,6.235840e+001
1.502183e+003,6.570575e+001
1.503147e+003,7.017877e+001
1.504111e+003,7.636121e+001
1.505076e+003,8.360852e+001
1.506040e+003,9.169769e+001
1.507004e+003,1.007658e+002
1.507968e+003,1.103668e+002
1.508933e+003,1.210645e+002
1.509897e+003,1.342935e+002
1.510861e+003,1.507737e+002
1.511825e+003,1.694097e+002
1.512790e+003,1.890477e+002
1.513754e+003,2.097545e+002
1.514718e+003,2.328632e+002
1.515682e+003,2.580033e+002
1.516646e+003,2.815073e+002
1.517611e+003,3.047617e+002
1.518575e+003,3.235018e+002
1.519539e+003,3.336407e+002
1.520503e+003,3.425542e+002
1.521468e+003,3.555886e+002
1.522432e+003,3.685923e+002
1.523396e+003,3.762803e+002
1.524360e+003,3.774492e+002
1.525325e+003,3.732877e+002
1.526289e+003,3.646865e+002
1.527253e+003,3.526954e+002
1.528217e+003,3.389191e+002
1.529182e+003,3.236595e+002
1.530146e+003,3.067082e+002
1.531110e+003,2.897302e+002
1.532074e+003,2.669512e+002
1.533039e+003,2.327745e+002
1.534003e+003,1.979105e+002
1.534967e+003,1.654243e+002
1.535931e+003,1.373671e+002
1.536896e+003,1.162426e+002
1.537860e+003,1.012084e+002
1.538824e+003,8.886536e+001
1.539788e+003,7.720325e+001
1.540752e+003,6.676129e+001
1.541717e+003,5.853802e+001
1.542681e+003,5.257550e+001
1.543645e+003,4.777051e+001
1.544609e+003,4.505389e+001
1.545573e+003,4.228003e+001
1.546538e+003,3.731647e+001
1.547502e+003,3.393420e+001
1.548466e+003,3.675659e+001
1.549430e+003,4.019525e+001
1.550395e+003,3.655048e+001
1.551359e+003,2.802313e+001
1.552323e+003,2.334064e+001
1.553287e+003,2.542450e+001
1.554252e+003,2.873596e+001
1.555216e+003,2.844208e+001
1.556180e+003,2.588245e+001
1.557144e+003,2.402307e+001
1.558109e+003,2.305798e+001
1.559073e+003,2.281824e+001
1.560037e+003,2.343536e+001
1.561001e+003,2.317041e+001
1.561966e+003,2.100720e+001
1.562930e+003,1.924200e+001
1.563894e+003,1.990631e+001
1.564858e+003,2.217078e+001
1.565823e+003,2.466687e+001
1.566787e+003,2.690967e+001
1.567751e+003,2.697839e+001
1.568715e+003,2.329517e+001
1.569679e+003,1.900403e+001
1.570644e+003,1.783044e+001
1.571608e+003,1.880786e+001
1.572572e+003,2.032428e+001
1.573536e+003,2.265619e+001
1.574500e+003,2.289124e+001
1.575465e+003,1.795105e+001
1.576429e+003,1.367218e+001
1.577393e+003,1.594366e+001
1.578357e+003,2.141156e+001
1.579322e+003,2.367340e+001
1.580286e+003,2.259937e+001
1.581250e+003,2.147424e+001
1.582214e+003,2.105005e+001
1.583179e+003,2.167987e+001
1.584143e+003,2.446075e+001
1.585107e+003,2.726862e+001
1.586071e+003,2.740619e+001
1.587036e+003,2.608014e+001
1.588000e+003,2.585162e+001
1.588964e+003,2.705615e+001
1.589928e+003,2.789911e+001
1.590893e+003,2.689020e+001
1.591857e+003,2.530225e+001
1.592821e+003,2.483252e+001
1.593785e+003,2.554852e+001
1.594750e+003,2.782275e+001
1.595714e+003,3.194434e+001
1.596678e+003,3.478308e+001
1.597642e+003,3.468292e+001
1.598606e+003,3.360175e+001
1.599571e+003,3.334399e+001
1.600535e+003,3.323175e+001
1.601499e+003,3.185864e+001
1.602463e+003,2.940997e+001
1.603427e+003,2.763818e+001
1.604392e+003,2.723584e+001
1.605356e+003,2.800958e+001
1.606320e+003,3.071130e+001
1.607284e+003,3.416919e+001
1.608249e+003,3.460016e+001
1.609213e+003,3.188593e+001
1.610177e+003,2.980853e+001
1.611141e+003,2.927844e+001
1.612106e+003,2.872180e+001
1.613070e+003,2.709259e+001
1.614034e+003,2.534137e+001
1.614998e+003,2.410266e+001
1.615963e+003,2.328204e+001
1.616927e+003,2.261829e+001
1.617891e+003,2.196655e+001
1.618855e+003,2.110681e+001
1.619820e+003,1.962769e+001
1.620784e+003,1.811377e+001
1.621748e+003,1.853381e+001
1.622712e+003,2.090735e+001
1.623677e+003,2.178564e+001
1.624641e+003,2.085632e+001
1.625605e+003,2.043372e+001
1.626569e+003,2.030682e+001
1.627533e+003,1.994757e+001
1.628498e+003,1.935986e+001
1.629462e+003,1.909363e+001
1.630426e+003,1.973395e+001
1.631390e+003,2.084076e+001
1.632354e+003,2.166998e+001
1.633319e+003,2.193982e+001
1.634283e+003,2.138440e+001
1.635247e+003,1.957928e+001
1.636211e+003,1.730255e+001
1.637176e+003,1.607745e+001
1.638140e+003,1.604236e+001
1.639104e+003,1.694110e+001
1.640068e+003,1.918451e+001
1.641033e+003,1.995593e+001
1.641997e+003,1.721600e+001
1.642961e+003,1.519305e+001
1.643925e+003,1.621515e+001
1.644890e+003,1.860022e+001
1.645854e+003,2.134570e+001
1.646818e+003,2.376849e+001
1.647782e+003,2.459351e+001
1.648747e+003,2.351563e+001
1.649711e+003,2.223468e+001
1.650675e+003,2.243201e+001
1.651639e+003,2.348578e+001
1.652604e+003,2.355280e+001
1.653568e+003,2.247131e+001
1.654532e+003,2.155371e+001
1.655496e+003,2.088300e+001
1.656460e+003,2.035596e+001
1.657425e+003,2.027747e+001
1.658389e+003,2.020599e+001
1.659353e+003,1.992999e+001
1.660317e+003,1.946295e+001
1.661281e+003,1.857574e+001
1.662246e+003,1.740234e+001
1.663210e+003,1.679333e+001
1.664174e+003,1.710101e+001
1.665138e+003,1.686853e+001
1.666103e+003,1.427051e+001
1.667067e+003,1.079065e+001
1.668031e+003,9.914001e+000
1.668995e+003,1.153949e+001
1.669960e+003,1.276953e+001
1.670924e+003,1.335474e+001
1.671888e+003,1.430762e+001
1.672852e+003,1.682922e+001
1.673817e+003,1.803845e+001
1.674781e+003,1.405817e+001
1.675745e+003,9.346008e+000
1.676709e+003,9.557007e+000
1.677674e+003,1.339771e+001
1.678638e+003,1.570410e+001
1.679602e+003,1.487976e+001
1.680566e+003,1.332465e+001
1.681531e+003,1.302673e+001
1.682495e+003,1.341174e+001
1.683459e+003,1.282251e+001
1.684423e+003,1.135486e+001
1.685387e+003,1.149933e+001
1.686352e+003,1.400250e+001
1.687316e+003,1.468060e+001
1.688280e+003,1.125012e+001
1.689244e+003,7.453003e+000
1.690208e+003,5.609314e+000
1.691173e+003,4.987793e+000
1.692137e+003,5.435425e+000
1.693101e+003,6.860901e+000
1.694065e+003,8.403076e+000
1.695030e+003,9.544800e+000
1.695994e+003,9.755249e+000
1.696958e+003,8.094482e+000
1.697922e+003,6.502075e+000
1.698887e+003,8.365051e+000
1.699851e+003,1.222412e+001
1.700815e+003,1.269263e+001
1.701779e+003,9.237183e+000
1.702744e+003,7.023193e+000
1.703708e+003,8.375549e+000
1.704672e+003,1.018915e+001
1.705636e+003,9.753784e+000
1.706601e+003,7.934875e+000
1.707565e+003,6.411499e+000
1.708529e+003,5.421387e+000
1.709493e+003,4.973328e+000
1.710458e+003,5.064636e+000
1.711422e+003,5.130310e+000
1.712386e+003,4.892578e+000
1.713350e+003,5.202087e+000
1.714314e+003,7.008606e+000
1.715279e+003,8.972107e+000
1.716243e+003,9.025818e+000
1.717207e+003,7.411865e+000
1.718171e+003,5.846313e+000
1.719135e+003,4.888611e+000
1.720100e+003,4.038147e+000
1.721064e+003,2.763000e+000
1.722028e+003,1.434692e+000
1.722992e+003,8.132935e-001
1.723957e+003,1.296082e+000
1.724921e+003,3.065979e+000
1.725885e+003,5.869629e+000
1.726849e+003,7.369934e+000
1.727814e+003,7.648376e+000
1.728778e+003,7.379395e+000
1.729742e+003,6.337585e+000
1.730706e+003,5.061951e+000
1.731671e+003,3.388428e+000
1.732635e+003,1.428711e+000
1.733599e+003,4.549561e-001
1.734563e+003,7.483521e-001
1.735528e+003,4.298096e-001
1.736492e+003,-1.653870e+000
1.737456e+003,-3.246887e+000
1.738420e+003,-1.397034e+000
1.739385e+003,2.195251e+000
1.740349e+003,2.195923e+000
1.741313e+003,-2.195068e+000
1.742277e+003,-4.668152e+000
1.743241e+003,-4.351501e+000
1.744206e+003,-3.039246e+000
1.745170e+003,6.229858e-001
1.746134e+003,3.015991e+000
1.747098e+003,5.067139e-001
1.748063e+003,-3.179321e+000
1.749027e+003,-3.176575e+000
1.749991e+003,-2.968750e-001
1.750955e+003,1.559387e+000
1.751919e+003,1.013672e+000
1.752884e+003,-3.795166e-001
1.753848e+003,-1.354614e+000
1.754812e+003,-1.919250e+000
1.755776e+003,-1.816772e+000
1.756741e+003,-7.268066e-001
1.757705e+003,1.206848e+000
1.758669e+003,4.332886e+000
1.759633e+003,6.365356e+000
1.760598e+003,6.929932e+000
1.761562e+003,5.912170e+000
1.762526e+003,2.232361e+000
1.763490e+003,-1.199951e+000
1.764455e+003,-1.838379e+000
1.765419e+003,-1.033020e+000
1.766383e+003,-1.908386e+000
1.767347e+003,-4.338928e+000
1.768312e+003,-4.293518e+000
1.769276e+003,1.049805e-001
1.770240e+003,3.820190e+000
1.771204e+003,1.434692e+000
1.772168e+003,-4.008362e+000
1.773133e+003,-6.508728e+000
1.774097e+003,-6.286255e+000
1.775061e+003,-5.036072e+000
1.776025e+003,-3.033630e+000
1.776990e+003,-2.113770e+000
1.777954e+003,-2.866699e+000
1.778918e+003,-3.602417e+000
1.779882e+003,-3.694885e+000
1.780846e+003,-3.304871e+000
1.781811e+003,-1.983398e+000
1.782775e+003,2.917480e-002
1.783739e+003,1.795654e+000
1.784703e+003,3.384094e+000
1.785668e+003,3.945251e+000
1.786632e+003,1.793823e+000
1.787596e+003,-6.397705e-001
1.788560e+003,-6.821289e-001
1.789525e+003,4.295654e-001
1.790489e+003,3.256836e-001
1.791453e+003,-8.376465e-001
1.792417e+003,-1.731018e+000
1.793382e+003,-1.950439e+000
1.794346e+003,-1.090454e+000
1.795310e+003,1.107361e+000
1.796274e+003,3.387512e+000
1.797239e+003,4.742615e+000
1.798203e+003,5.322327e+000
1.799167e+003,3.784790e+000
1.800131e+003,-1.417480e+000
1.801095e+003,-3.739746e+000
1.802060e+003,5.253296e-001
1.803024e+003,2.952148e+000
1.803988e+003,1.625732e+000
1.804952e+003,-8.638306e-001
1.805917e+003,-5.125427e+000
1.806881e+003,-8.435242e+000
1.807845e+003,-6.955200e+000
1.808809e+003,-2.641113e+000
1.809773e+003,8.898926e-002
1.810738e+003,2.473145e-001
1.811702e+003,-2.048340e-001
1.812666e+003,-5.981445e-002
1.813630e+003,2.890625e-001
1.814595e+003,3.641968e-001
1.815559e+003,4.071045e-002
1.816523e+003,-7.922363e-001
1.817487e+003,-2.077332e+000
1.818452e+003,-3.651917e+000
1.819416e+003,-5.981812e+000
1.820380e+003,-6.016418e+000
1.821344e+003,-1.189087e+000
1.822309e+003,2.867920e+000
1.823273e+003,2.360840e+000
1.824237e+003,4.649658e-001
1.825201e+003,-6.439209e-002
1.826166e+003,4.224854e-001
1.827130e+003,1.112793e+000
1.828094e+003,1.670105e+000
1.829058e+003,7.330322e-001
1.830022e+003,-3.127808e+000
1.830987e+003,-6.335144e+000
1.831951e+003,-4.956909e+000
1.832915e+003,-1.820679e+000
1.833879e+003,-1.064331e+000
1.834844e+003,-2.198608e+000
1.835808e+003,-3.226929e+000
1.836772e+003,-3.738281e+000
1.837736e+003,-4.231934e+000
1.838700e+003,-5.134460e+000
1.839665e+003,-5.172974e+000
1.840629e+003,-2.575256e+000
1.841593e+003,5.607300e-001
1.842557e+003,-9.818115e-001
1.843522e+003,-7.116638e+000
1.844486e+003,-9.617310e+000
1.845450e+003,-5.489502e+000
1.846414e+003,-2.475647e+000
1.847379e+003,-1.762756e+000
1.848343e+003,-1.799316e+000
1.849307e+003,-2.900024e+000
1.850271e+003,-3.365173e+000
1.851236e+003,-1.150574e+000
1.852200e+003,2.279663e+000
1.853164e+003,4.801392e+000
1.854128e+003,5.702942e+000
1.855093e+003,5.501831e+000
1.856057e+003,4.610962e+000
1.857021e+003,1.698975e+000
1.857985e+003,-5.065918e+000
1.858949e+003,-1.228741e+001
1.859914e+003,-1.350958e+001
1.860878e+003,-9.631104e+000
1.861842e+003,-6.001343e+000
1.862806e+003,-2.773804e+000
1.863771e+003,-6.251221e-001
1.864735e+003,1.577759e-001
1.865699e+003,-2.217407e-001
1.866663e+003,-1.969238e+000
1.867627e+003,-3.590332e+000
1.868592e+003,-3.849060e+000
1.869556e+003,-3.785767e+000
1.870520e+003,-5.208374e+000
1.871484e+003,-7.726624e+000
1.872449e+003,-8.149292e+000
1.873413e+003,-4.466675e+000
1.874377e+003,-9.671021e-001
1.875341e+003,-4.833374e-001
1.876306e+003,-2.502441e-001
1.877270e+003,1.585449e+000
1.878234e+003,3.277344e+000
1.879198e+003,3.138977e+000
1.880163e+003,1.746887e+000
1.881127e+003,2.742310e-001
1.882091e+003,-1.019958e+000
1.883055e+003,-2.793396e+000
1.884020e+003,-5.159485e+000
1.884984e+003,-6.222046e+000
1.885948e+003,-4.148010e+000
1.886912e+003,-8.740234e-001
1.887876e+003,-4.031372e-001
1.888841e+003,-2.387634e+000
1.889805e+003,-3.046753e+000
1.890769e+003,-2.169373e+000
1.891733e+003,-1.002563e+000
1.892698e+003,4.628906e-001
1.893662e+003,1.129211e+000
1.894626e+003,-1.892090e-003
1.895590e+003,-9.431152e-001
1.896554e+003,8.131104e-001
1.897519e+003,3.090698e+000
1.898483e+003,2.367065e+000
1.899447e+003,-7.212524e-001
1.900411e+003,-2.780334e+000
1.901376e+003,-3.159790e+000
1.902340e+003,-1.793640e+000
1.903304e+003,3.771179e+000
1.904268e+003,7.108948e+000
1.905233e+003,1.703064e+000
1.906197e+003,-5.059021e+000
1.907161e+003,-4.444519e+000
1.908125e+003,2.685547e-002
1.909090e+003,5.390015e-001
1.910054e+003,-2.839966e+000
1.911018e+003,-4.562927e+000
1.911982e+003,-2.686646e+000
1.912947e+003,2.698364e-001
1.913911e+003,2.357849e+000
1.914875e+003,3.270996e+000
1.915839e+003,2.212280e+000
1.916803e+003,-5.385132e-001
1.917768e+003,-2.139282e+000
1.918732e+003,-2.312988e+000
1.919696e+003,-1.278625e+000
1.920660e+003,1.797668e+000
1.921625e+003,4.371948e+000
1.922589e+003,5.914917e+000
1.923553e+003,6.302917e+000
1.924517e+003,4.978638e+000
1.925481e+003,2.981262e+000
1.926446e+003,3.198242e-002
1.927410e+003,-2.447021e+000
1.928374e+003,-5.008545e-001
1.929338e+003,5.237671e+000
1.930303e+003,6.512146e+000
1.931267e+003,1.544189e-002
1.932231e+003,-5.088684e+000
1.933195e+003,-4.707031e+000
1.934160e+003,-2.378479e+000
1.935124e+003,8.702393e-001
1.936088e+003,3.148315e+000
1.937052e+003,1.746582e+000
1.938017e+003,-1.583130e+000
1.938981e+003,-3.362244e+000
1.939945e+003,-3.089111e+000
1.940909e+003,-2.004761e+000
1.941874e+003,-8.701782e-001
1.942838e+003,1.222534e-001
1.943802e+003,1.194397e+000
1.944766e+003,1.790344e+000
1.945730e+003,-6.256104e-001
1.946695e+003,-5.543823e+000
1.947659e+003,-6.051453e+000
1.948623e+003,-1.759949e+000
1.949587e+003,1.477539e+000
1.950552e+003,3.277344e+000
1.951516e+003,3.882446e+000
1.952480e+003,2.916992e+000
1.953444e+003,1.676270e+000
1.954408e+003,7.752686e-001
1.955373e+003,-9.326172e-002
1.956337e+003,-8.581543e-001
1.957301e+003,-1.202026e+000
1.958265e+003,-1.379700e+000
1.959230e+003,-1.325195e+000
1.960194e+003,-1.253235e+000
1.961158e+003,-1.698242e+000
1.962122e+003,-2.629822e+000
1.963087e+003,-4.569458e+000
1.964051e+003,-6.144775e+000
1.965015e+003,-6.352051e+000
1.965979e+003,-5.310547e+000
1.966944e+003,-2.588989e+000
1.967908e+003,2.435913e-001
1.968872e+003,4.884644e-001
1.969836e+003,-1.510254e+000
1.970801e+003,-2.595947e+000
1.971765e+003,-1.475830e+000
1.972729e+003,-5.889282e-001
1.973693e+003,-2.394592e+000
1.974657e+003,-4.506714e+000
1.975622e+003,-2.949158e+000
1.976586e+003,7.156372e-001
1.977550e+003,2.624329e+000
1.978514e+003,3.128357e+000
1.979479e+003,4.431274e+000
1.980443e+003,6.631592e+000
1.981407e+003,6.634888e+000
1.982371e+003,3.276367e+000
1.983335e+003,9.953613e-001
1.984300e+003,3.178467e+000
1.985264e+003,6.584961e+000
1.986228e+003,6.379333e+000
1.987192e+003,3.390137e+000
1.988157e+003,2.072083e+000
1.989121e+003,3.198242e+000
1.990085e+003,2.744080e+000
1.991049e+003,-1.991577e-001
1.992014e+003,-2.448669e+000
1.992978e+003,-4.530396e+000
1.993942e+003,-5.037903e+000
1.994906e+003,-2.083374e+000
1.995871e+003,1.177185e+000
1.996835e+003,3.058838e+000
1.997799e+003,3.653748e+000
1.998763e+003,1.970764e+000
1.999728e+003,-1.187500e+000
