5.003444e+002,4.071509e+001
5.013087e+002,3.938348e+001
5.022729e+002,3.968622e+001
5.032371e+002,4.112723e+001
5.042014e+002,4.120499e+001
5.051656e+002,4.015289e+001
5.061298e+002,3.878802e+001
5.070941e+002,3.780447e+001
5.080583e+002,3.724109e+001
5.090225e+002,3.624579e+001
5.099868e+002,3.472409e+001
5.109510e+002,3.302188e+001
5.119152e+002,3.105569e+001
5.128795e+002,2.877902e+001
5.138437e+002,2.738229e+001
5.148079e+002,2.781757e+001
5.157722e+002,2.877026e+001
5.167364e+002,3.027979e+001
5.177006e+002,3.189517e+001
5.186649e+002,3.250009e+001
5.196291e+002,2.985367e+001
5.205933e+002,2.631821e+001
5.215576e+002,2.406543e+001
5.225218e+002,2.331134e+001
5.234860e+002,2.380179e+001
5.244503e+002,2.534543e+001
5.254145e+002,2.866205e+001
5.263787e+002,3.073480e+001
5.273430e+002,3.123935e+001
5.283072e+002,3.074997e+001
5.292714e+002,2.983124e+001
5.302357e+002,2.781332e+001
5.311999e+002,2.629175e+001
5.321641e+002,2.574103e+001
5.331284e+002,2.580453e+001
5.340926e+002,2.647244e+001
5.350568e+002,2.774622e+001
5.360211e+002,2.817264e+001
5.369853e+002,2.562445e+001
5.379495e+002,2.249930e+001
5.389138e+002,2.085742e+001
5.398780e+002,2.137680e+001
5.408422e+002,2.304074e+001
5.418065e+002,2.301370e+001
5.427707e+002,2.157150e+001
5.437349e+002,2.065875e+001
5.446992e+002,2.082986e+001
5.456634e+002,2.178098e+001
5.466276e+002,2.251804e+001
5.475919e+002,2.336111e+001
5.485561e+002,2.359402e+001
5.495203e+002,2.274698e+001
5.504846e+002,2.129196e+001
5.514488e+002,1.994946e+001
5.524130e+002,1.907718e+001
5.533773e+002,1.836450e+001
5.543415e+002,1.778366e+001
5.553057e+002,1.717441e+001
5.562700e+002,1.616632e+001
5.572342e+002,1.452231e+001
5.581984e+002,1.281839e+001
5.591627e+002,1.305414e+001
5.601269e+002,1.449316e+001
5.610911e+002,1.522275e+001
5.620554e+002,1.412396e+001
5.630196e+002,1.147952e+001
5.639838e+002,1.048840e+001
5.649481e+002,1.317191e+001
5.659123e+002,1.459341e+001
5.668765e+002,1.307126e+001
5.678408e+002,9.882141e+000
5.688050e+002,8.480072e+000
5.697692e+002,1.083698e+001
5.707335e+002,1.308432e+001
5.716977e+002,1.438150e+001
5.726619e+002,1.488486e+001
5.736262e+002,1.498306e+001
5.745904e+002,1.500339e+001
5.755546e+002,1.449438e+001
5.765189e+002,1.201993e+001
5.774831e+002,8.513885e+000
5.784473e+002,5.871033e+000
5.794116e+002,5.454376e+000
5.803758e+002,7.158295e+000
5.813400e+002,8.367065e+000
5.823043e+002,8.756561e+000
5.832685e+002,9.043915e+000
5.842327e+002,9.784729e+000
5.851970e+002,1.094522e+001
5.861612e+002,1.158981e+001
5.871254e+002,1.054730e+001
5.880897e+002,9.881439e+000
5.890539e+002,1.046857e+001
5.900181e+002,1.150912e+001
5.909824e+002,1.148199e+001
5.919466e+002,8.923401e+000
5.929108e+002,6.407379e+000
5.938751e+002,7.081665e+000
5.948393e+002,9.447632e+000
5.958035e+002,1.126767e+001
5.967678e+002,1.093259e+001
5.977320e+002,8.825867e+000
5.986962e+002,7.121185e+000
5.996605e+002,5.511749e+000
6.006247e+002,4.444366e+000
6.015889e+002,4.528198e+000
6.025532e+002,5.655579e+000
6.035174e+002,5.927551e+000
6.044816e+002,3.833801e+000
6.054459e+002,2.564697e+000
6.064101e+002,3.127533e+000
6.073743e+002,4.723297e+000
6.083386e+002,5.824371e+000
6.093028e+002,5.414124e+000
6.102670e+002,4.937683e+000
6.112313e+002,5.600616e+000
6.121955e+002,6.825958e+000
6.131597e+002,7.963043e+000
6.141240e+002,8.544647e+000
6.150882e+002,8.545135e+000
6.160524e+002,7.636688e+000
6.170167e+002,6.069977e+000
6.179809e+002,4.789520e+000
6.189451e+002,4.055267e+000
6.199094e+002,3.807007e+000
6.208736e+002,4.172394e+000
6.218378e+002,7.537781e+000
6.228021e+002,8.966095e+000
6.237663e+002,6.346344e+000
6.247305e+002,2.002960e+000
6.256948e+002,-2.235107e-001
6.266590e+002,1.781189e+000
6.276232e+002,4.262329e+000
6.285875e+002,4.995270e+000
6.295517e+002,4.987000e+000
6.305159e+002,5.324585e+000
6.314802e+002,6.524628e+000
6.324444e+002,7.909760e+000
6.334086e+002,7.600739e+000
6.343729e+002,6.208466e+000
6.353371e+002,4.695770e+000
6.363013e+002,3.299530e+000
6.372656e+002,2.016144e+000
6.382298e+002,9.820251e-001
6.391940e+002,9.051819e-001
6.401583e+002,-5.389404e-002
6.411225e+002,-3.273529e+000
6.420867e+002,-6.399994e+000
6.430510e+002,-6.007721e+000
6.440152e+002,1.798706e-001
6.449794e+002,4.508118e+000
6.459437e+002,9.633789e-001
6.469079e+002,-4.227631e+000
6.478721e+002,-5.972961e+000
6.488364e+002,-2.634125e+000
6.498006e+002,2.871735e+000
6.507648e+002,5.864075e+000
6.517291e+002,6.739777e+000
6.526933e+002,6.112732e+000
6.536575e+002,3.993469e+000
6.546218e+002,1.161407e+000
6.555860e+002,-9.165955e-001
6.565502e+002,-2.055145e+000
6.575145e+002,-2.650909e+000
6.584787e+002,-2.325836e+000
6.594429e+002,-1.813782e+000
6.604072e+002,-1.882904e+000
6.613714e+002,-2.749298e+000
6.623356e+002,-2.927277e+000
6.632999e+002,-9.392090e-001
6.642641e+002,1.042572e+000
6.652283e+002,2.199493e+000
6.661926e+002,2.389343e+000
6.671568e+002,1.715607e+000
6.681210e+002,-2.890015e-001
6.690853e+002,-2.709473e+000
6.700495e+002,-2.950317e+000
6.710137e+002,-1.068329e+000
6.719780e+002,1.446777e+000
6.729422e+002,3.090027e+000
6.739064e+002,3.794983e+000
6.748707e+002,3.369324e+000
6.758349e+002,6.576843e-001
6.767991e+002,-1.589630e+000
6.777634e+002,-1.983032e+000
6.787276e+002,-5.881958e-001
6.796918e+002,1.220642e+000
6.806561e+002,3.738190e+000
6.816203e+002,5.339569e+000
6.825845e+002,4.835266e+000
6.835488e+002,3.123352e+000
6.845130e+002,1.714539e+000
6.854772e+002,1.796234e+000
6.864415e+002,2.678101e+000
6.874057e+002,2.496887e+000
6.883699e+002,1.417511e+000
6.893342e+002,9.191895e-002
6.902984e+002,-1.118927e+000
6.912626e+002,-2.101959e+000
6.922269e+002,-2.412659e+000
6.931911e+002,-1.305206e+000
6.941553e+002,-7.003784e-002
6.951196e+002,1.361786e+000
6.960838e+002,2.557281e+000
6.970480e+002,2.683105e+000
6.980123e+002,8.428650e-001
6.989765e+002,8.636475e-002
6.999407e+002,2.745819e+000
7.009050e+002,5.931122e+000
7.018692e+002,7.227264e+000
7.028334e+002,5.879120e+000
7.037977e+002,3.289459e+000
7.047619e+002,1.521057e+000
7.057261e+002,4.002075e-001
7.066904e+002,-8.449097e-001
7.076546e+002,-2.329529e+000
7.086188e+002,-3.371002e+000
7.095831e+002,-2.752533e+000
7.105473e+002,4.421692e-001
7.115115e+002,2.063110e+000
7.124758e+002,1.813141e+000
7.134400e+002,5.909729e-001
7.144042e+002,-1.897034e+000
7.153685e+002,-5.425751e+000
7.163327e+002,-6.964233e+000
7.172969e+002,-2.315063e+000
7.182612e+002,2.150269e+000
7.192254e+002,3.777069e+000
7.201896e+002,3.028625e+000
7.211539e+002,1.326660e+000
7.221181e+002,-2.873535e-001
7.230823e+002,-1.508667e+000
7.240466e+002,-1.636597e+000
7.250108e+002,-7.341003e-001
7.259750e+002,8.401489e-001
7.269393e+002,2.937592e+000
7.279035e+002,5.183990e+000
7.288677e+002,5.800537e+000
7.298320e+002,3.379120e+000
7.307962e+002,1.640961e+000
7.317604e+002,9.786072e-001
7.327247e+002,1.101288e+000
7.336889e+002,1.619446e+000
7.346531e+002,2.411377e+000
7.356174e+002,2.697937e+000
7.365816e+002,1.798584e+000
7.375458e+002,1.012817e+000
7.385101e+002,1.650818e+000
7.394743e+002,3.808502e+000
7.404385e+002,6.172333e+000
7.414028e+002,6.521606e+000
7.423670e+002,5.015747e+000
7.433312e+002,4.363098e+000
7.442955e+002,5.071686e+000
7.452597e+002,5.945343e+000
7.462239e+002,5.241119e+000
7.471882e+002,2.110840e+000
7.481524e+002,8.746033e-001
7.491166e+002,2.867126e+000
7.500809e+002,4.433929e+000
7.510451e+002,3.582275e+000
7.520093e+002,1.056519e+000
7.529736e+002,-9.924316e-002
7.539378e+002,2.937317e+000
7.549020e+002,5.867279e+000
7.558663e+002,5.589447e+000
7.568306e+002,3.586975e+000
7.577948e+002,1.766327e+000
7.587590e+002,1.256104e+000
7.597233e+002,1.615417e+000
7.606875e+002,2.106415e+000
7.616517e+002,2.799988e+000
7.626160e+002,3.165833e+000
7.635802e+002,3.116241e+000
7.645444e+002,2.683411e+000
7.655087e+002,1.688812e+000
7.664729e+002,-8.893433e-001
7.674371e+002,-1.711182e+000
7.684014e+002,7.233887e-001
7.693656e+002,3.405396e+000
7.703298e+002,4.243256e+000
7.712941e+002,3.131073e+000
7.722583e+002,2.047852e+000
7.732225e+002,2.465088e+000
7.741868e+002,3.473206e+000
7.751510e+002,4.841400e+000
7.761152e+002,6.186005e+000
7.770795e+002,6.652191e+000
7.780437e+002,5.440979e+000
7.790079e+002,2.866180e+000
7.799722e+002,2.170563e+000
7.809364e+002,3.309479e+000
7.819006e+002,4.837585e+000
7.828649e+002,6.965240e+000
7.838291e+002,9.268555e+000
7.847933e+002,9.936401e+000
7.857576e+002,7.523163e+000
7.867218e+002,5.240021e+000
7.876860e+002,3.720306e+000
7.886503e+002,2.781097e+000
7.896145e+002,2.265717e+000
7.905787e+002,2.115356e+000
7.915430e+002,2.323975e+000
7.925072e+002,2.844543e+000
7.934714e+002,3.526184e+000
7.944357e+002,4.528961e+000
7.953999e+002,5.870453e+000
7.963641e+002,7.360016e+000
7.973284e+002,8.767334e+000
7.982926e+002,1.013950e+001
7.992568e+002,1.018884e+001
8.002211e+002,8.080688e+000
8.011853e+002,5.800812e+000
8.021495e+002,3.968933e+000
8.031138e+002,2.917572e+000
8.040780e+002,3.271942e+000
8.050422e+002,6.140076e+000
8.060065e+002,8.310852e+000
8.069707e+002,8.136566e+000
8.079349e+002,7.054779e+000
8.088992e+002,6.538269e+000
8.098634e+002,7.167816e+000
8.108276e+002,8.304199e+000
8.117919e+002,9.075592e+000
8.127561e+002,9.255432e+000
8.137203e+002,8.835785e+000
8.146846e+002,7.989594e+000
8.156488e+002,7.079376e+000
8.166130e+002,6.497894e+000
8.175773e+002,6.385834e+000
8.185415e+002,5.398193e+000
8.195057e+002,1.579498e+000
8.204700e+002,-8.953857e-001
8.214342e+002,2.676697e-001
8.223984e+002,3.855713e+000
8.233627e+002,6.588593e+000
8.243269e+002,7.237946e+000
8.252911e+002,7.205017e+000
8.262554e+002,7.034180e+000
8.272196e+002,6.937744e+000
8.281838e+002,7.322174e+000
8.291481e+002,8.203552e+000
8.301123e+002,8.939850e+000
8.310765e+002,8.184784e+000
8.320408e+002,6.110168e+000
8.330050e+002,5.376953e+000
8.339692e+002,6.437286e+000
8.349335e+002,7.998535e+000
8.358977e+002,8.828583e+000
8.368619e+002,8.922760e+000
8.378262e+002,9.005402e+000
8.387904e+002,8.833038e+000
8.397546e+002,8.707611e+000
8.407189e+002,8.722260e+000
8.416831e+002,8.860229e+000
8.426473e+002,9.080322e+000
8.436116e+002,9.386841e+000
8.445758e+002,9.793579e+000
8.455400e+002,1.023080e+001
8.465043e+002,1.048703e+001
8.474685e+002,1.059790e+001
8.484327e+002,1.064435e+001
8.493970e+002,1.047989e+001
8.503612e+002,9.607117e+000
8.513254e+002,7.712799e+000
8.522897e+002,7.166779e+000
8.532539e+002,8.821747e+000
8.542181e+002,1.034351e+001
8.551824e+002,1.005844e+001
8.561466e+002,8.440277e+000
8.571108e+002,8.308655e+000
8.580751e+002,1.133395e+001
8.590393e+002,1.371548e+001
8.600035e+002,1.391010e+001
8.609678e+002,1.328815e+001
8.619320e+002,1.343970e+001
8.628962e+002,1.496387e+001
8.638605e+002,1.696606e+001
8.648247e+002,1.818716e+001
8.657889e+002,1.882327e+001
8.667532e+002,1.943784e+001
8.677174e+002,2.009540e+001
8.686816e+002,2.032312e+001
8.696459e+002,1.936896e+001
8.706101e+002,1.691043e+001
8.715743e+002,1.647559e+001
8.725386e+002,1.994174e+001
8.735028e+002,2.287082e+001
8.744670e+002,2.371664e+001
8.754313e+002,2.316354e+001
8.763955e+002,2.270886e+001
8.773597e+002,2.289676e+001
8.783240e+002,2.331168e+001
8.792882e+002,2.394632e+001
8.802524e+002,2.432376e+001
8.812167e+002,2.357364e+001
8.821809e+002,2.188174e+001
8.831451e+002,2.061707e+001
8.841094e+002,2.166769e+001
8.850736e+002,2.503616e+001
8.860378e+002,2.721112e+001
8.870021e+002,2.776471e+001
8.879663e+002,2.844073e+001
8.889305e+002,3.084457e+001
8.898948e+002,3.428015e+001
8.908590e+002,3.513095e+001
8.918232e+002,3.078214e+001
8.927875e+002,2.806778e+001
8.937517e+002,2.940390e+001
8.947159e+002,3.203723e+001
8.956802e+002,3.383746e+001
8.966444e+002,3.412662e+001
8.976086e+002,3.334290e+001
8.985729e+002,3.159341e+001
8.995371e+002,2.967050e+001
9.005013e+002,2.824759e+001
9.014656e+002,2.760483e+001
9.024298e+002,2.883783e+001
9.033940e+002,3.301193e+001
9.043583e+002,3.927951e+001
9.053225e+002,4.183487e+001
9.062867e+002,3.619833e+001
9.072510e+002,3.223160e+001
9.082152e+002,3.117599e+001
9.091794e+002,3.155606e+001
9.101437e+002,3.180884e+001
9.111079e+002,3.166800e+001
9.120721e+002,3.229266e+001
9.130364e+002,3.597385e+001
9.140006e+002,3.891153e+001
9.149648e+002,3.819592e+001
9.159291e+002,3.519873e+001
9.168933e+002,3.276852e+001
9.178575e+002,3.283589e+001
9.188218e+002,3.472917e+001
9.197860e+002,3.681020e+001
9.207502e+002,3.909494e+001
9.217145e+002,3.983450e+001
9.226787e+002,3.836777e+001
9.236429e+002,3.589371e+001
9.246072e+002,3.356245e+001
9.255714e+002,3.103032e+001
9.265356e+002,2.982845e+001
9.274999e+002,3.182874e+001
9.284641e+002,3.328824e+001
9.294283e+002,3.268558e+001
9.303926e+002,3.078085e+001
9.313568e+002,2.897902e+001
9.323210e+002,2.796730e+001
9.332853e+002,2.747276e+001
9.342495e+002,2.728625e+001
9.352137e+002,2.724603e+001
9.361780e+002,2.731754e+001
9.371422e+002,2.759833e+001
9.381064e+002,2.802696e+001
9.390707e+002,2.841396e+001
9.400349e+002,2.866890e+001
9.409991e+002,2.835507e+001
9.419634e+002,2.667148e+001
9.429276e+002,2.543866e+001
9.438918e+002,2.555856e+001
9.448561e+002,2.634975e+001
9.458203e+002,2.656047e+001
9.467845e+002,2.575954e+001
9.477488e+002,2.507993e+001
9.487130e+002,2.553171e+001
9.496772e+002,2.627557e+001
9.506415e+002,2.675131e+001
9.516057e+002,2.686253e+001
9.525699e+002,2.665678e+001
9.535342e+002,2.614330e+001
9.544984e+002,2.537051e+001
9.554626e+002,2.541428e+001
9.564269e+002,2.665579e+001
9.573911e+002,2.776883e+001
9.583553e+002,2.840636e+001
9.593196e+002,2.861644e+001
9.602838e+002,2.820930e+001
9.612480e+002,2.673373e+001
9.622123e+002,2.635373e+001
9.631765e+002,2.905154e+001
9.641407e+002,3.171121e+001
9.651050e+002,3.283961e+001
9.660692e+002,3.265117e+001
9.670334e+002,3.210744e+001
9.679977e+002,3.189053e+001
9.689619e+002,3.180820e+001
9.699261e+002,3.091690e+001
9.708904e+002,2.942191e+001
9.718546e+002,2.822798e+001
9.728188e+002,2.743825e+001
9.737831e+002,2.708049e+001
9.747473e+002,2.722787e+001
9.757115e+002,2.792603e+001
9.766758e+002,2.921448e+001
9.776400e+002,3.252332e+001
9.786042e+002,3.492589e+001
9.795685e+002,3.485051e+001
9.805327e+002,3.362492e+001
9.814969e+002,3.349521e+001
9.824612e+002,3.531659e+001
9.834254e+002,3.685522e+001
9.843896e+002,3.523535e+001
9.853539e+002,3.220461e+001
9.863181e+002,2.921373e+001
9.872823e+002,2.651201e+001
9.882466e+002,2.454102e+001
9.892108e+002,2.386243e+001
9.901750e+002,2.447018e+001
9.911393e+002,2.482611e+001
9.921035e+002,2.413545e+001
9.930677e+002,2.363222e+001
9.940320e+002,2.345155e+001
9.949962e+002,2.370377e+001
9.959604e+002,2.445169e+001
9.969247e+002,2.573126e+001
9.978889e+002,2.764090e+001
9.988531e+002,3.037212e+001
9.998174e+002,3.315575e+001
1.000782e+003,3.589458e+001
1.001746e+003,3.849356e+001
1.002710e+003,4.088486e+001
1.003674e+003,4.296561e+001
1.004639e+003,4.450717e+001
1.005603e+003,4.509120e+001
1.006567e+003,4.454182e+001
1.007531e+003,4.363573e+001
1.008495e+003,4.213168e+001
1.009460e+003,4.081024e+001
1.010424e+003,4.011807e+001
1.011388e+003,4.004440e+001
1.012352e+003,4.058635e+001
1.013317e+003,4.245897e+001
1.014281e+003,4.321306e+001
1.015245e+003,4.148526e+001
1.016209e+003,3.903531e+001
1.017174e+003,3.737000e+001
1.018138e+003,3.641354e+001
1.019102e+003,3.489146e+001
1.020066e+003,3.175609e+001
1.021031e+003,2.758998e+001
1.021995e+003,2.337457e+001
1.022959e+003,1.904974e+001
1.023923e+003,1.571201e+001
1.024887e+003,1.377493e+001
1.025852e+003,1.281638e+001
1.026816e+003,1.223158e+001
1.027780e+003,1.208534e+001
1.028744e+003,1.258093e+001
1.029709e+003,1.515604e+001
1.030673e+003,1.664548e+001
1.031637e+003,1.573016e+001
1.032601e+003,1.321292e+001
1.033566e+003,9.710770e+000
1.034530e+003,5.588531e+000
1.035494e+003,2.776932e+000
1.036458e+003,4.263229e+000
1.037422e+003,7.884094e+000
1.038387e+003,1.003549e+001
1.039351e+003,1.062302e+001
1.040315e+003,1.090892e+001
1.041279e+003,1.188240e+001
1.042244e+003,1.340906e+001
1.043208e+003,1.456479e+001
1.044172e+003,1.551218e+001
1.045136e+003,1.533151e+001
1.046101e+003,1.326965e+001
1.047065e+003,1.104784e+001
1.048029e+003,9.684341e+000
1.048993e+003,9.084595e+000
1.049958e+003,8.654846e+000
1.050922e+003,8.217804e+000
1.051886e+003,7.873505e+000
1.052850e+003,7.242874e+000
1.053814e+003,6.893127e+000
1.054779e+003,8.096603e+000
1.055743e+003,1.083545e+001
1.056707e+003,1.335104e+001
1.057671e+003,1.350668e+001
1.058636e+003,1.125449e+001
1.059600e+003,9.136169e+000
1.060564e+003,6.363708e+000
1.061528e+003,5.181747e+000
1.062493e+003,6.937149e+000
1.063457e+003,9.491516e+000
1.064421e+003,1.046637e+001
1.065385e+003,9.676910e+000
1.066349e+003,9.082153e+000
1.067314e+003,1.009251e+001
1.068278e+003,1.108400e+001
1.069242e+003,1.067139e+001
1.070206e+003,9.617401e+000
1.071171e+003,9.106354e+000
1.072135e+003,9.565613e+000
1.073099e+003,1.049490e+001
1.074063e+003,1.121562e+001
1.075028e+003,1.181310e+001
1.075992e+003,1.141599e+001
1.076956e+003,9.071075e+000
1.077920e+003,7.244614e+000
1.078885e+003,7.557877e+000
1.079849e+003,8.914459e+000
1.080813e+003,8.928085e+000
1.081777e+003,6.936340e+000
1.082741e+003,5.676743e+000
1.083706e+003,7.235123e+000
1.084670e+003,9.030975e+000
1.085634e+003,9.886688e+000
1.086598e+003,9.831726e+000
1.087563e+003,9.214951e+000
1.088527e+003,8.325867e+000
1.089491e+003,7.298355e+000
1.090455e+003,6.086838e+000
1.091420e+003,4.547943e+000
1.092384e+003,4.131348e+000
1.093348e+003,5.321533e+000
1.094312e+003,6.507813e+000
1.095276e+003,6.612350e+000
1.096241e+003,6.167633e+000
1.097205e+003,6.725342e+000
1.098169e+003,8.920105e+000
1.099133e+003,1.045041e+001
1.100098e+003,9.888428e+000
1.101062e+003,9.102554e+000
1.102026e+003,9.210358e+000
1.102990e+003,1.011456e+001
1.103955e+003,1.136188e+001
1.104919e+003,1.262396e+001
1.105883e+003,1.343048e+001
1.106847e+003,1.253391e+001
1.107812e+003,9.926254e+000
1.108776e+003,9.117249e+000
1.109740e+003,1.104053e+001
1.110704e+003,1.313510e+001
1.111668e+003,1.367715e+001
1.112633e+003,1.303610e+001
1.113597e+003,1.236575e+001
1.114561e+003,1.157896e+001
1.115525e+003,1.092854e+001
1.116490e+003,1.007289e+001
1.117454e+003,9.692261e+000
1.118418e+003,1.077129e+001
1.119382e+003,1.283817e+001
1.120347e+003,1.454968e+001
1.121311e+003,1.497310e+001
1.122275e+003,1.439314e+001
1.123239e+003,1.335977e+001
1.124203e+003,1.225732e+001
1.125168e+003,1.317935e+001
1.126132e+003,1.687000e+001
1.127096e+003,2.119254e+001
1.128060e+003,2.510924e+001
1.129025e+003,2.831691e+001
1.129989e+003,2.929495e+001
1.130953e+003,2.672894e+001
1.131917e+003,2.449698e+001
1.132882e+003,2.353308e+001
1.133846e+003,2.338278e+001
1.134810e+003,2.401726e+001
1.135774e+003,2.522298e+001
1.136739e+003,2.664374e+001
1.137703e+003,2.806741e+001
1.138667e+003,2.961328e+001
1.139631e+003,3.139380e+001
1.140595e+003,3.352469e+001
1.141560e+003,3.694810e+001
1.142524e+003,4.211174e+001
1.143488e+003,4.754883e+001
1.144452e+003,5.180084e+001
1.145417e+003,5.546579e+001
1.146381e+003,6.070129e+001
1.147345e+003,6.763666e+001
1.148309e+003,7.596294e+001
1.149274e+003,8.718590e+001
1.150238e+003,9.819431e+001
1.151202e+003,1.067469e+002
1.152166e+003,1.142198e+002
1.153130e+003,1.238507e+002
1.154095e+003,1.367516e+002
1.155059e+003,1.494003e+002
1.156023e+003,1.572047e+002
1.156987e+003,1.600749e+002
1.157952e+003,1.601685e+002
1.158916e+003,1.577585e+002
1.159880e+003,1.531395e+002
1.160844e+003,1.450803e+002
1.161809e+003,1.347381e+002
1.162773e+003,1.253309e+002
1.163737e+003,1.171896e+002
1.164701e+003,1.085930e+002
1.165666e+003,9.812061e+001
1.166630e+003,8.840121e+001
1.167594e+003,8.062050e+001
1.168558e+003,7.403746e+001
1.169522e+003,6.710521e+001
1.170487e+003,5.967563e+001
1.171451e+003,5.396436e+001
1.172415e+003,5.261761e+001
1.173379e+003,5.482300e+001
1.174344e+003,5.665398e+001
1.175308e+003,5.828200e+001
1.176272e+003,5.886403e+001
1.177236e+003,5.788193e+001
1.178201e+003,5.601486e+001
1.179165e+003,5.405270e+001
1.180129e+003,5.188397e+001
1.181093e+003,4.891264e+001
1.182057e+003,4.419002e+001
1.183022e+003,4.004811e+001
1.183986e+003,3.723349e+001
1.184950e+003,3.540442e+001
1.185914e+003,3.426181e+001
1.186879e+003,3.378604e+001
1.187843e+003,3.428499e+001
1.188807e+003,3.599516e+001
1.189771e+003,3.835890e+001
1.190736e+003,3.984842e+001
1.191700e+003,4.034683e+001
1.192664e+003,4.093930e+001
1.193628e+003,4.211053e+001
1.194593e+003,4.305975e+001
1.195557e+003,4.319838e+001
1.196521e+003,4.260481e+001
1.197485e+003,4.166867e+001
1.198449e+003,4.057718e+001
1.199414e+003,3.880356e+001
1.200378e+003,3.525067e+001
1.201342e+003,3.174905e+001
1.202306e+003,2.917921e+001
1.203271e+003,2.756898e+001
1.204235e+003,2.698642e+001
1.205199e+003,2.735611e+001
1.206163e+003,2.790738e+001
1.207128e+003,2.728180e+001
1.208092e+003,2.541953e+001
1.209056e+003,2.376982e+001
1.210020e+003,2.243913e+001
1.210984e+003,2.109406e+001
1.211949e+003,2.012283e+001
1.212913e+003,1.872153e+001
1.213877e+003,1.530200e+001
1.214841e+003,9.927567e+000
1.215806e+003,6.004272e+000
1.216770e+003,5.459427e+000
1.217734e+003,5.696609e+000
1.218698e+003,4.904572e+000
1.219663e+003,3.592209e+000
1.220627e+003,2.333069e+000
1.221591e+003,1.291641e+000
1.222555e+003,4.177551e-001
1.223520e+003,-3.040009e-001
1.224484e+003,-8.750305e-001
1.225448e+003,-1.555634e+000
1.226412e+003,-2.294434e+000
1.227376e+003,-3.379242e+000
1.228341e+003,-5.389694e+000
1.229305e+003,-7.172226e+000
1.230269e+003,-8.236374e+000
1.231233e+003,-8.602844e+000
1.232198e+003,-8.201645e+000
1.233162e+003,-6.925217e+000
1.234126e+003,-5.330856e+000
1.235090e+003,-3.087326e+000
1.236055e+003,-1.672592e+000
1.237019e+003,-3.480240e+000
1.237983e+003,-7.301102e+000
1.238947e+003,-9.741135e+000
1.239911e+003,-9.335709e+000
1.240876e+003,-7.641861e+000
1.241840e+003,-7.052704e+000
1.242804e+003,-7.658234e+000
1.243768e+003,-7.585785e+000
1.244733e+003,-6.135269e+000
1.245697e+003,-4.885864e+000
1.246661e+003,-4.258972e+000
1.247625e+003,-3.823059e+000
1.248590e+003,-3.197845e+000
1.249554e+003,-2.313171e+000
1.250518e+003,-1.209396e+000
1.251482e+003,7.414246e-002
1.252447e+003,1.044754e+000
1.253411e+003,1.088928e+000
1.254375e+003,5.758514e-001
1.255339e+003,-4.830933e-002
1.256303e+003,-6.538696e-001
1.257268e+003,-3.897705e-001
1.258232e+003,1.474976e+000
1.259196e+003,3.852661e+000
1.260160e+003,4.498505e+000
1.261125e+003,3.101639e+000
1.262089e+003,2.609070e+000
1.263053e+003,4.442963e+000
1.264017e+003,5.537918e+000
1.264982e+003,3.990097e+000
1.265946e+003,2.353180e+000
1.266910e+003,3.748001e+000
1.267874e+003,7.584167e+000
1.268839e+003,1.049998e+001
1.269803e+003,1.026852e+001
1.270767e+003,8.144562e+000
1.271731e+003,6.389542e+000
1.272695e+003,5.054062e+000
1.273660e+003,3.602936e+000
1.274624e+003,1.688171e+000
1.275588e+003,3.295898e-002
1.276552e+003,-5.818787e-001
1.277517e+003,-6.302795e-001
1.278481e+003,-1.238007e+000
1.279445e+003,-2.559906e+000
1.280409e+003,-3.647034e+000
1.281374e+003,-4.320740e+000
1.282338e+003,-4.433167e+000
1.283302e+003,-3.508041e+000
1.284266e+003,-2.319321e+000
1.285230e+003,-1.777115e+000
1.286195e+003,-1.973724e+000
1.287159e+003,-2.273865e+000
1.288123e+003,-2.104584e+000
1.289087e+003,-1.745209e+000
1.290052e+003,-2.353287e+000
1.291016e+003,-4.684769e+000
1.291980e+003,-5.480408e+000
1.292944e+003,-3.589813e+000
1.293909e+003,-2.011795e+000
1.294873e+003,-1.917999e+000
1.295837e+003,-2.593170e+000
1.296801e+003,-3.059128e+000
1.297766e+003,-3.201340e+000
1.298730e+003,-3.670197e+000
1.299694e+003,-5.039337e+000
1.300658e+003,-6.615524e+000
1.301622e+003,-7.931747e+000
1.302587e+003,-8.731171e+000
1.303551e+003,-8.296860e+000
1.304515e+003,-6.599197e+000
1.305479e+003,-4.920624e+000
1.306444e+003,-4.429565e+000
1.307408e+003,-4.709885e+000
1.308372e+003,-3.976318e+000
1.309336e+003,-1.370743e+000
1.310301e+003,-4.807281e-001
1.311265e+003,-3.081314e+000
1.312229e+003,-5.257523e+000
1.313193e+003,-5.773621e+000
1.314157e+003,-5.423523e+000
1.315122e+003,-4.869263e+000
1.316086e+003,-4.425949e+000
1.317050e+003,-4.400742e+000
1.318014e+003,-4.977005e+000
1.318979e+003,-5.731140e+000
1.319943e+003,-6.023804e+000
1.320907e+003,-5.813843e+000
1.321871e+003,-5.368027e+000
1.322836e+003,-4.831268e+000
1.323800e+003,-4.124985e+000
1.324764e+003,-2.430771e+000
1.325728e+003,-8.873596e-001
1.326693e+003,-2.263641e+000
1.327657e+003,-6.764740e+000
1.328621e+003,-9.113983e+000
1.329585e+003,-6.454865e+000
1.330549e+003,-3.233139e+000
1.331514e+003,-1.956329e+000
1.332478e+003,-1.617264e+000
1.333442e+003,-1.176834e+000
1.334406e+003,-5.703888e-001
1.335371e+003,-3.832092e-001
1.336335e+003,-9.565277e-001
1.337299e+003,-1.869431e+000
1.338263e+003,-2.353592e+000
1.339228e+003,-2.339294e+000
1.340192e+003,-2.514313e+000
1.341156e+003,-3.232651e+000
1.342120e+003,-3.623001e+000
1.343084e+003,-3.723450e+000
1.344049e+003,-3.516342e+000
1.345013e+003,-2.528030e+000
1.345977e+003,-1.077545e+000
1.346941e+003,-2.947083e-001
1.347906e+003,-6.235199e-001
1.348870e+003,-1.148621e+000
1.349834e+003,-9.181671e-001
1.350798e+003,-5.373535e-001
1.351763e+003,-1.113663e+000
1.352727e+003,-2.467041e+000
1.353691e+003,-3.770691e+000
1.354655e+003,-4.811356e+000
1.355620e+003,-5.369736e+000
1.356584e+003,-4.997192e+000
1.357548e+003,-3.771500e+000
1.358512e+003,-2.662552e+000
1.359476e+003,-1.615799e+000
1.360441e+003,-1.327133e+000
1.361405e+003,-2.189407e+000
1.362369e+003,-3.456924e+000
1.363333e+003,-5.489868e+000
1.364298e+003,-7.352188e+000
1.365262e+003,-7.629700e+000
1.366226e+003,-6.182358e+000
1.367190e+003,-4.176514e+000
1.368155e+003,-2.632553e+000
1.369119e+003,-1.574600e+000
1.370083e+003,-1.100677e+000
1.371047e+003,-1.303909e+000
1.372011e+003,-1.511627e+000
1.372976e+003,-1.940414e+000
1.373940e+003,-2.343231e+000
1.374904e+003,-2.854996e+000
1.375868e+003,-3.046860e+000
1.376833e+003,-1.866089e+000
1.377797e+003,3.560791e-001
1.378761e+003,9.720917e-001
1.379725e+003,-1.662628e+000
1.380690e+003,-4.392395e+000
1.381654e+003,-3.345230e+000
1.382618e+003,-6.027222e-001
1.383582e+003,1.168381e+000
1.384547e+003,1.814194e+000
1.385511e+003,1.926025e+000
1.386475e+003,1.695465e+000
1.387439e+003,1.209259e+000
1.388403e+003,3.930664e-001
1.389368e+003,-7.603912e-001
1.390332e+003,-7.554016e-001
1.391296e+003,1.533783e+000
1.392260e+003,2.927475e+000
1.393225e+003,2.283035e+000
1.394189e+003,1.080032e+000
1.395153e+003,-5.160675e-001
1.396117e+003,-1.816910e+000
1.397082e+003,-1.414566e+000
1.398046e+003,6.318817e-001
1.399010e+003,1.954742e+000
1.399974e+003,2.408447e-001
1.400938e+003,-3.250336e+000
1.401903e+003,-4.059921e+000
1.402867e+003,-9.702911e-001
1.403831e+003,1.029556e+000
1.404795e+003,1.118149e+000
1.405760e+003,1.000778e+000
1.406724e+003,1.106247e+000
1.407688e+003,1.023651e+000
1.408652e+003,2.921143e-001
1.409617e+003,-8.195038e-001
1.410581e+003,-1.436661e+000
1.411545e+003,-1.211212e+000
1.412509e+003,-4.626770e-001
1.413474e+003,7.451172e-001
1.414438e+003,1.930405e+000
1.415402e+003,2.559875e+000
1.416366e+003,2.744980e+000
1.417330e+003,2.594406e+000
1.418295e+003,2.057678e+000
1.419259e+003,1.557297e+000
1.420223e+003,1.626343e+000
1.421187e+003,2.078430e+000
1.422152e+003,2.118851e+000
1.423116e+003,1.620590e+000
1.424080e+003,1.526901e+000
1.425044e+003,2.975677e+000
1.426009e+003,3.655441e+000
1.426973e+003,1.508667e+000
1.427937e+003,-1.298279e+000
1.428901e+003,-2.173355e+000
1.429865e+003,-8.386230e-001
1.430830e+003,1.641312e+000
1.431794e+003,4.457642e+000
1.432758e+003,6.980911e+000
1.433722e+003,8.063843e+000
1.434687e+003,7.773056e+000
1.435651e+003,7.580078e+000
1.436615e+003,6.707184e+000
1.437579e+003,6.281860e+000
1.438544e+003,7.071960e+000
1.439508e+003,7.767914e+000
1.440472e+003,7.399063e+000
1.441436e+003,6.478683e+000
1.442401e+003,5.906494e+000
1.443365e+003,5.884262e+000
1.444329e+003,6.163422e+000
1.445293e+003,6.596771e+000
1.446257e+003,7.296112e+000
1.447222e+003,8.900482e+000
1.448186e+003,1.099622e+001
1.449150e+003,1.097852e+001
1.450114e+003,8.023392e+000
1.451079e+003,5.254486e+000
1.452043e+003,4.305008e+000
1.453007e+003,4.551712e+000
1.453971e+003,5.435104e+000
1.454936e+003,6.737366e+000
1.455900e+003,7.326355e+000
1.456864e+003,6.880432e+000
1.457828e+003,6.240219e+000
1.458792e+003,5.638474e+000
1.459757e+003,5.107635e+000
1.460721e+003,4.512436e+000
1.461685e+003,4.058655e+000
1.462649e+003,4.493805e+000
1.463614e+003,5.902344e+000
1.464578e+003,6.734070e+000
1.465542e+003,5.316940e+000
1.466506e+003,2.747742e+000
1.467471e+003,2.744095e+000
1.468435e+003,6.265121e+000
1.469399e+003,8.182343e+000
1.470363e+003,6.580719e+000
1.471328e+003,5.389191e+000
1.472292e+003,5.621033e+000
1.473256e+003,6.164398e+000
1.474220e+003,6.420380e+000
1.475184e+003,6.534073e+000
1.476149e+003,6.880875e+000
1.477113e+003,7.461761e+000
1.478077e+003,7.798431e+000
1.479041e+003,7.493179e+000
1.480006e+003,6.991318e+000
1.480970e+003,7.592346e+000
1.481934e+003,9.657196e+000
1.482898e+003,1.071841e+001
1.483863e+003,1.062105e+001
1.484827e+003,9.811554e+000
1.485791e+003,7.067093e+000
1.486755e+003,5.007797e+000
1.487719e+003,6.295105e+000
1.488684e+003,1.015111e+001
1.489648e+003,1.469061e+001
1.490612e+003,1.925970e+001
1.491576e+003,2.222893e+001
1.492541e+003,2.174434e+001
1.493505e+003,1.959167e+001
1.494469e+003,1.990204e+001
1.495433e+003,2.209523e+001
1.496398e+003,2.336565e+001
1.497362e+003,2.312181e+001
1.498326e+003,2.347813e+001
1.499290e+003,2.538852e+001
1.500255e+003,2.856754e+001
1.501219e+003,3.324091e+001
1.502183e+003,3.893945e+001
1.503147e+003,4.307648e+001
1.504111e+003,4.470343e+001
1.505076e+003,4.669154e+001
1.506040e+003,5.042583e+001
1.507004e+003,5.570923e+001
1.507968e+003,6.266931e+001
1.508933e+003,7.072964e+001
1.509897e+003,7.879245e+001
1.510861e+003,8.684027e+001
1.511825e+003,9.512364e+001
1.512790e+003,1.034363e+002
1.513754e+003,1.123644e+002
1.514718e+003,1.235448e+002
1.515682e+003,1.368205e+002
1.516646e+003,1.496542e+002
1.517611e+003,1.618329e+002
1.518575e+003,1.739641e+002
1.519539e+003,1.880218e+002
1.520503e+003,2.005040e+002
1.521468e+003,2.096091e+002
1.522432e+003,2.158503e+002
1.523396e+003,2.202610e+002
1.524360e+003,2.228330e+002
1.525325e+003,2.226728e+002
1.526289e+003,2.192205e+002
1.527253e+003,2.133109e+002
1.528217e+003,2.062649e+002
1.529182e+003,1.982007e+002
1.530146e+003,1.893931e+002
1.531110e+003,1.801310e+002
1.532074e+003,1.691913e+002
1.533039e+003,1.567695e+002
1.534003e+003,1.419158e+002
1.534967e+003,1.220923e+002
1.535931e+003,1.016820e+002
1.536896e+003,8.546133e+001
1.537860e+003,7.356314e+001
1.538824e+003,6.310820e+001
1.539788e+003,5.257143e+001
1.540752e+003,4.335867e+001
1.541717e+003,3.747186e+001
1.542681e+003,3.444144e+001
1.543645e+003,3.056036e+001
1.544609e+003,2.492015e+001
1.545573e+003,2.125630e+001
1.546538e+003,2.051074e+001
1.547502e+003,2.007005e+001
1.548466e+003,1.910548e+001
1.549430e+003,1.821732e+001
1.550395e+003,1.801094e+001
1.551359e+003,1.830374e+001
1.552323e+003,1.865306e+001
1.553287e+003,1.888670e+001
1.554252e+003,1.885454e+001
1.555216e+003,1.846848e+001
1.556180e+003,1.753502e+001
1.557144e+003,1.524496e+001
1.558109e+003,1.160612e+001
1.559073e+003,9.733398e+000
1.560037e+003,1.043475e+001
1.561001e+003,1.093927e+001
1.561966e+003,1.015704e+001
1.562930e+003,9.295227e+000
1.563894e+003,9.316223e+000
1.564858e+003,1.003113e+001
1.565823e+003,1.106953e+001
1.566787e+003,1.230185e+001
1.567751e+003,1.345021e+001
1.568715e+003,1.454280e+001
1.569679e+003,1.508011e+001
1.570644e+003,1.413177e+001
1.571608e+003,1.204832e+001
1.572572e+003,9.749969e+000
1.573536e+003,7.306412e+000
1.574500e+003,6.484787e+000
1.575465e+003,8.488464e+000
1.576429e+003,1.120143e+001
1.577393e+003,1.343901e+001
1.578357e+003,1.488933e+001
1.579322e+003,1.452881e+001
1.580286e+003,1.254645e+001
1.581250e+003,1.167497e+001
1.582214e+003,1.308554e+001
1.583179e+003,1.439711e+001
1.584143e+003,1.322786e+001
1.585107e+003,1.147209e+001
1.586071e+003,1.242383e+001
1.587036e+003,1.513544e+001
1.588000e+003,1.593489e+001
1.588964e+003,1.382819e+001
1.589928e+003,1.180931e+001
1.590893e+003,1.207242e+001
1.591857e+003,1.336494e+001
1.592821e+003,1.374141e+001
1.593785e+003,1.344072e+001
1.594750e+003,1.368106e+001
1.595714e+003,1.453452e+001
1.596678e+003,1.616577e+001
1.597642e+003,1.958617e+001
1.598606e+003,2.242505e+001
1.599571e+003,2.203424e+001
1.600535e+003,2.052022e+001
1.601499e+003,2.075790e+001
1.602463e+003,2.257782e+001
1.603427e+003,2.401263e+001
1.604392e+003,2.431531e+001
1.605356e+003,2.373642e+001
1.606320e+003,2.194315e+001
1.607284e+003,1.966765e+001
1.608249e+003,1.924628e+001
1.609213e+003,2.076018e+001
1.610177e+003,2.175912e+001
1.611141e+003,2.198976e+001
1.612106e+003,2.132199e+001
1.613070e+003,1.837938e+001
1.614034e+003,1.569467e+001
1.614998e+003,1.508829e+001
1.615963e+003,1.604153e+001
1.616927e+003,1.821373e+001
1.617891e+003,2.107718e+001
1.618855e+003,2.236591e+001
1.619820e+003,2.048271e+001
1.620784e+003,1.735246e+001
1.621748e+003,1.577316e+001
1.622712e+003,1.571420e+001
1.623677e+003,1.612241e+001
1.624641e+003,1.710382e+001
1.625605e+003,1.796773e+001
1.626569e+003,1.835443e+001
1.627533e+003,1.835483e+001
1.628498e+003,1.776326e+001
1.629462e+003,1.731125e+001
1.630426e+003,1.773698e+001
1.631390e+003,1.871266e+001
1.632354e+003,1.967049e+001
1.633319e+003,2.036476e+001
1.634283e+003,2.025215e+001
1.635247e+003,1.869638e+001
1.636211e+003,1.676155e+001
1.637176e+003,1.662624e+001
1.638140e+003,1.819562e+001
1.639104e+003,1.923145e+001
1.640068e+003,1.961266e+001
1.641033e+003,1.944492e+001
1.641997e+003,1.824942e+001
1.642961e+003,1.734460e+001
1.643925e+003,1.784093e+001
1.644890e+003,1.852371e+001
1.645854e+003,1.787140e+001
1.646818e+003,1.637537e+001
1.647782e+003,1.557007e+001
1.648747e+003,1.591367e+001
1.649711e+003,1.674118e+001
1.650675e+003,1.762067e+001
1.651639e+003,1.859935e+001
1.652604e+003,1.977841e+001
1.653568e+003,2.106746e+001
1.654532e+003,2.148149e+001
1.655496e+003,2.069739e+001
1.656460e+003,2.005800e+001
1.657425e+003,2.068011e+001
1.658389e+003,2.059763e+001
1.659353e+003,1.819231e+001
1.660317e+003,1.501019e+001
1.661281e+003,1.203398e+001
1.662246e+003,9.804993e+000
1.663210e+003,9.663361e+000
1.664174e+003,1.198811e+001
1.665138e+003,1.459106e+001
1.666103e+003,1.573486e+001
1.667067e+003,1.565422e+001
1.668031e+003,1.451886e+001
1.668995e+003,1.248436e+001
1.669960e+003,1.144788e+001
1.670924e+003,1.175957e+001
1.671888e+003,1.231598e+001
1.672852e+003,1.287773e+001
1.673817e+003,1.334576e+001
1.674781e+003,1.406294e+001
1.675745e+003,1.436021e+001
1.676709e+003,1.298714e+001
1.677674e+003,1.054077e+001
1.678638e+003,9.083435e+000
1.679602e+003,9.255753e+000
1.680566e+003,9.495300e+000
1.681531e+003,8.539032e+000
1.682495e+003,7.160034e+000
1.683459e+003,6.369431e+000
1.684423e+003,6.141968e+000
1.685387e+003,7.003418e+000
1.686352e+003,9.264435e+000
1.687316e+003,1.072746e+001
1.688280e+003,1.045302e+001
1.689244e+003,9.674606e+000
1.690208e+003,9.117355e+000
1.691173e+003,8.594589e+000
1.692137e+003,7.893204e+000
1.693101e+003,7.169418e+000
1.694065e+003,6.680862e+000
1.695030e+003,6.399979e+000
1.695994e+003,6.234665e+000
1.696958e+003,6.274384e+000
1.697922e+003,6.341248e+000
1.698887e+003,6.327591e+000
1.699851e+003,6.168030e+000
1.700815e+003,5.451218e+000
1.701779e+003,4.113327e+000
1.702744e+003,2.743835e+000
1.703708e+003,1.429611e+000
1.704672e+003,1.047485e+000
1.705636e+003,2.678024e+000
1.706601e+003,4.854324e+000
1.707565e+003,5.427368e+000
1.708529e+003,4.944366e+000
1.709493e+003,5.017303e+000
1.710458e+003,5.942841e+000
1.711422e+003,6.171249e+000
1.712386e+003,4.372559e+000
1.713350e+003,2.659637e+000
1.714314e+003,2.945465e+000
1.715279e+003,4.091507e+000
1.716243e+003,4.110504e+000
1.717207e+003,3.189468e+000
1.718171e+003,3.150543e+000
1.719135e+003,4.517975e+000
1.720100e+003,5.476776e+000
1.721064e+003,4.676941e+000
1.722028e+003,3.115875e+000
1.722992e+003,2.194382e+000
1.723957e+003,1.965530e+000
1.724921e+003,2.185776e+000
1.725885e+003,2.818329e+000
1.726849e+003,2.970459e+000
1.727814e+003,1.903778e+000
1.728778e+003,1.529999e+000
1.729742e+003,3.576904e+000
1.730706e+003,5.790939e+000
1.731671e+003,5.800064e+000
1.732635e+003,4.104691e+000
1.733599e+003,1.993942e+000
1.734563e+003,4.925537e-002
1.735528e+003,-1.118668e+000
1.736492e+003,-1.247589e+000
1.737456e+003,-9.886627e-001
1.738420e+003,-1.170273e+000
1.739385e+003,-1.483200e+000
1.740349e+003,-3.257904e-001
1.741313e+003,3.076797e+000
1.742277e+003,4.364120e+000
1.743241e+003,2.002167e+000
1.744206e+003,2.576599e-001
1.745170e+003,-6.442261e-002
1.746134e+003,-8.160400e-002
1.747098e+003,-4.480743e-001
1.748063e+003,-8.390656e-001
1.749027e+003,-6.171417e-001
1.749991e+003,-3.643799e-002
1.750955e+003,-1.067200e-001
1.751919e+003,-1.033020e+000
1.752884e+003,-1.608002e+000
1.753848e+003,-8.138123e-001
1.754812e+003,4.983673e-001
1.755776e+003,6.731110e-001
1.756741e+003,-1.678925e-001
1.757705e+003,-1.059280e+000
1.758669e+003,-2.274216e+000
1.759633e+003,-2.983246e+000
1.760598e+003,-3.243164e+000
1.761562e+003,-2.901520e+000
1.762526e+003,-9.663696e-001
1.763490e+003,7.880554e-001
1.764455e+003,1.163696e+000
1.765419e+003,5.304260e-001
1.766383e+003,-9.969788e-001
1.767347e+003,-2.959503e+000
1.768312e+003,-3.692047e+000
1.769276e+003,-2.415222e+000
1.770240e+003,-7.448273e-001
1.771204e+003,-4.338074e-002
1.772168e+003,-1.343231e-001
1.773133e+003,-1.325241e+000
1.774097e+003,-3.382782e+000
1.775061e+003,-3.612854e+000
1.776025e+003,-1.571396e+000
1.776990e+003,1.859436e-001
1.777954e+003,1.061142e+000
1.778918e+003,1.252380e+000
1.779882e+003,2.455444e-001
1.780846e+003,-1.035583e+000
1.781811e+003,-1.115463e+000
1.782775e+003,-3.059998e-001
1.783739e+003,2.302704e-001
1.784703e+003,3.275909e-001
1.785668e+003,6.406097e-001
1.786632e+003,1.819656e+000
1.787596e+003,2.532043e+000
1.788560e+003,1.476471e+000
1.789525e+003,-1.319122e-001
1.790489e+003,-7.986755e-001
1.791453e+003,-6.592102e-001
1.792417e+003,-1.315002e-001
1.793382e+003,5.773315e-001
1.794346e+003,5.852051e-001
1.795310e+003,-6.371155e-001
1.796274e+003,-2.194336e+000
1.797239e+003,-3.005692e+000
1.798203e+003,-3.217133e+000
1.799167e+003,-3.776855e+000
1.800131e+003,-5.149521e+000
1.801095e+003,-5.122910e+000
1.802060e+003,-1.798615e+000
1.803024e+003,1.385803e-001
1.803988e+003,-9.816132e-001
1.804952e+003,-2.207748e+000
1.805917e+003,-2.337555e+000
1.806881e+003,-1.748581e+000
1.807845e+003,-3.754425e-001
1.808809e+003,1.198517e+000
1.809773e+003,2.051956e+000
1.810738e+003,1.949173e+000
1.811702e+003,9.661255e-001
1.812666e+003,-8.125000e-001
1.813630e+003,-2.242157e+000
1.814595e+003,-1.568588e+000
1.815559e+003,4.371796e-001
1.816523e+003,5.518494e-001
1.817487e+003,-1.415115e+000
1.818452e+003,-2.869217e+000
1.819416e+003,-3.625458e+000
1.820380e+003,-3.751190e+000
1.821344e+003,-3.012146e+000
1.822309e+003,-2.205566e+000
1.823273e+003,-1.823853e+000
1.824237e+003,-1.442139e+000
1.825201e+003,-3.541870e-001
1.826166e+003,9.510803e-001
1.827130e+003,1.094482e+000
1.828094e+003,-1.636658e-001
1.829058e+003,-1.510223e+000
1.830022e+003,-2.466995e+000
1.830987e+003,-2.854843e+000
1.831951e+003,-2.150925e+000
1.832915e+003,-1.056274e+000
1.833879e+003,-6.392365e-001
1.834844e+003,-7.293701e-001
1.835808e+003,-6.582336e-001
1.836772e+003,-3.147736e-001
1.837736e+003,-2.194214e-002
1.838700e+003,2.008057e-002
1.839665e+003,3.315430e-001
1.840629e+003,1.594040e+000
1.841593e+003,3.027649e+000
1.842557e+003,2.797104e+000
1.843522e+003,9.270172e-001
1.844486e+003,-3.624878e-001
1.845450e+003,-7.466736e-001
1.846414e+003,-8.955994e-001
1.847379e+003,-7.412872e-001
1.848343e+003,-7.740631e-001
1.849307e+003,-1.602188e+000
1.850271e+003,-2.068726e+000
1.851236e+003,-5.881958e-001
1.852200e+003,1.391541e+000
1.853164e+003,1.311508e+000
1.854128e+003,-4.444733e-001
1.855093e+003,-1.123398e+000
1.856057e+003,2.483978e-001
1.857021e+003,1.484848e+000
1.857985e+003,6.289215e-001
1.858949e+003,-1.076324e+000
1.859914e+003,-1.676117e+000
1.860878e+003,-1.172089e+000
1.861842e+003,7.764282e-001
1.862806e+003,4.199188e+000
1.863771e+003,5.548218e+000
1.864735e+003,3.672775e+000
1.865699e+003,2.211304e+000
1.866663e+003,3.303284e+000
1.867627e+003,4.362106e+000
1.868592e+003,2.445541e+000
1.869556e+003,-7.898407e-001
1.870520e+003,-1.843369e+000
1.871484e+003,-1.083298e+000
1.872449e+003,-1.060760e+000
1.873413e+003,-2.229324e+000
1.874377e+003,-2.229279e+000
1.875341e+003,3.674469e-001
1.876306e+003,2.835632e+000
1.877270e+003,3.711151e+000
1.878234e+003,3.719345e+000
1.879198e+003,3.090775e+000
1.880163e+003,2.488586e+000
1.881127e+003,3.442291e+000
1.882091e+003,5.530075e+000
1.883055e+003,6.238281e+000
1.884020e+003,4.635284e+000
1.884984e+003,2.618088e+000
1.885948e+003,1.916428e+000
1.886912e+003,1.918106e+000
1.887876e+003,1.358032e+000
1.888841e+003,3.399200e-001
1.889805e+003,6.707764e-002
1.890769e+003,6.374817e-001
1.891733e+003,1.475632e+000
1.892698e+003,2.663177e+000
1.893662e+003,3.616074e+000
1.894626e+003,4.408951e+000
1.895590e+003,4.611465e+000
1.896554e+003,3.032608e+000
1.897519e+003,1.440140e+000
1.898483e+003,2.723114e+000
1.899447e+003,5.688370e+000
1.900411e+003,5.937057e+000
1.901376e+003,2.596298e+000
1.902340e+003,2.241211e-001
1.903304e+003,1.183685e+000
1.904268e+003,2.442108e+000
1.905233e+003,1.719147e+000
1.906197e+003,8.857574e-001
1.907161e+003,2.591644e+000
1.908125e+003,5.286194e+000
1.909090e+003,5.598282e+000
1.910054e+003,3.761261e+000
1.911018e+003,2.677124e+000
1.911982e+003,3.290680e+000
1.912947e+003,3.985764e+000
1.913911e+003,3.545837e+000
1.914875e+003,2.560242e+000
1.915839e+003,1.802719e+000
1.916803e+003,1.385620e+000
1.917768e+003,2.629639e+000
1.918732e+003,6.172821e+000
1.919696e+003,7.493683e+000
1.920660e+003,5.660217e+000
1.921625e+003,4.255692e+000
1.922589e+003,4.116257e+000
1.923553e+003,4.275146e+000
1.924517e+003,4.094437e+000
1.925481e+003,4.152603e+000
1.926446e+003,5.133743e+000
1.927410e+003,6.666245e+000
1.928374e+003,8.425674e+000
1.929338e+003,1.013960e+001
1.930303e+003,9.986633e+000
1.931267e+003,7.057068e+000
1.932231e+003,4.214615e+000
1.933195e+003,2.022247e+000
1.934160e+003,9.618378e-001
1.935124e+003,2.221176e+000
1.936088e+003,4.079971e+000
1.937052e+003,4.254974e+000
1.938017e+003,3.539383e+000
1.938981e+003,4.342560e+000
1.939945e+003,6.548737e+000
1.940909e+003,7.435486e+000
1.941874e+003,5.866577e+000
1.942838e+003,3.915955e+000
1.943802e+003,3.592941e+000
1.944766e+003,4.200531e+000
1.945730e+003,4.008667e+000
1.946695e+003,3.182373e+000
1.947659e+003,4.024551e+000
1.948623e+003,6.811035e+000
1.949587e+003,7.618530e+000
1.950552e+003,5.516541e+000
1.951516e+003,3.738708e+000
1.952480e+003,3.162384e+000
1.953444e+003,3.598511e+000
1.954408e+003,5.734222e+000
1.955373e+003,7.886414e+000
1.956337e+003,7.193695e+000
1.957301e+003,4.745590e+000
1.958265e+003,4.268204e+000
1.959230e+003,6.162582e+000
1.960194e+003,7.376434e+000
1.961158e+003,6.626404e+000
1.962122e+003,6.166351e+000
1.963087e+003,6.932404e+000
1.964051e+003,7.743774e+000
1.965015e+003,8.151382e+000
1.965979e+003,8.259125e+000
1.966944e+003,7.770401e+000
1.967908e+003,7.117294e+000
1.968872e+003,7.392044e+000
1.969836e+003,8.411728e+000
1.970801e+003,8.557526e+000
1.971765e+003,7.226288e+000
1.972729e+003,6.025421e+000
1.973693e+003,6.422043e+000
1.974657e+003,7.320572e+000
1.975622e+003,6.676865e+000
1.976586e+003,5.318115e+000
1.977550e+003,6.056931e+000
1.978514e+003,8.444519e+000
1.979479e+003,9.142120e+000
1.980443e+003,7.774872e+000
1.981407e+003,7.466019e+000
1.982371e+003,9.490845e+000
1.983335e+003,1.117851e+001
1.984300e+003,1.033907e+001
1.985264e+003,8.671066e+000
1.986228e+003,8.956833e+000
1.987192e+003,1.065050e+001
1.988157e+003,1.088591e+001
1.989121e+003,9.387726e+000
1.990085e+003,7.999481e+000
1.991049e+003,6.328323e+000
1.992014e+003,5.672394e+000
1.992978e+003,6.476089e+000
1.993942e+003,7.830521e+000
1.994906e+003,1.042416e+001
1.995871e+003,1.244431e+001
1.996835e+003,1.202100e+001
1.997799e+003,1.056139e+001
1.998763e+003,1.004701e+001
1.999728e+003,1.040955e+001
