5.003444e+002,4.694965e+001
5.013087e+002,4.845552e+001
5.022729e+002,4.650562e+001
5.032371e+002,4.235211e+001
5.042014e+002,4.013861e+001
5.051656e+002,3.961314e+001
5.061298e+002,3.945195e+001
5.070941e+002,3.834528e+001
5.080583e+002,3.576488e+001
5.090225e+002,3.506203e+001
5.099868e+002,3.765558e+001
5.109510e+002,4.001514e+001
5.119152e+002,4.007382e+001
5.128795e+002,3.760217e+001
5.138437e+002,3.550900e+001
5.148079e+002,3.444397e+001
5.157722e+002,3.430670e+001
5.167364e+002,3.591440e+001
5.177006e+002,3.875981e+001
5.186649e+002,4.091258e+001
5.196291e+002,3.958240e+001
5.205933e+002,3.665462e+001
5.215576e+002,3.367325e+001
5.225218e+002,3.089641e+001
5.234860e+002,2.846239e+001
5.244503e+002,2.670927e+001
5.254145e+002,2.597594e+001
5.263787e+002,2.607587e+001
5.273430e+002,2.748676e+001
5.283072e+002,2.940540e+001
5.292714e+002,3.067516e+001
5.302357e+002,3.082170e+001
5.311999e+002,3.086700e+001
5.321641e+002,3.117101e+001
5.331284e+002,3.156677e+001
5.340926e+002,3.207855e+001
5.350568e+002,3.270937e+001
5.360211e+002,3.249838e+001
5.369853e+002,3.010901e+001
5.379495e+002,2.708923e+001
5.389138e+002,2.427158e+001
5.398780e+002,2.213440e+001
5.408422e+002,2.095915e+001
5.418065e+002,2.233633e+001
5.427707e+002,2.578888e+001
5.437349e+002,2.773128e+001
5.446992e+002,2.683791e+001
5.456634e+002,2.400374e+001
5.466276e+002,2.243367e+001
5.475919e+002,2.336208e+001
5.485561e+002,2.434433e+001
5.495203e+002,2.587769e+001
5.504846e+002,2.712080e+001
5.514488e+002,2.662344e+001
5.524130e+002,2.284766e+001
5.533773e+002,1.985774e+001
5.543415e+002,2.043378e+001
5.553057e+002,2.232835e+001
5.562700e+002,2.308195e+001
5.572342e+002,2.118616e+001
5.581984e+002,1.808093e+001
5.591627e+002,1.746910e+001
5.601269e+002,1.853156e+001
5.610911e+002,1.972398e+001
5.620554e+002,2.027368e+001
5.630196e+002,2.011499e+001
5.639838e+002,1.898328e+001
5.649481e+002,1.520290e+001
5.659123e+002,1.287727e+001
5.668765e+002,1.386729e+001
5.678408e+002,1.701625e+001
5.688050e+002,1.875716e+001
5.697692e+002,1.671623e+001
5.707335e+002,1.487939e+001
5.716977e+002,1.481155e+001
5.726619e+002,1.564378e+001
5.736262e+002,1.613931e+001
5.745904e+002,1.546008e+001
5.755546e+002,1.425763e+001
5.765189e+002,1.357378e+001
5.774831e+002,1.305873e+001
5.784473e+002,1.204922e+001
5.794116e+002,1.015804e+001
5.803758e+002,7.642899e+000
5.813400e+002,7.090240e+000
5.823043e+002,8.689987e+000
5.832685e+002,1.052759e+001
5.842327e+002,1.245802e+001
5.851970e+002,1.441963e+001
5.861612e+002,1.550679e+001
5.871254e+002,1.428139e+001
5.880897e+002,1.339430e+001
5.890539e+002,1.388033e+001
5.900181e+002,1.487480e+001
5.909824e+002,1.488579e+001
5.919466e+002,1.281516e+001
5.929108e+002,9.878021e+000
5.938751e+002,6.839600e+000
5.948393e+002,4.159790e+000
5.958035e+002,2.634659e+000
5.967678e+002,2.841888e+000
5.977320e+002,4.633209e+000
5.986962e+002,7.032654e+000
5.996605e+002,1.005019e+001
6.006247e+002,1.225781e+001
6.015889e+002,1.283717e+001
6.025532e+002,1.189403e+001
6.035174e+002,1.089749e+001
6.044816e+002,9.288467e+000
6.054459e+002,8.329727e+000
6.064101e+002,8.589264e+000
6.073743e+002,9.557663e+000
6.083386e+002,1.037906e+001
6.093028e+002,1.071736e+001
6.102670e+002,1.062665e+001
6.112313e+002,9.801331e+000
6.121955e+002,8.782257e+000
6.131597e+002,8.408432e+000
6.141240e+002,9.225388e+000
6.150882e+002,1.074832e+001
6.160524e+002,1.084990e+001
6.170167e+002,9.843781e+000
6.179809e+002,8.722702e+000
6.189451e+002,7.899826e+000
6.199094e+002,7.249374e+000
6.208736e+002,6.209061e+000
6.218378e+002,3.789520e+000
6.228021e+002,2.401566e+000
6.237663e+002,2.827682e+000
6.247305e+002,4.304733e+000
6.256948e+002,5.629013e+000
6.266590e+002,6.369598e+000
6.276232e+002,6.530350e+000
6.285875e+002,5.891144e+000
6.295517e+002,5.125656e+000
6.305159e+002,5.004562e+000
6.314802e+002,5.883240e+000
6.324444e+002,7.206253e+000
6.334086e+002,7.692490e+000
6.343729e+002,7.598984e+000
6.353371e+002,7.052872e+000
6.363013e+002,6.029388e+000
6.372656e+002,4.581970e+000
6.382298e+002,2.960892e+000
6.391940e+002,2.966919e-001
6.401583e+002,-1.342056e+000
6.411225e+002,-1.221054e+000
6.420867e+002,-2.297516e-001
6.430510e+002,4.889221e-001
6.440152e+002,4.392395e-001
6.449794e+002,4.718323e-001
6.459437e+002,1.196671e+000
6.469079e+002,2.060913e+000
6.478721e+002,2.862213e+000
6.488364e+002,3.449265e+000
6.498006e+002,3.571655e+000
6.507648e+002,2.312164e+000
6.517291e+002,1.948242e-001
6.526933e+002,-1.613297e+000
6.536575e+002,-2.945435e+000
6.546218e+002,-3.439606e+000
6.555860e+002,-2.259750e+000
6.565502e+002,2.240906e+000
6.575145e+002,4.729034e+000
6.584787e+002,4.202118e+000
6.594429e+002,2.784241e+000
6.604072e+002,2.080505e+000
6.613714e+002,2.366653e+000
6.623356e+002,2.698593e+000
6.632999e+002,2.741455e+000
6.642641e+002,2.485016e+000
6.652283e+002,1.833984e+000
6.661926e+002,9.352875e-001
6.671568e+002,8.988953e-002
6.681210e+002,-4.185028e-001
6.690853e+002,-6.377716e-001
6.700495e+002,-6.796112e-001
6.710137e+002,-5.427551e-001
6.719780e+002,-1.985016e-001
6.729422e+002,4.158173e-001
6.739064e+002,1.383011e+000
6.748707e+002,1.825394e+000
6.758349e+002,1.093872e+000
6.767991e+002,6.798706e-001
6.777634e+002,1.748901e+000
6.787276e+002,4.075485e+000
6.796918e+002,5.553711e+000
6.806561e+002,4.734528e+000
6.816203e+002,3.340500e+000
6.825845e+002,1.451553e+000
6.835488e+002,-4.100189e-001
6.845130e+002,-1.461182e+000
6.854772e+002,-1.033813e+000
6.864415e+002,2.471924e-001
6.874057e+002,8.793335e-001
6.883699e+002,9.055481e-001
6.893342e+002,5.243225e-001
6.902984e+002,-1.772156e-001
6.912626e+002,-1.053864e+000
6.922269e+002,-1.319580e+000
6.931911e+002,-8.769226e-002
6.941553e+002,8.418884e-001
6.951196e+002,1.003708e+000
6.960838e+002,7.236938e-001
6.970480e+002,5.977478e-001
6.980123e+002,8.503113e-001
6.989765e+002,1.144653e+000
6.999407e+002,1.325211e+000
7.009050e+002,1.451691e+000
7.018692e+002,1.473724e+000
7.028334e+002,1.411102e+000
7.037977e+002,1.473785e+000
7.047619e+002,2.299789e+000
7.057261e+002,3.522461e+000
7.066904e+002,4.285110e+000
7.076546e+002,4.437057e+000
7.086188e+002,3.985138e+000
7.095831e+002,2.813293e+000
7.105473e+002,1.931763e-001
7.115115e+002,-8.116760e-001
7.124758e+002,1.117325e+000
7.134400e+002,2.948730e+000
7.144042e+002,2.345215e+000
7.153685e+002,-6.277313e-001
7.163327e+002,-2.329346e+000
7.172969e+002,9.760895e-001
7.182612e+002,4.027756e+000
7.192254e+002,4.474930e+000
7.201896e+002,2.879517e+000
7.211539e+002,7.666473e-001
7.221181e+002,-6.819153e-001
7.230823e+002,-1.464157e+000
7.240466e+002,-1.695557e+000
7.250108e+002,-1.381561e+000
7.259750e+002,-6.829376e-001
7.269393e+002,2.789459e-001
7.279035e+002,1.343094e+000
7.288677e+002,2.035461e+000
7.298320e+002,2.355652e+000
7.307962e+002,2.695755e+000
7.317604e+002,2.772034e+000
7.327247e+002,3.031052e+000
7.336889e+002,4.322632e+000
7.346531e+002,7.267029e+000
7.356174e+002,9.120193e+000
7.365816e+002,8.084488e+000
7.375458e+002,6.152832e+000
7.385101e+002,4.647171e+000
7.394743e+002,3.985565e+000
7.404385e+002,3.751389e+000
7.414028e+002,3.328674e+000
7.423670e+002,2.563843e+000
7.433312e+002,1.739578e+000
7.442955e+002,1.002808e+000
7.452597e+002,5.338440e-001
7.462239e+002,4.492340e-001
7.471882e+002,7.324829e-001
7.481524e+002,1.323074e+000
7.491166e+002,2.416336e+000
7.500809e+002,3.250549e+000
7.510451e+002,3.578842e+000
7.520093e+002,3.419601e+000
7.529736e+002,2.905075e+000
7.539378e+002,1.997269e+000
7.549020e+002,1.145859e+000
7.558663e+002,5.183105e-001
7.568306e+002,1.166687e-001
7.577948e+002,-1.190491e-001
7.587590e+002,-2.475128e-001
7.597233e+002,-2.453461e-001
7.606875e+002,3.666077e-001
7.616517e+002,1.559738e+000
7.626160e+002,2.387909e+000
7.635802e+002,2.565643e+000
7.645444e+002,2.340286e+000
7.655087e+002,2.112534e+000
7.664729e+002,1.554672e+000
7.674371e+002,1.741959e+000
7.684014e+002,3.545273e+000
7.693656e+002,5.222046e+000
7.703298e+002,5.439026e+000
7.712941e+002,4.183014e+000
7.722583e+002,3.014297e+000
7.732225e+002,3.313904e+000
7.741868e+002,3.910172e+000
7.751510e+002,3.732788e+000
7.761152e+002,3.047134e+000
7.770795e+002,2.647278e+000
7.780437e+002,3.226456e+000
7.790079e+002,4.608292e+000
7.799722e+002,5.668060e+000
7.809364e+002,6.551529e+000
7.819006e+002,6.745285e+000
7.828649e+002,5.614349e+000
7.838291e+002,3.724274e+000
7.847933e+002,2.858994e+000
7.857576e+002,3.634064e+000
7.867218e+002,4.243973e+000
7.876860e+002,4.593811e+000
7.886503e+002,4.713043e+000
7.896145e+002,4.567581e+000
7.905787e+002,4.170029e+000
7.915430e+002,3.679901e+000
7.925072e+002,3.007965e+000
7.934714e+002,2.338318e+000
7.944357e+002,2.115845e+000
7.953999e+002,2.354462e+000
7.963641e+002,2.625320e+000
7.973284e+002,2.372818e+000
7.982926e+002,1.516479e+000
7.992568e+002,1.912720e+000
8.002211e+002,4.044830e+000
8.011853e+002,5.787766e+000
8.021495e+002,6.626328e+000
8.031138e+002,6.762451e+000
8.040780e+002,6.410217e+000
8.050422e+002,5.019882e+000
8.060065e+002,3.773758e+000
8.069707e+002,2.687973e+000
8.079349e+002,1.989960e+000
8.088992e+002,2.034912e+000
8.098634e+002,2.936661e+000
8.108276e+002,4.365707e+000
8.117919e+002,6.160339e+000
8.127561e+002,7.737411e+000
8.137203e+002,8.173508e+000
8.146846e+002,7.480484e+000
8.156488e+002,6.213898e+000
8.166130e+002,4.849396e+000
8.175773e+002,3.124359e+000
8.185415e+002,2.776566e+000
8.195057e+002,4.459778e+000
8.204700e+002,6.223755e+000
8.214342e+002,7.714539e+000
8.223984e+002,8.792526e+000
8.233627e+002,9.151596e+000
8.243269e+002,8.474258e+000
8.252911e+002,7.512344e+000
8.262554e+002,6.233490e+000
8.272196e+002,5.203751e+000
8.281838e+002,5.212509e+000
8.291481e+002,6.406067e+000
8.301123e+002,8.057816e+000
8.310765e+002,9.012863e+000
8.320408e+002,9.137497e+000
8.330050e+002,8.248520e+000
8.339692e+002,6.074768e+000
8.349335e+002,3.774887e+000
8.358977e+002,2.604370e+000
8.368619e+002,2.757172e+000
8.378262e+002,3.004913e+000
8.387904e+002,3.163040e+000
8.397546e+002,3.417755e+000
8.407189e+002,4.209900e+000
8.416831e+002,5.054138e+000
8.426473e+002,4.827927e+000
8.436116e+002,2.688950e+000
8.445758e+002,9.645081e-001
8.455400e+002,2.836197e+000
8.465043e+002,5.918076e+000
8.474685e+002,7.581589e+000
8.484327e+002,7.242035e+000
8.493970e+002,6.206039e+000
8.503612e+002,6.564636e+000
8.513254e+002,8.612778e+000
8.522897e+002,9.559052e+000
8.532539e+002,8.720688e+000
8.542181e+002,7.691177e+000
8.551824e+002,7.573502e+000
8.561466e+002,8.346054e+000
8.571108e+002,8.957092e+000
8.580751e+002,8.408203e+000
8.590393e+002,8.262543e+000
8.600035e+002,9.415451e+000
8.609678e+002,1.117564e+001
8.619320e+002,1.293333e+001
8.628962e+002,1.435747e+001
8.638605e+002,1.516791e+001
8.648247e+002,1.439664e+001
8.657889e+002,1.283749e+001
8.667532e+002,1.250148e+001
8.677174e+002,1.364297e+001
8.686816e+002,1.478452e+001
8.696459e+002,1.401349e+001
8.706101e+002,1.086247e+001
8.715743e+002,9.847427e+000
8.725386e+002,1.305719e+001
8.735028e+002,1.555508e+001
8.744670e+002,1.522951e+001
8.754313e+002,1.342451e+001
8.763955e+002,1.295711e+001
8.773597e+002,1.509650e+001
8.783240e+002,1.760109e+001
8.792882e+002,1.897963e+001
8.802524e+002,1.976900e+001
8.812167e+002,2.036278e+001
8.821809e+002,2.087579e+001
8.831451e+002,2.125105e+001
8.841094e+002,2.144966e+001
8.850736e+002,2.150250e+001
8.860378e+002,2.093233e+001
8.870021e+002,1.938605e+001
8.879663e+002,1.826077e+001
8.889305e+002,1.852126e+001
8.898948e+002,1.985605e+001
8.908590e+002,2.077214e+001
8.918232e+002,2.069186e+001
8.927875e+002,2.122279e+001
8.937517e+002,2.326654e+001
8.947159e+002,2.557851e+001
8.956802e+002,2.693910e+001
8.966444e+002,2.711859e+001
8.976086e+002,2.711588e+001
8.985729e+002,2.832706e+001
8.995371e+002,2.977271e+001
9.005013e+002,2.934103e+001
9.014656e+002,2.743350e+001
9.024298e+002,2.596188e+001
9.033940e+002,2.635722e+001
9.043583e+002,2.827875e+001
9.053225e+002,2.962813e+001
9.062867e+002,2.956757e+001
9.072510e+002,2.984409e+001
9.082152e+002,3.129326e+001
9.091794e+002,3.279236e+001
9.101437e+002,3.304808e+001
9.111079e+002,3.183318e+001
9.120721e+002,3.051816e+001
9.130364e+002,2.953671e+001
9.140006e+002,2.884065e+001
9.149648e+002,2.874306e+001
9.159291e+002,2.903569e+001
9.168933e+002,2.911420e+001
9.178575e+002,2.852409e+001
9.188218e+002,2.763695e+001
9.197860e+002,2.822102e+001
9.207502e+002,3.031688e+001
9.217145e+002,3.101146e+001
9.226787e+002,2.908736e+001
9.236429e+002,2.641110e+001
9.246072e+002,2.559598e+001
9.255714e+002,2.704224e+001
9.265356e+002,2.778493e+001
9.274999e+002,2.678006e+001
9.284641e+002,2.552490e+001
9.294283e+002,2.443127e+001
9.303926e+002,2.355075e+001
9.313568e+002,2.269630e+001
9.323210e+002,2.173251e+001
9.332853e+002,2.106920e+001
9.342495e+002,2.191339e+001
9.352137e+002,2.337852e+001
9.361780e+002,2.436917e+001
9.371422e+002,2.469867e+001
9.381064e+002,2.414142e+001
9.390707e+002,2.200471e+001
9.400349e+002,1.754808e+001
9.409991e+002,1.590271e+001
9.419634e+002,1.932306e+001
9.429276e+002,2.220073e+001
9.438918e+002,2.297179e+001
9.448561e+002,2.236446e+001
9.458203e+002,2.154646e+001
9.467845e+002,2.074307e+001
9.477488e+002,2.036784e+001
9.487130e+002,2.172850e+001
9.496772e+002,2.289870e+001
9.506415e+002,2.162939e+001
9.516057e+002,1.836319e+001
9.525699e+002,1.560326e+001
9.535342e+002,1.580208e+001
9.544984e+002,1.849948e+001
9.554626e+002,2.012566e+001
9.564269e+002,2.085794e+001
9.573911e+002,2.097992e+001
9.583553e+002,2.008606e+001
9.593196e+002,1.875508e+001
9.602838e+002,1.797861e+001
9.612480e+002,1.788986e+001
9.622123e+002,1.780367e+001
9.631765e+002,1.792485e+001
9.641407e+002,1.767891e+001
9.651050e+002,1.615535e+001
9.660692e+002,1.405008e+001
9.670334e+002,1.304135e+001
9.679977e+002,1.426491e+001
9.689619e+002,1.637268e+001
9.699261e+002,1.554353e+001
9.708904e+002,1.291039e+001
9.718546e+002,1.226956e+001
9.728188e+002,1.466295e+001
9.737831e+002,1.819875e+001
9.747473e+002,2.042419e+001
9.757115e+002,2.108549e+001
9.766758e+002,2.197633e+001
9.776400e+002,2.389494e+001
9.786042e+002,2.523645e+001
9.795685e+002,2.535652e+001
9.805327e+002,2.464650e+001
9.814969e+002,2.386317e+001
9.824612e+002,2.332697e+001
9.834254e+002,2.223680e+001
9.843896e+002,1.881841e+001
9.853539e+002,1.480006e+001
9.863181e+002,1.207024e+001
9.872823e+002,1.062190e+001
9.882466e+002,9.742172e+000
9.892108e+002,8.951813e+000
9.901750e+002,8.332626e+000
9.911393e+002,7.581085e+000
9.921035e+002,5.728149e+000
9.930677e+002,4.892426e+000
9.940320e+002,5.962311e+000
9.949962e+002,7.642059e+000
9.959604e+002,8.719910e+000
9.969247e+002,9.141418e+000
9.978889e+002,9.832870e+000
9.988531e+002,1.181078e+001
9.998174e+002,1.308310e+001
1.000782e+003,1.189233e+001
1.001746e+003,9.628616e+000
1.002710e+003,8.380829e+000
1.003674e+003,8.982468e+000
1.004639e+003,1.036890e+001
1.005603e+003,1.063672e+001
1.006567e+003,9.622986e+000
1.007531e+003,9.363922e+000
1.008495e+003,1.020444e+001
1.009460e+003,1.109521e+001
1.010424e+003,1.165485e+001
1.011388e+003,1.183151e+001
1.012352e+003,1.119563e+001
1.013317e+003,9.072403e+000
1.014281e+003,7.282288e+000
1.015245e+003,6.376923e+000
1.016209e+003,5.845474e+000
1.017174e+003,5.244644e+000
1.018138e+003,4.652466e+000
1.019102e+003,4.698227e+000
1.020066e+003,6.058609e+000
1.021031e+003,7.993210e+000
1.021995e+003,7.835327e+000
1.022959e+003,5.968887e+000
1.023923e+003,4.638092e+000
1.024887e+003,4.829147e+000
1.025852e+003,5.399078e+000
1.026816e+003,4.282227e+000
1.027780e+003,9.160004e-001
1.028744e+003,-1.109451e+000
1.029709e+003,-6.867218e-001
1.030673e+003,6.063843e-002
1.031637e+003,7.134857e-001
1.032601e+003,1.187134e+000
1.033566e+003,1.518295e+000
1.034530e+003,1.744843e+000
1.035494e+003,1.814102e+000
1.036458e+003,1.568848e+000
1.037422e+003,1.095795e+000
1.038387e+003,6.404266e-001
1.039351e+003,1.589813e-001
1.040315e+003,-7.029419e-001
1.041279e+003,-2.341995e+000
1.042244e+003,-4.309052e+000
1.043208e+003,-4.384705e+000
1.044172e+003,-3.675079e-001
1.045136e+003,1.520203e+000
1.046101e+003,-9.274597e-001
1.047065e+003,-3.266830e+000
1.048029e+003,-1.997726e+000
1.048993e+003,1.997131e+000
1.049958e+003,4.666290e+000
1.050922e+003,3.802322e+000
1.051886e+003,2.086670e+000
1.052850e+003,2.311935e+000
1.053814e+003,3.383865e+000
1.054779e+003,3.933640e+000
1.055743e+003,3.647217e+000
1.056707e+003,3.087067e+000
1.057671e+003,2.966644e+000
1.058636e+003,3.272095e+000
1.059600e+003,2.697830e+000
1.060564e+003,1.739960e-001
1.061528e+003,-1.419983e+000
1.062493e+003,-1.555756e+000
1.063457e+003,-8.431854e-001
1.064421e+003,5.437317e-001
1.065385e+003,2.553528e+000
1.066349e+003,3.659698e+000
1.067314e+003,2.435181e+000
1.068278e+003,8.124084e-001
1.069242e+003,-2.145386e-001
1.070206e+003,-5.153198e-001
1.071171e+003,2.779999e-001
1.072135e+003,2.122742e+000
1.073099e+003,4.116852e+000
1.074063e+003,4.803833e+000
1.075028e+003,4.099976e+000
1.075992e+003,3.134659e+000
1.076956e+003,1.242432e+000
1.077920e+003,4.345703e-002
1.078885e+003,9.161987e-001
1.079849e+003,2.709198e+000
1.080813e+003,2.926788e+000
1.081777e+003,8.304596e-001
1.082741e+003,-4.800415e-001
1.083706e+003,1.613159e+000
1.084670e+003,3.847885e+000
1.085634e+003,4.471848e+000
1.086598e+003,3.818619e+000
1.087563e+003,2.751221e+000
1.088527e+003,1.854202e+000
1.089491e+003,1.355637e+000
1.090455e+003,1.692749e+000
1.091420e+003,2.915237e+000
1.092384e+003,3.093567e+000
1.093348e+003,1.632568e+000
1.094312e+003,1.102600e-001
1.095276e+003,-5.716400e-001
1.096241e+003,-5.112610e-001
1.097205e+003,-6.324768e-002
1.098169e+003,8.631439e-001
1.099133e+003,1.602051e+000
1.100098e+003,2.399780e+000
1.101062e+003,2.596405e+000
1.102026e+003,1.242416e+000
1.102990e+003,-1.024597e+000
1.103955e+003,-2.828308e+000
1.104919e+003,-3.353683e+000
1.105883e+003,-2.995499e+000
1.106847e+003,-2.398712e+000
1.107812e+003,-1.595932e+000
1.108776e+003,-1.457260e+000
1.109740e+003,-2.417465e+000
1.110704e+003,-3.213074e+000
1.111668e+003,-2.823532e+000
1.112633e+003,-1.406433e+000
1.113597e+003,3.489227e-001
1.114561e+003,3.096542e+000
1.115525e+003,4.235428e+000
1.116490e+003,1.740067e+000
1.117454e+003,-1.218445e+000
1.118418e+003,-2.739807e+000
1.119382e+003,-2.817551e+000
1.120347e+003,-2.204147e+000
1.121311e+003,-1.435471e+000
1.122275e+003,-8.679504e-001
1.123239e+003,-1.224228e+000
1.124203e+003,-2.256149e+000
1.125168e+003,-2.145386e+000
1.126132e+003,-2.547455e-001
1.127096e+003,1.537323e+000
1.128060e+003,1.501175e+000
1.129025e+003,4.212952e-002
1.129989e+003,-8.524323e-001
1.130953e+003,-1.289841e+000
1.131917e+003,-6.101379e-001
1.132882e+003,2.670639e+000
1.133846e+003,5.742645e+000
1.134810e+003,6.905807e+000
1.135774e+003,6.408997e+000
1.136739e+003,5.090866e+000
1.137703e+003,3.452118e+000
1.138667e+003,1.916763e+000
1.139631e+003,1.154495e+000
1.140595e+003,1.247131e+000
1.141560e+003,2.413055e+000
1.142524e+003,4.966705e+000
1.143488e+003,7.765137e+000
1.144452e+003,1.005833e+001
1.145417e+003,1.195056e+001
1.146381e+003,1.377419e+001
1.147345e+003,1.535446e+001
1.148309e+003,1.729182e+001
1.149274e+003,1.982564e+001
1.150238e+003,2.269785e+001
1.151202e+003,2.621565e+001
1.152166e+003,2.994246e+001
1.153130e+003,3.317905e+001
1.154095e+003,3.551614e+001
1.155059e+003,3.694128e+001
1.156023e+003,3.748412e+001
1.156987e+003,3.723331e+001
1.157952e+003,3.713495e+001
1.158916e+003,3.770276e+001
1.159880e+003,3.656290e+001
1.160844e+003,3.075952e+001
1.161809e+003,2.262329e+001
1.162773e+003,1.797816e+001
1.163737e+003,1.770473e+001
1.164701e+003,1.707738e+001
1.165666e+003,1.480370e+001
1.166630e+003,1.216051e+001
1.167594e+003,8.724884e+000
1.168558e+003,5.573654e+000
1.169522e+003,4.223480e+000
1.170487e+003,5.001465e+000
1.171451e+003,6.865021e+000
1.172415e+003,8.868073e+000
1.173379e+003,1.064053e+001
1.174344e+003,1.011053e+001
1.175308e+003,7.221664e+000
1.176272e+003,4.679306e+000
1.177236e+003,3.581131e+000
1.178201e+003,3.123123e+000
1.179165e+003,1.963531e+000
1.180129e+003,2.319336e-002
1.181093e+003,-6.299286e-001
1.182057e+003,1.840408e+000
1.183022e+003,3.611343e+000
1.183986e+003,2.876465e+000
1.184950e+003,1.158279e+000
1.185914e+003,-4.394684e-001
1.186879e+003,-1.471146e+000
1.187843e+003,-1.667709e+000
1.188807e+003,-8.147430e-001
1.189771e+003,7.048035e-001
1.190736e+003,1.930954e+000
1.191700e+003,2.871277e+000
1.192664e+003,3.166275e+000
1.193628e+003,2.665298e+000
1.194593e+003,1.766510e+000
1.195557e+003,6.377258e-001
1.196521e+003,-6.933136e-001
1.197485e+003,-2.229019e+000
1.198449e+003,-4.244904e+000
1.199414e+003,-5.520355e+000
1.200378e+003,-5.153320e+000
1.201342e+003,-4.186279e+000
1.202306e+003,-2.680786e+000
1.203271e+003,-1.232010e+000
1.204235e+003,-8.975830e-001
1.205199e+003,-2.099762e+000
1.206163e+003,-4.021912e+000
1.207128e+003,-5.380646e+000
1.208092e+003,-6.153839e+000
1.209056e+003,-5.994980e+000
1.210020e+003,-4.028946e+000
1.210984e+003,-2.989563e+000
1.211949e+003,-4.127670e+000
1.212913e+003,-6.346710e+000
1.213877e+003,-8.399323e+000
1.214841e+003,-1.014867e+001
1.215806e+003,-1.148042e+001
1.216770e+003,-1.212955e+001
1.217734e+003,-1.273318e+001
1.218698e+003,-1.409160e+001
1.219663e+003,-1.553416e+001
1.220627e+003,-1.614561e+001
1.221591e+003,-1.583749e+001
1.222555e+003,-1.520863e+001
1.223520e+003,-1.479262e+001
1.224484e+003,-1.451794e+001
1.225448e+003,-1.417522e+001
1.226412e+003,-1.379929e+001
1.227376e+003,-1.329596e+001
1.228341e+003,-1.259541e+001
1.229305e+003,-1.190268e+001
1.230269e+003,-1.093364e+001
1.231233e+003,-1.016858e+001
1.232198e+003,-1.085916e+001
1.233162e+003,-1.339468e+001
1.234126e+003,-1.548192e+001
1.235090e+003,-1.480835e+001
1.236055e+003,-1.362318e+001
1.237019e+003,-1.496495e+001
1.237983e+003,-1.779449e+001
1.238947e+003,-1.892949e+001
1.239911e+003,-1.703453e+001
1.240876e+003,-1.418538e+001
1.241840e+003,-1.357472e+001
1.242804e+003,-1.535651e+001
1.243768e+003,-1.642311e+001
1.244733e+003,-1.599023e+001
1.245697e+003,-1.584207e+001
1.246661e+003,-1.680560e+001
1.247625e+003,-1.760239e+001
1.248590e+003,-1.683524e+001
1.249554e+003,-1.496327e+001
1.250518e+003,-1.376569e+001
1.251482e+003,-1.412485e+001
1.252447e+003,-1.489029e+001
1.253411e+003,-1.454164e+001
1.254375e+003,-1.358170e+001
1.255339e+003,-1.319542e+001
1.256303e+003,-1.338329e+001
1.257268e+003,-1.351457e+001
1.258232e+003,-1.324704e+001
1.259196e+003,-1.285783e+001
1.260160e+003,-1.290639e+001
1.261125e+003,-1.348390e+001
1.262089e+003,-1.353218e+001
1.263053e+003,-1.258543e+001
1.264017e+003,-1.165590e+001
1.264982e+003,-1.085202e+001
1.265946e+003,-1.021049e+001
1.266910e+003,-9.728012e+000
1.267874e+003,-9.424850e+000
1.268839e+003,-9.524261e+000
1.269803e+003,-1.019307e+001
1.270767e+003,-1.068938e+001
1.271731e+003,-9.191437e+000
1.272695e+003,-5.811142e+000
1.273660e+003,-4.374435e+000
1.274624e+003,-5.696548e+000
1.275588e+003,-7.331543e+000
1.276552e+003,-7.925247e+000
1.277517e+003,-7.876266e+000
1.278481e+003,-7.951004e+000
1.279445e+003,-8.203934e+000
1.280409e+003,-8.696106e+000
1.281374e+003,-9.584824e+000
1.282338e+003,-1.051855e+001
1.283302e+003,-1.167249e+001
1.284266e+003,-1.257199e+001
1.285230e+003,-1.252225e+001
1.286195e+003,-1.159042e+001
1.287159e+003,-1.043048e+001
1.288123e+003,-9.549698e+000
1.289087e+003,-8.982269e+000
1.290052e+003,-9.001511e+000
1.291016e+003,-9.963348e+000
1.291980e+003,-1.041347e+001
1.292944e+003,-9.778946e+000
1.293909e+003,-9.536194e+000
1.294873e+003,-1.059264e+001
1.295837e+003,-1.206624e+001
1.296801e+003,-1.273952e+001
1.297766e+003,-1.247235e+001
1.298730e+003,-1.196570e+001
1.299694e+003,-1.150819e+001
1.300658e+003,-1.118965e+001
1.301622e+003,-1.099785e+001
1.302587e+003,-1.097090e+001
1.303551e+003,-1.126862e+001
1.304515e+003,-1.187453e+001
1.305479e+003,-1.259273e+001
1.306444e+003,-1.336658e+001
1.307408e+003,-1.409410e+001
1.308372e+003,-1.429442e+001
1.309336e+003,-1.383725e+001
1.310301e+003,-1.325659e+001
1.311265e+003,-1.212854e+001
1.312229e+003,-1.136653e+001
1.313193e+003,-1.136987e+001
1.314157e+003,-1.182108e+001
1.315122e+003,-1.251190e+001
1.316086e+003,-1.331924e+001
1.317050e+003,-1.418173e+001
1.318014e+003,-1.508017e+001
1.318979e+003,-1.549199e+001
1.319943e+003,-1.409215e+001
1.320907e+003,-1.119716e+001
1.321871e+003,-9.990280e+000
1.322836e+003,-1.108192e+001
1.323800e+003,-1.242235e+001
1.324764e+003,-1.328551e+001
1.325728e+003,-1.351790e+001
1.326693e+003,-1.240744e+001
1.327657e+003,-9.936310e+000
1.328621e+003,-8.954132e+000
1.329585e+003,-1.128175e+001
1.330549e+003,-1.300627e+001
1.331514e+003,-1.143985e+001
1.332478e+003,-9.204742e+000
1.333442e+003,-8.967896e+000
1.334406e+003,-1.046790e+001
1.335371e+003,-1.168445e+001
1.336335e+003,-1.139952e+001
1.337299e+003,-1.037955e+001
1.338263e+003,-1.011342e+001
1.339228e+003,-1.070827e+001
1.340192e+003,-1.102379e+001
1.341156e+003,-1.130904e+001
1.342120e+003,-1.098897e+001
1.343084e+003,-8.939606e+000
1.344049e+003,-7.299927e+000
1.345013e+003,-8.553665e+000
1.345977e+003,-1.163451e+001
1.346941e+003,-1.301377e+001
1.347906e+003,-1.136160e+001
1.348870e+003,-9.053711e+000
1.349834e+003,-8.194183e+000
1.350798e+003,-8.234650e+000
1.351763e+003,-7.785202e+000
1.352727e+003,-7.000473e+000
1.353691e+003,-7.058701e+000
1.354655e+003,-8.601471e+000
1.355620e+003,-1.033156e+001
1.356584e+003,-1.045946e+001
1.357548e+003,-9.212769e+000
1.358512e+003,-8.944901e+000
1.359476e+003,-1.028156e+001
1.360441e+003,-1.138408e+001
1.361405e+003,-1.165224e+001
1.362369e+003,-1.166319e+001
1.363333e+003,-1.151888e+001
1.364298e+003,-1.137265e+001
1.365262e+003,-1.141389e+001
1.366226e+003,-1.166228e+001
1.367190e+003,-1.196692e+001
1.368155e+003,-1.219692e+001
1.369119e+003,-1.235329e+001
1.370083e+003,-1.245685e+001
1.371047e+003,-1.260574e+001
1.372011e+003,-1.196854e+001
1.372976e+003,-9.757874e+000
1.373940e+003,-7.978149e+000
1.374904e+003,-7.604385e+000
1.375868e+003,-7.846817e+000
1.376833e+003,-7.731094e+000
1.377797e+003,-7.232208e+000
1.378761e+003,-6.902695e+000
1.379725e+003,-6.957764e+000
1.380690e+003,-7.235077e+000
1.381654e+003,-7.498779e+000
1.382618e+003,-7.900650e+000
1.383582e+003,-9.154922e+000
1.384547e+003,-1.100284e+001
1.385511e+003,-1.146163e+001
1.386475e+003,-9.251938e+000
1.387439e+003,-6.277802e+000
1.388403e+003,-5.616760e+000
1.389368e+003,-7.267700e+000
1.390332e+003,-8.295380e+000
1.391296e+003,-8.436630e+000
1.392260e+003,-8.209671e+000
1.393225e+003,-7.417068e+000
1.394189e+003,-6.704834e+000
1.395153e+003,-6.457703e+000
1.396117e+003,-6.523788e+000
1.397082e+003,-6.703201e+000
1.398046e+003,-6.859940e+000
1.399010e+003,-6.829605e+000
1.399974e+003,-6.492874e+000
1.400938e+003,-6.027924e+000
1.401903e+003,-5.772278e+000
1.402867e+003,-5.567993e+000
1.403831e+003,-5.515518e+000
1.404795e+003,-6.082184e+000
1.405760e+003,-6.340942e+000
1.406724e+003,-5.675171e+000
1.407688e+003,-4.966888e+000
1.408652e+003,-5.295166e+000
1.409617e+003,-6.460083e+000
1.410581e+003,-7.349304e+000
1.411545e+003,-7.554337e+000
1.412509e+003,-7.235764e+000
1.413474e+003,-6.141388e+000
1.414438e+003,-4.992462e+000
1.415402e+003,-4.917480e+000
1.416366e+003,-5.753174e+000
1.417330e+003,-6.831268e+000
1.418295e+003,-8.071655e+000
1.419259e+003,-8.790329e+000
1.420223e+003,-7.855743e+000
1.421187e+003,-5.644196e+000
1.422152e+003,-4.337082e+000
1.423116e+003,-4.174149e+000
1.424080e+003,-4.016724e+000
1.425044e+003,-3.494110e+000
1.426009e+003,-3.139664e+000
1.426973e+003,-3.142487e+000
1.427937e+003,-3.465439e+000
1.428901e+003,-4.214951e+000
1.429865e+003,-5.196503e+000
1.430830e+003,-5.975357e+000
1.431794e+003,-6.284286e+000
1.432758e+003,-5.984543e+000
1.433722e+003,-4.612350e+000
1.434687e+003,-1.888535e+000
1.435651e+003,-3.727417e-001
1.436615e+003,-1.479797e+000
1.437579e+003,-2.134552e+000
1.438544e+003,-1.473099e+000
1.439508e+003,-8.383331e-001
1.440472e+003,-1.035767e+000
1.441436e+003,-1.867828e+000
1.442401e+003,-3.174500e+000
1.443365e+003,-4.796738e+000
1.444329e+003,-5.727081e+000
1.445293e+003,-5.051575e+000
1.446257e+003,-3.645187e+000
1.447222e+003,-3.194199e+000
1.448186e+003,-3.543762e+000
1.449150e+003,-3.873260e+000
1.450114e+003,-4.151001e+000
1.451079e+003,-4.357132e+000
1.452043e+003,-4.704407e+000
1.453007e+003,-4.730576e+000
1.453971e+003,-3.226089e+000
1.454936e+003,-6.091614e-001
1.455900e+003,-1.588287e-001
1.456864e+003,-3.296753e+000
1.457828e+003,-5.884171e+000
1.458792e+003,-4.749222e+000
1.459757e+003,-2.867432e+000
1.460721e+003,-2.715591e+000
1.461685e+003,-3.674896e+000
1.462649e+003,-4.254120e+000
1.463614e+003,-4.043182e+000
1.464578e+003,-3.688858e+000
1.465542e+003,-3.805145e+000
1.466506e+003,-4.201263e+000
1.467471e+003,-4.260773e+000
1.468435e+003,-3.902176e+000
1.469399e+003,-3.211288e+000
1.470363e+003,-1.603104e+000
1.471328e+003,-6.963043e-001
1.472292e+003,-1.365219e+000
1.473256e+003,-2.463593e+000
1.474220e+003,-3.016922e+000
1.475184e+003,-3.240112e+000
1.476149e+003,-4.065048e+000
1.477113e+003,-5.653069e+000
1.478077e+003,-6.889542e+000
1.479041e+003,-6.627251e+000
1.480006e+003,-5.173508e+000
1.480970e+003,-3.632309e+000
1.481934e+003,-1.917953e+000
1.482898e+003,-8.437653e-001
1.483863e+003,-7.211761e-001
1.484827e+003,-7.580414e-001
1.485791e+003,-6.943207e-001
1.486755e+003,-6.414032e-001
1.487719e+003,-7.490845e-001
1.488684e+003,-1.030258e+000
1.489648e+003,-1.464523e+000
1.490612e+003,-2.004318e+000
1.491576e+003,-2.443802e+000
1.492541e+003,-2.773026e+000
1.493505e+003,-2.720047e+000
1.494469e+003,-1.186340e+000
1.495433e+003,1.412201e+000
1.496398e+003,2.709442e+000
1.497362e+003,2.108780e+000
1.498326e+003,1.590561e+000
1.499290e+003,1.930756e+000
1.500255e+003,3.078964e+000
1.501219e+003,5.377731e+000
1.502183e+003,8.510635e+000
1.503147e+003,1.082664e+001
1.504111e+003,1.188535e+001
1.505076e+003,1.249992e+001
1.506040e+003,1.279778e+001
1.507004e+003,1.325269e+001
1.507968e+003,1.433228e+001
1.508933e+003,1.588562e+001
1.509897e+003,1.740233e+001
1.510861e+003,1.894228e+001
1.511825e+003,2.168517e+001
1.512790e+003,2.664343e+001
1.513754e+003,3.273347e+001
1.514718e+003,3.827287e+001
1.515682e+003,4.319482e+001
1.516646e+003,4.664664e+001
1.517611e+003,4.783495e+001
1.518575e+003,4.948932e+001
1.519539e+003,5.370016e+001
1.520503e+003,5.742680e+001
1.521468e+003,5.908255e+001
1.522432e+003,5.917282e+001
1.523396e+003,5.830673e+001
1.524360e+003,5.678177e+001
1.525325e+003,5.476831e+001
1.526289e+003,5.240857e+001
1.527253e+003,5.025258e+001
1.528217e+003,4.955093e+001
1.529182e+003,5.040617e+001
1.530146e+003,4.809047e+001
1.531110e+003,3.986830e+001
1.532074e+003,3.345555e+001
1.533039e+003,3.014157e+001
1.534003e+003,2.741997e+001
1.534967e+003,2.458044e+001
1.535931e+003,2.172575e+001
1.536896e+003,1.905379e+001
1.537860e+003,1.656476e+001
1.538824e+003,1.385495e+001
1.539788e+003,1.077490e+001
1.540752e+003,8.415161e+000
1.541717e+003,8.380676e+000
1.542681e+003,1.019740e+001
1.543645e+003,1.060535e+001
1.544609e+003,9.022781e+000
1.545573e+003,7.621307e+000
1.546538e+003,5.950974e+000
1.547502e+003,4.841187e+000
1.548466e+003,4.852127e+000
1.549430e+003,5.523514e+000
1.550395e+003,6.831421e+000
1.551359e+003,8.226151e+000
1.552323e+003,8.277222e+000
1.553287e+003,6.601715e+000
1.554252e+003,4.906967e+000
1.555216e+003,4.677887e+000
1.556180e+003,5.444763e+000
1.557144e+003,6.398712e+000
1.558109e+003,7.558884e+000
1.559073e+003,7.458939e+000
1.560037e+003,5.526978e+000
1.561001e+003,3.259842e+000
1.561966e+003,3.694916e-001
1.562930e+003,-1.756828e+000
1.563894e+003,-1.399506e+000
1.564858e+003,5.421143e-001
1.565823e+003,1.865997e+000
1.566787e+003,2.147018e+000
1.567751e+003,2.426926e+000
1.568715e+003,3.410965e+000
1.569679e+003,4.319672e+000
1.570644e+003,3.795898e+000
1.571608e+003,2.455948e+000
1.572572e+003,2.412689e+000
1.573536e+003,3.804657e+000
1.574500e+003,4.722504e+000
1.575465e+003,4.331894e+000
1.576429e+003,3.571716e+000
1.577393e+003,2.624123e+000
1.578357e+003,2.033211e+000
1.579322e+003,3.453484e+000
1.580286e+003,6.768135e+000
1.581250e+003,8.949249e+000
1.582214e+003,8.906418e+000
1.583179e+003,8.198425e+000
1.584143e+003,7.592621e+000
1.585107e+003,7.200020e+000
1.586071e+003,7.439598e+000
1.587036e+003,8.114067e+000
1.588000e+003,8.316063e+000
1.588964e+003,7.774849e+000
1.589928e+003,7.151581e+000
1.590893e+003,6.461731e+000
1.591857e+003,6.364883e+000
1.592821e+003,8.499893e+000
1.593785e+003,1.232529e+001
1.594750e+003,1.447066e+001
1.595714e+003,1.427599e+001
1.596678e+003,1.383759e+001
1.597642e+003,1.400797e+001
1.598606e+003,1.416966e+001
1.599571e+003,1.366464e+001
1.600535e+003,1.299857e+001
1.601499e+003,1.282168e+001
1.602463e+003,1.310410e+001
1.603427e+003,1.359534e+001
1.604392e+003,1.428434e+001
1.605356e+003,1.446806e+001
1.606320e+003,1.263657e+001
1.607284e+003,1.001083e+001
1.608249e+003,1.068680e+001
1.609213e+003,1.482190e+001
1.610177e+003,1.709101e+001
1.611141e+003,1.582046e+001
1.612106e+003,1.465107e+001
1.613070e+003,1.608549e+001
1.614034e+003,1.754079e+001
1.614998e+003,1.673236e+001
1.615963e+003,1.482306e+001
1.616927e+003,1.376735e+001
1.617891e+003,1.388371e+001
1.618855e+003,1.467397e+001
1.619820e+003,1.596888e+001
1.620784e+003,1.695289e+001
1.621748e+003,1.601965e+001
1.622712e+003,1.378635e+001
1.623677e+003,1.392088e+001
1.624641e+003,1.702408e+001
1.625605e+003,1.913994e+001
1.626569e+003,1.903794e+001
1.627533e+003,1.810516e+001
1.628498e+003,1.643742e+001
1.629462e+003,1.494471e+001
1.630426e+003,1.446304e+001
1.631390e+003,1.472388e+001
1.632354e+003,1.512370e+001
1.633319e+003,1.547209e+001
1.634283e+003,1.577724e+001
1.635247e+003,1.601081e+001
1.636211e+003,1.626873e+001
1.637176e+003,1.694721e+001
1.638140e+003,1.800273e+001
1.639104e+003,1.826459e+001
1.640068e+003,1.755731e+001
1.641033e+003,1.641451e+001
1.641997e+003,1.413072e+001
1.642961e+003,1.271664e+001
1.643925e+003,1.387533e+001
1.644890e+003,1.569697e+001
1.645854e+003,1.609374e+001
1.646818e+003,1.552144e+001
1.647782e+003,1.589171e+001
1.648747e+003,1.767567e+001
1.649711e+003,1.885426e+001
1.650675e+003,1.757238e+001
1.651639e+003,1.519068e+001
1.652604e+003,1.449775e+001
1.653568e+003,1.539028e+001
1.654532e+003,1.610837e+001
1.655496e+003,1.652722e+001
1.656460e+003,1.692430e+001
1.657425e+003,1.762090e+001
1.658389e+003,1.802275e+001
1.659353e+003,1.780430e+001
1.660317e+003,1.715951e+001
1.661281e+003,1.612257e+001
1.662246e+003,1.484232e+001
1.663210e+003,1.365694e+001
1.664174e+003,1.270276e+001
1.665138e+003,1.199232e+001
1.666103e+003,1.156285e+001
1.667067e+003,1.123521e+001
1.668031e+003,1.049473e+001
1.668995e+003,9.440010e+000
1.669960e+003,9.492561e+000
1.670924e+003,1.121770e+001
1.671888e+003,1.211020e+001
1.672852e+003,1.078889e+001
1.673817e+003,9.258774e+000
1.674781e+003,8.469963e+000
1.675745e+003,8.363548e+000
1.676709e+003,9.561317e+000
1.677674e+003,1.135282e+001
1.678638e+003,1.139442e+001
1.679602e+003,8.985626e+000
1.680566e+003,6.743881e+000
1.681531e+003,6.917892e+000
1.682495e+003,8.231171e+000
1.683459e+003,8.220131e+000
1.684423e+003,7.186516e+000
1.685387e+003,7.502113e+000
1.686352e+003,9.597832e+000
1.687316e+003,1.144763e+001
1.688280e+003,1.275934e+001
1.689244e+003,1.301431e+001
1.690208e+003,1.040778e+001
1.691173e+003,7.468681e+000
1.692137e+003,7.607292e+000
1.693101e+003,9.909035e+000
1.694065e+003,1.089385e+001
1.695030e+003,9.637856e+000
1.695994e+003,7.936813e+000
1.696958e+003,6.653801e+000
1.697922e+003,5.859070e+000
1.698887e+003,6.033661e+000
1.699851e+003,6.713928e+000
1.700815e+003,6.112633e+000
1.701779e+003,4.103653e+000
1.702744e+003,3.024498e+000
1.703708e+003,3.860733e+000
1.704672e+003,5.012222e+000
1.705636e+003,5.195480e+000
1.706601e+003,5.018280e+000
1.707565e+003,5.628426e+000
1.708529e+003,6.764442e+000
1.709493e+003,7.561577e+000
1.710458e+003,7.960243e+000
1.711422e+003,7.554688e+000
1.712386e+003,5.362930e+000
1.713350e+003,3.385612e+000
1.714314e+003,3.666748e+000
1.715279e+003,4.831207e+000
1.716243e+003,4.293541e+000
1.717207e+003,2.373489e+000
1.718171e+003,1.700699e+000
1.719135e+003,3.012238e+000
1.720100e+003,4.253304e+000
1.721064e+003,4.084908e+000
1.722028e+003,2.988594e+000
1.722992e+003,1.383469e+000
1.723957e+003,-4.286194e-001
1.724921e+003,-9.033279e-001
1.725885e+003,1.481934e-001
1.726849e+003,5.722275e-001
1.727814e+003,-8.826218e-001
1.728778e+003,-1.564034e+000
1.729742e+003,4.793320e-001
1.730706e+003,3.029594e+000
1.731671e+003,3.929535e+000
1.732635e+003,3.509781e+000
1.733599e+003,2.625412e+000
1.734563e+003,1.748413e+000
1.735528e+003,1.858879e+000
1.736492e+003,3.434982e+000
1.737456e+003,4.881439e+000
1.738420e+003,4.241661e+000
1.739385e+003,2.064743e+000
1.740349e+003,4.994202e-001
1.741313e+003,-4.338760e-001
1.742277e+003,-6.042099e-001
1.743241e+003,8.655777e-001
1.744206e+003,1.770340e+000
1.745170e+003,1.397392e+000
1.746134e+003,8.404388e-001
1.747098e+003,5.381088e-001
1.748063e+003,4.904480e-001
1.749027e+003,9.045029e-001
1.749991e+003,1.488464e+000
1.750955e+003,1.456314e+000
1.751919e+003,6.259842e-001
1.752884e+003,-3.484268e-001
1.753848e+003,-9.401627e-001
1.754812e+003,-9.260178e-001
1.755776e+003,4.281921e-001
1.756741e+003,3.078148e+000
1.757705e+003,3.643036e+000
1.758669e+003,1.140129e+000
1.759633e+003,-7.003555e-001
1.760598e+003,-1.150986e+000
1.761562e+003,-1.492401e+000
1.762526e+003,-2.138222e+000
1.763490e+003,-2.668510e+000
1.764455e+003,-3.050705e+000
1.765419e+003,-2.969086e+000
1.766383e+003,-1.485565e+000
1.767347e+003,9.611359e-001
1.768312e+003,2.152206e+000
1.769276e+003,1.007141e+000
1.770240e+003,-7.843552e-001
1.771204e+003,-1.538750e+000
1.772168e+003,-1.462769e+000
1.773133e+003,-9.832687e-001
1.774097e+003,-1.672897e-001
1.775061e+003,3.035965e-001
1.776025e+003,2.781296e-001
1.776990e+003,7.296753e-002
1.777954e+003,-2.973480e-001
1.778918e+003,-4.211273e-001
1.779882e+003,2.762146e-001
1.780846e+003,1.054337e+000
1.781811e+003,8.375931e-001
1.782775e+003,-6.040955e-002
1.783739e+003,-6.247711e-001
1.784703e+003,-6.713638e-001
1.785668e+003,-6.776047e-001
1.786632e+003,-8.573532e-001
1.787596e+003,-1.168770e+000
1.788560e+003,-1.833817e+000
1.789525e+003,-2.287270e+000
1.790489e+003,-1.630798e+000
1.791453e+003,-1.708145e-001
1.792417e+003,1.276657e+000
1.793382e+003,2.460106e+000
1.794346e+003,3.053108e+000
1.795310e+003,2.862480e+000
1.796274e+003,2.122955e+000
1.797239e+003,1.007378e+000
1.798203e+003,-1.288300e-001
1.799167e+003,-3.023605e-001
1.800131e+003,5.616531e-001
1.801095e+003,1.082863e+000
1.802060e+003,1.234100e+000
1.803024e+003,1.339363e+000
1.803988e+003,1.516685e+000
1.804952e+003,1.465912e+000
1.805917e+003,5.523987e-001
1.806881e+003,-2.445145e-001
1.807845e+003,4.013901e-001
1.808809e+003,1.859413e+000
1.809773e+003,2.636932e+000
1.810738e+003,2.455238e+000
1.811702e+003,2.188004e+000
1.812666e+003,2.375229e+000
1.813630e+003,2.616943e+000
1.814595e+003,2.316757e+000
1.815559e+003,1.683327e+000
1.816523e+003,1.712112e+000
1.817487e+003,2.490936e+000
1.818452e+003,3.100876e+000
1.819416e+003,3.550186e+000
1.820380e+003,3.860756e+000
1.821344e+003,4.247398e+000
1.822309e+003,4.075409e+000
1.823273e+003,2.431168e+000
1.824237e+003,5.781479e-001
1.825201e+003,-4.541779e-001
1.826166e+003,-6.234055e-001
1.827130e+003,4.558258e-001
1.828094e+003,2.741211e+000
1.829058e+003,3.869507e+000
1.830022e+003,2.373024e+000
1.830987e+003,2.438431e-001
1.831951e+003,-1.372025e+000
1.832915e+003,-2.255234e+000
1.833879e+003,-1.694206e+000
1.834844e+003,-1.885452e-001
1.835808e+003,8.087006e-001
1.836772e+003,1.073990e+000
1.837736e+003,1.043823e+000
1.838700e+003,8.728180e-001
1.839665e+003,5.407333e-001
1.840629e+003,-2.527618e-002
1.841593e+003,-4.903488e-001
1.842557e+003,-7.289886e-002
1.843522e+003,1.202431e+000
1.844486e+003,1.650482e+000
1.845450e+003,5.954437e-001
1.846414e+003,1.524582e-001
1.847379e+003,4.999847e-001
1.848343e+003,1.032143e+000
1.849307e+003,2.033783e+000
1.850271e+003,2.744995e+000
1.851236e+003,2.327072e+000
1.852200e+003,1.531647e+000
1.853164e+003,1.456215e+000
1.854128e+003,1.958153e+000
1.855093e+003,2.105438e+000
1.856057e+003,1.635925e+000
1.857021e+003,1.274841e+000
1.857985e+003,1.632523e+000
1.858949e+003,2.228264e+000
1.859914e+003,2.180542e+000
1.860878e+003,1.648834e+000
1.861842e+003,1.434212e+000
1.862806e+003,1.525826e+000
1.863771e+003,1.943855e+000
1.864735e+003,2.890503e+000
1.865699e+003,3.051552e+000
1.866663e+003,1.415100e+000
1.867627e+003,-2.441635e-001
1.868592e+003,-4.676971e-001
1.869556e+003,2.931595e-001
1.870520e+003,1.708725e+000
1.871484e+003,3.522224e+000
1.872449e+003,3.789063e+000
1.873413e+003,1.827637e+000
1.874377e+003,8.641205e-001
1.875341e+003,2.346611e+000
1.876306e+003,4.085014e+000
1.877270e+003,5.279427e+000
1.878234e+003,5.812515e+000
1.879198e+003,5.001213e+000
1.880163e+003,3.779442e+000
1.881127e+003,4.304176e+000
1.882091e+003,6.191071e+000
1.883055e+003,6.467514e+000
1.884020e+003,4.075317e+000
1.884984e+003,1.558815e+000
1.885948e+003,1.237732e+000
1.886912e+003,2.214554e+000
1.887876e+003,2.724236e+000
1.888841e+003,2.830872e+000
1.889805e+003,3.280327e+000
1.890769e+003,4.183128e+000
1.891733e+003,4.848045e+000
1.892698e+003,5.210609e+000
1.893662e+003,5.193802e+000
1.894626e+003,4.250183e+000
1.895590e+003,3.642921e+000
1.896554e+003,4.924171e+000
1.897519e+003,6.585617e+000
1.898483e+003,6.487587e+000
1.899447e+003,5.099602e+000
1.900411e+003,4.526901e+000
1.901376e+003,5.189186e+000
1.902340e+003,5.543900e+000
1.903304e+003,4.967896e+000
1.904268e+003,3.993439e+000
1.905233e+003,2.356346e+000
1.906197e+003,1.070328e+000
1.907161e+003,1.401398e+000
1.908125e+003,2.763039e+000
1.909090e+003,4.215240e+000
1.910054e+003,5.454720e+000
1.911018e+003,6.290771e+000
1.911982e+003,6.693451e+000
1.912947e+003,6.738579e+000
1.913911e+003,6.467125e+000
1.914875e+003,6.027802e+000
1.915839e+003,5.622429e+000
1.916803e+003,5.220161e+000
1.917768e+003,4.799065e+000
1.918732e+003,4.285233e+000
1.919696e+003,4.634140e+000
1.920660e+003,6.573784e+000
1.921625e+003,7.350029e+000
1.922589e+003,5.475204e+000
1.923553e+003,3.720665e+000
1.924517e+003,3.413322e+000
1.925481e+003,3.997986e+000
1.926446e+003,5.701820e+000
1.927410e+003,7.680679e+000
1.928374e+003,8.090157e+000
1.929338e+003,6.906868e+000
1.930303e+003,5.958885e+000
1.931267e+003,5.583183e+000
1.932231e+003,6.094353e+000
1.933195e+003,8.651764e+000
1.934160e+003,1.083704e+001
1.935124e+003,1.049055e+001
1.936088e+003,9.069588e+000
1.937052e+003,8.394051e+000
1.938017e+003,8.249901e+000
1.938981e+003,7.579254e+000
1.939945e+003,6.352135e+000
1.940909e+003,5.450172e+000
1.941874e+003,5.267883e+000
1.942838e+003,5.516129e+000
1.943802e+003,5.983978e+000
1.944766e+003,6.670418e+000
1.945730e+003,7.671745e+000
1.946695e+003,8.763603e+000
1.947659e+003,8.005547e+000
1.948623e+003,5.091057e+000
1.949587e+003,3.792725e+000
1.950552e+003,4.925369e+000
1.951516e+003,6.066696e+000
1.952480e+003,6.394676e+000
1.953444e+003,6.609917e+000
1.954408e+003,7.303535e+000
1.955373e+003,7.981506e+000
1.956337e+003,7.902138e+000
1.957301e+003,7.334976e+000
1.958265e+003,7.054802e+000
1.959230e+003,7.130470e+000
1.960194e+003,7.111000e+000
1.961158e+003,6.539978e+000
1.962122e+003,6.294350e+000
1.963087e+003,7.266838e+000
1.964051e+003,7.839333e+000
1.965015e+003,6.416534e+000
1.965979e+003,4.833611e+000
1.966944e+003,5.298508e+000
1.967908e+003,6.800552e+000
1.968872e+003,7.203621e+000
1.969836e+003,6.351273e+000
1.970801e+003,5.394814e+000
1.971765e+003,4.883804e+000
1.972729e+003,4.977013e+000
1.973693e+003,5.895615e+000
1.974657e+003,7.200363e+000
1.975622e+003,8.372688e+000
1.976586e+003,9.330238e+000
1.977550e+003,9.978653e+000
1.978514e+003,1.029684e+001
1.979479e+003,9.887489e+000
1.980443e+003,8.756523e+000
1.981407e+003,8.086319e+000
1.982371e+003,8.338173e+000
1.983335e+003,9.172012e+000
1.984300e+003,1.040894e+001
1.985264e+003,1.149239e+001
1.986228e+003,1.147718e+001
1.987192e+003,1.071899e+001
1.988157e+003,1.116151e+001
1.989121e+003,1.326091e+001
1.990085e+003,1.428611e+001
1.991049e+003,1.373269e+001
1.992014e+003,1.319249e+001
1.992978e+003,1.288181e+001
1.993942e+003,1.250083e+001
1.994906e+003,1.163314e+001
1.995871e+003,1.098392e+001
1.996835e+003,1.132594e+001
1.997799e+003,1.210052e+001
1.998763e+003,1.251651e+001
1.999728e+003,1.251581e+001
