5.003444e+002,3.943033e+001
5.013087e+002,4.144540e+001
5.022729e+002,4.085931e+001
5.032371e+002,3.858905e+001
5.042014e+002,3.739444e+001
5.051656e+002,3.717035e+001
5.061298e+002,3.737238e+001
5.070941e+002,3.754477e+001
5.080583e+002,3.771277e+001
5.090225e+002,3.699387e+001
5.099868e+002,3.480603e+001
5.109510e+002,3.262860e+001
5.119152e+002,3.096515e+001
5.128795e+002,2.982727e+001
5.138437e+002,2.986258e+001
5.148079e+002,3.328101e+001
5.157722e+002,3.618698e+001
5.167364e+002,3.653409e+001
5.177006e+002,3.427945e+001
5.186649e+002,3.121695e+001
5.196291e+002,2.921933e+001
5.205933e+002,2.822946e+001
5.215576e+002,2.805319e+001
5.225218e+002,2.848978e+001
5.234860e+002,2.938718e+001
5.244503e+002,3.073947e+001
5.254145e+002,3.310599e+001
5.263787e+002,3.364005e+001
5.273430e+002,3.108170e+001
5.283072e+002,2.755084e+001
5.292714e+002,2.610110e+001
5.302357e+002,2.806439e+001
5.311999e+002,2.868726e+001
5.321641e+002,2.665085e+001
5.331284e+002,2.424899e+001
5.340926e+002,2.339337e+001
5.350568e+002,2.479926e+001
5.360211e+002,2.611484e+001
5.369853e+002,2.508340e+001
5.379495e+002,2.334497e+001
5.389138e+002,2.204810e+001
5.398780e+002,2.165015e+001
5.408422e+002,2.184811e+001
5.418065e+002,2.203778e+001
5.427707e+002,2.219440e+001
5.437349e+002,2.199332e+001
5.446992e+002,2.112427e+001
5.456634e+002,1.992361e+001
5.466276e+002,1.967139e+001
5.475919e+002,2.232370e+001
5.485561e+002,2.357141e+001
5.495203e+002,2.233902e+001
5.504846e+002,1.979385e+001
5.514488e+002,1.764703e+001
5.524130e+002,1.664209e+001
5.533773e+002,1.601233e+001
5.543415e+002,1.535504e+001
5.553057e+002,1.474622e+001
5.562700e+002,1.423209e+001
5.572342e+002,1.381903e+001
5.581984e+002,1.348071e+001
5.591627e+002,1.342230e+001
5.601269e+002,1.358023e+001
5.610911e+002,1.346426e+001
5.620554e+002,1.271494e+001
5.630196e+002,1.144711e+001
5.639838e+002,1.134366e+001
5.649481e+002,1.364236e+001
5.659123e+002,1.531845e+001
5.668765e+002,1.594376e+001
5.678408e+002,1.582385e+001
5.688050e+002,1.553769e+001
5.697692e+002,1.485303e+001
5.707335e+002,1.394476e+001
5.716977e+002,1.260165e+001
5.726619e+002,1.129800e+001
5.736262e+002,1.073770e+001
5.745904e+002,1.153427e+001
5.755546e+002,1.284247e+001
5.765189e+002,1.301663e+001
5.774831e+002,1.244528e+001
5.784473e+002,1.210776e+001
5.794116e+002,1.273145e+001
5.803758e+002,1.425748e+001
5.813400e+002,1.437549e+001
5.823043e+002,1.236636e+001
5.832685e+002,1.063705e+001
5.842327e+002,1.030914e+001
5.851970e+002,1.127316e+001
5.861612e+002,1.212415e+001
5.871254e+002,1.254333e+001
5.880897e+002,1.273160e+001
5.890539e+002,1.250742e+001
5.900181e+002,1.202438e+001
5.909824e+002,1.152017e+001
5.919466e+002,1.111505e+001
5.929108e+002,1.100757e+001
5.938751e+002,1.185306e+001
5.948393e+002,1.293082e+001
5.958035e+002,1.294351e+001
5.967678e+002,1.099402e+001
5.977320e+002,7.582184e+000
5.986962e+002,6.131409e+000
5.996605e+002,6.304932e+000
6.006247e+002,6.995544e+000
6.015889e+002,8.243439e+000
6.025532e+002,9.943970e+000
6.035174e+002,1.033691e+001
6.044816e+002,7.132721e+000
6.054459e+002,5.131622e+000
6.064101e+002,5.888885e+000
6.073743e+002,8.164063e+000
6.083386e+002,9.681366e+000
6.093028e+002,9.174164e+000
6.102670e+002,7.876465e+000
6.112313e+002,6.210907e+000
6.121955e+002,4.706055e+000
6.131597e+002,4.279053e+000
6.141240e+002,5.510010e+000
6.150882e+002,7.695465e+000
6.160524e+002,7.495422e+000
6.170167e+002,5.426605e+000
6.179809e+002,3.879913e+000
6.189451e+002,3.909668e+000
6.199094e+002,5.256622e+000
6.208736e+002,6.496490e+000
6.218378e+002,8.782318e+000
6.228021e+002,9.826172e+000
6.237663e+002,8.385101e+000
6.247305e+002,5.892578e+000
6.256948e+002,4.687012e+000
6.266590e+002,6.035126e+000
6.276232e+002,7.547485e+000
6.285875e+002,8.090759e+000
6.295517e+002,8.032501e+000
6.305159e+002,7.648895e+000
6.314802e+002,7.058075e+000
6.324444e+002,6.170959e+000
6.334086e+002,4.476776e+000
6.343729e+002,2.470215e+000
6.353371e+002,1.560608e+000
6.363013e+002,2.442749e+000
6.372656e+002,4.367279e+000
6.382298e+002,4.749146e+000
6.391940e+002,1.338470e+000
6.401583e+002,-8.203125e-001
6.411225e+002,-8.476257e-001
6.420867e+002,2.891235e-001
6.430510e+002,1.646484e+000
6.440152e+002,3.286652e+000
6.449794e+002,3.474609e+000
6.459437e+002,5.560303e-002
6.469079e+002,-3.959198e+000
6.478721e+002,-6.221893e+000
6.488364e+002,-5.886932e+000
6.498006e+002,-3.978424e+000
6.507648e+002,-1.587921e+000
6.517291e+002,7.100525e-001
6.526933e+002,1.225372e+000
6.536575e+002,-4.692078e-001
6.546218e+002,-3.118683e+000
6.555860e+002,-4.288574e+000
6.565502e+002,-3.084106e+000
6.575145e+002,-2.177368e+000
6.584787e+002,-1.683929e+000
6.594429e+002,-1.327026e+000
6.604072e+002,-7.758179e-001
6.613714e+002,8.364868e-002
6.623356e+002,4.864197e-001
6.632999e+002,-6.143494e-001
6.642641e+002,-1.870178e+000
6.652283e+002,-2.399078e+000
6.661926e+002,-2.148407e+000
6.671568e+002,-1.740387e+000
6.681210e+002,-2.092590e+000
6.690853e+002,-2.831329e+000
6.700495e+002,-2.817200e+000
6.710137e+002,-2.041870e+000
6.719780e+002,-9.005127e-001
6.729422e+002,1.778870e-001
6.739064e+002,1.073639e+000
6.748707e+002,2.275146e+000
6.758349e+002,4.957275e+000
6.767991e+002,6.502655e+000
6.777634e+002,5.258789e+000
6.787276e+002,1.750702e+000
6.796918e+002,-8.644714e-001
6.806561e+002,-9.665527e-001
6.816203e+002,-6.998901e-001
6.825845e+002,-6.384277e-001
6.835488e+002,-8.319092e-001
6.845130e+002,-1.271088e+000
6.854772e+002,-1.971222e+000
6.864415e+002,-2.533905e+000
6.874057e+002,-2.573975e+000
6.883699e+002,-2.221771e+000
6.893342e+002,-9.402161e-001
6.902984e+002,1.775604e+000
6.912626e+002,5.484192e+000
6.922269e+002,6.814240e+000
6.931911e+002,3.503876e+000
6.941553e+002,1.313690e+000
6.951196e+002,8.187256e-001
6.960838e+002,1.348480e+000
6.970480e+002,2.120514e+000
6.980123e+002,3.358612e+000
6.989765e+002,4.035278e+000
6.999407e+002,3.333923e+000
7.009050e+002,2.283325e+000
7.018692e+002,1.794830e+000
7.028334e+002,2.095795e+000
7.037977e+002,2.482574e+000
7.047619e+002,1.921204e+000
7.057261e+002,7.682495e-001
7.066904e+002,-7.849121e-001
7.076546e+002,-2.708923e+000
7.086188e+002,-4.281219e+000
7.095831e+002,-4.267548e+000
7.105473e+002,-2.000153e+000
7.115115e+002,-4.400024e-001
7.124758e+002,2.368469e-001
7.134400e+002,4.628601e-001
7.144042e+002,4.327393e-001
7.153685e+002,2.351379e-001
7.163327e+002,1.251526e-001
7.172969e+002,3.814697e-003
7.182612e+002,2.704163e-001
7.192254e+002,1.513855e+000
7.201896e+002,3.183014e+000
7.211539e+002,4.215790e+000
7.221181e+002,3.678558e+000
7.230823e+002,2.197998e+000
7.240466e+002,1.482330e+000
7.250108e+002,1.513336e+000
7.259750e+002,1.889679e+000
7.269393e+002,2.266876e+000
7.279035e+002,2.496094e+000
7.288677e+002,2.662323e+000
7.298320e+002,3.462128e+000
7.307962e+002,3.929993e+000
7.317604e+002,3.632385e+000
7.327247e+002,3.152832e+000
7.336889e+002,3.378235e+000
7.346531e+002,4.687378e+000
7.356174e+002,5.112030e+000
7.365816e+002,3.130157e+000
7.375458e+002,8.505249e-001
7.385101e+002,6.845093e-002
7.394743e+002,1.074066e+000
7.404385e+002,2.542236e+000
7.414028e+002,2.376465e+000
7.423670e+002,5.598755e-001
7.433312e+002,-1.355927e+000
7.442955e+002,-3.146393e+000
7.452597e+002,-4.020447e+000
7.462239e+002,-2.875427e+000
7.471882e+002,1.059662e+000
7.481524e+002,3.273285e+000
7.491166e+002,2.458954e+000
7.500809e+002,1.319031e+000
7.510451e+002,7.759094e-001
7.520093e+002,7.646790e-001
7.529736e+002,7.075195e-001
7.539378e+002,3.146362e-001
7.549020e+002,3.088989e-001
7.558663e+002,1.327606e+000
7.568306e+002,2.840027e+000
7.577948e+002,4.187500e+000
7.587590e+002,4.894012e+000
7.597233e+002,4.870667e+000
7.606875e+002,3.789551e+000
7.616517e+002,1.930176e+000
7.626160e+002,8.577881e-001
7.635802e+002,1.351044e+000
7.645444e+002,2.529724e+000
7.655087e+002,2.377289e+000
7.664729e+002,-2.377930e-001
7.674371e+002,-1.793945e+000
7.684014e+002,-1.966492e+000
7.693656e+002,-1.393341e+000
7.703298e+002,1.535034e-002
7.712941e+002,2.063568e+000
7.722583e+002,3.494263e+000
7.732225e+002,2.779602e+000
7.741868e+002,1.587524e+000
7.751510e+002,1.108826e+000
7.761152e+002,1.317902e+000
7.770795e+002,1.878052e+000
7.780437e+002,2.478943e+000
7.790079e+002,3.044617e+000
7.799722e+002,3.199097e+000
7.809364e+002,2.887909e+000
7.819006e+002,2.700623e+000
7.828649e+002,2.937775e+000
7.838291e+002,3.621979e+000
7.847933e+002,4.735626e+000
7.857576e+002,7.196198e+000
7.867218e+002,7.834229e+000
7.876860e+002,4.714417e+000
7.886503e+002,1.121552e+000
7.896145e+002,1.651306e-001
7.905787e+002,2.491699e+000
7.915430e+002,5.093506e+000
7.925072e+002,3.644745e+000
7.934714e+002,1.154144e+000
7.944357e+002,1.709351e+000
7.953999e+002,5.210358e+000
7.963641e+002,8.784088e+000
7.973284e+002,9.090637e+000
7.982926e+002,5.861511e+000
7.992568e+002,4.390350e+000
8.002211e+002,5.083588e+000
8.011853e+002,5.593689e+000
8.021495e+002,5.247498e+000
8.031138e+002,4.464386e+000
8.040780e+002,4.035095e+000
8.050422e+002,3.937988e+000
8.060065e+002,4.041138e+000
8.069707e+002,4.428619e+000
8.079349e+002,4.702118e+000
8.088992e+002,4.579803e+000
8.098634e+002,4.015533e+000
8.108276e+002,3.153778e+000
8.117919e+002,1.777039e+000
8.127561e+002,2.133179e-002
8.137203e+002,-1.438263e+000
8.146846e+002,-2.343903e+000
8.156488e+002,-2.395447e+000
8.166130e+002,-1.152435e+000
8.175773e+002,1.817139e+000
8.185415e+002,3.163696e+000
8.195057e+002,1.237946e+000
8.204700e+002,-2.536316e-001
8.214342e+002,2.617798e-001
8.223984e+002,2.162201e+000
8.233627e+002,3.743195e+000
8.243269e+002,4.593658e+000
8.252911e+002,4.786469e+000
8.262554e+002,3.628967e+000
8.272196e+002,2.401520e+000
8.281838e+002,2.641083e+000
8.291481e+002,4.744934e+000
8.301123e+002,7.609985e+000
8.310765e+002,9.348846e+000
8.320408e+002,9.921539e+000
8.330050e+002,1.046591e+001
8.339692e+002,1.131961e+001
8.349335e+002,1.139328e+001
8.358977e+002,8.890656e+000
8.368619e+002,3.170349e+000
8.378262e+002,3.151245e-001
8.387904e+002,3.171204e+000
8.397546e+002,5.562347e+000
8.407189e+002,5.748138e+000
8.416831e+002,4.531281e+000
8.426473e+002,3.470001e+000
8.436116e+002,3.228699e+000
8.445758e+002,3.502502e+000
8.455400e+002,3.543213e+000
8.465043e+002,3.712433e+000
8.474685e+002,5.141235e+000
8.484327e+002,7.993378e+000
8.493970e+002,1.096930e+001
8.503612e+002,1.165250e+001
8.513254e+002,9.500427e+000
8.522897e+002,7.895050e+000
8.532539e+002,6.620880e+000
8.542181e+002,5.857330e+000
8.551824e+002,5.928741e+000
8.561466e+002,6.936066e+000
8.571108e+002,8.528107e+000
8.580751e+002,1.122440e+001
8.590393e+002,1.286230e+001
8.600035e+002,1.246631e+001
8.609678e+002,1.114502e+001
8.619320e+002,9.856476e+000
8.628962e+002,9.051880e+000
8.638605e+002,8.930389e+000
8.648247e+002,1.053537e+001
8.657889e+002,1.281723e+001
8.667532e+002,1.331088e+001
8.677174e+002,1.170010e+001
8.686816e+002,9.627258e+000
8.696459e+002,9.025360e+000
8.706101e+002,1.020068e+001
8.715743e+002,1.123709e+001
8.725386e+002,1.201825e+001
8.735028e+002,1.285733e+001
8.744670e+002,1.371579e+001
8.754313e+002,1.449396e+001
8.763955e+002,1.510669e+001
8.773597e+002,1.552646e+001
8.783240e+002,1.610318e+001
8.792882e+002,1.729437e+001
8.802524e+002,1.847629e+001
8.812167e+002,1.900403e+001
8.821809e+002,1.885083e+001
8.831451e+002,1.855060e+001
8.841094e+002,1.881885e+001
8.850736e+002,1.976257e+001
8.860378e+002,2.083127e+001
8.870021e+002,2.203638e+001
8.879663e+002,2.300281e+001
8.889305e+002,2.335709e+001
8.898948e+002,2.316913e+001
8.908590e+002,2.308118e+001
8.918232e+002,2.356274e+001
8.927875e+002,2.365479e+001
8.937517e+002,2.262640e+001
8.947159e+002,2.156680e+001
8.956802e+002,2.117078e+001
8.966444e+002,2.157196e+001
8.976086e+002,2.270993e+001
8.985729e+002,2.537051e+001
8.995371e+002,2.824075e+001
9.005013e+002,2.845633e+001
9.014656e+002,2.658939e+001
9.024298e+002,2.538794e+001
9.033940e+002,2.693097e+001
9.043583e+002,3.066031e+001
9.053225e+002,3.307712e+001
9.062867e+002,3.346243e+001
9.072510e+002,3.299973e+001
9.082152e+002,3.133871e+001
9.091794e+002,2.943585e+001
9.101437e+002,2.801703e+001
9.111079e+002,2.717606e+001
9.120721e+002,2.702994e+001
9.130364e+002,2.865613e+001
9.140006e+002,2.984656e+001
9.149648e+002,2.894443e+001
9.159291e+002,2.680457e+001
9.168933e+002,2.511362e+001
9.178575e+002,2.498624e+001
9.188218e+002,2.600208e+001
9.197860e+002,2.724701e+001
9.207502e+002,2.870413e+001
9.217145e+002,2.918039e+001
9.226787e+002,2.796475e+001
9.236429e+002,2.648962e+001
9.246072e+002,2.702570e+001
9.255714e+002,3.022534e+001
9.265356e+002,3.129974e+001
9.274999e+002,2.702206e+001
9.284641e+002,2.304370e+001
9.294283e+002,2.151776e+001
9.303926e+002,2.175882e+001
9.313568e+002,2.214008e+001
9.323210e+002,2.181543e+001
9.332853e+002,2.130899e+001
9.342495e+002,2.196710e+001
9.352137e+002,2.287613e+001
9.361780e+002,2.238928e+001
9.371422e+002,2.029736e+001
9.381064e+002,1.799979e+001
9.390707e+002,1.729605e+001
9.400349e+002,1.834229e+001
9.409991e+002,1.879889e+001
9.419634e+002,1.841058e+001
9.429276e+002,1.777945e+001
9.438918e+002,1.650146e+001
9.448561e+002,1.531598e+001
9.458203e+002,1.567670e+001
9.467845e+002,1.833295e+001
9.477488e+002,2.103702e+001
9.487130e+002,2.234521e+001
9.496772e+002,2.276105e+001
9.506415e+002,2.240878e+001
9.516057e+002,2.144046e+001
9.525699e+002,1.997510e+001
9.535342e+002,1.807053e+001
9.544984e+002,1.585156e+001
9.554626e+002,1.516913e+001
9.564269e+002,1.652707e+001
9.573911e+002,1.767804e+001
9.583553e+002,1.760425e+001
9.593196e+002,1.707498e+001
9.602838e+002,1.763110e+001
9.612480e+002,1.979245e+001
9.622123e+002,2.081085e+001
9.631765e+002,1.912601e+001
9.641407e+002,1.704041e+001
9.651050e+002,1.471497e+001
9.660692e+002,1.285788e+001
9.670334e+002,1.292731e+001
9.679977e+002,1.597357e+001
9.689619e+002,2.029172e+001
9.699261e+002,2.163101e+001
9.708904e+002,2.082092e+001
9.718546e+002,2.028503e+001
9.728188e+002,2.045142e+001
9.737831e+002,2.114395e+001
9.747473e+002,2.223035e+001
9.757115e+002,2.379749e+001
9.766758e+002,2.560059e+001
9.776400e+002,2.852148e+001
9.786042e+002,3.085797e+001
9.795685e+002,3.249921e+001
9.805327e+002,3.295975e+001
9.814969e+002,3.125650e+001
9.824612e+002,2.714026e+001
9.834254e+002,2.318680e+001
9.843896e+002,2.235083e+001
9.853539e+002,2.251370e+001
9.863181e+002,2.142859e+001
9.872823e+002,1.899991e+001
9.882466e+002,1.620178e+001
9.892108e+002,1.398669e+001
9.901750e+002,1.256140e+001
9.911393e+002,1.202960e+001
9.921035e+002,1.247314e+001
9.930677e+002,1.291364e+001
9.940320e+002,1.352621e+001
9.949962e+002,1.426456e+001
9.959604e+002,1.498358e+001
9.969247e+002,1.572266e+001
9.978889e+002,1.692212e+001
9.988531e+002,1.915674e+001
9.998174e+002,2.096783e+001
1.000782e+003,2.139761e+001
1.001746e+003,2.114673e+001
1.002710e+003,2.123648e+001
1.003674e+003,2.205823e+001
1.004639e+003,2.308170e+001
1.005603e+003,2.337979e+001
1.006567e+003,2.280853e+001
1.007531e+003,2.221121e+001
1.008495e+003,2.165262e+001
1.009460e+003,2.099878e+001
1.010424e+003,1.989850e+001
1.011388e+003,1.865173e+001
1.012352e+003,1.856055e+001
1.013317e+003,2.076447e+001
1.014281e+003,2.186505e+001
1.015245e+003,1.978436e+001
1.016209e+003,1.721390e+001
1.017174e+003,1.641943e+001
1.018138e+003,1.728174e+001
1.019102e+003,1.798557e+001
1.020066e+003,1.709805e+001
1.021031e+003,1.510437e+001
1.021995e+003,1.273428e+001
1.022959e+003,9.975281e+000
1.023923e+003,7.910309e+000
1.024887e+003,7.107178e+000
1.025852e+003,6.714966e+000
1.026816e+003,5.185608e+000
1.027780e+003,2.102783e+000
1.028744e+003,4.451294e-001
1.029709e+003,1.179749e+000
1.030673e+003,2.406647e+000
1.031637e+003,4.764923e+000
1.032601e+003,6.704193e+000
1.033566e+003,5.574860e+000
1.034530e+003,6.250610e-001
1.035494e+003,-4.378876e+000
1.036458e+003,-5.363907e+000
1.037422e+003,-3.648560e+000
1.038387e+003,-5.476685e-001
1.039351e+003,3.400116e+000
1.040315e+003,5.519196e+000
1.041279e+003,3.544952e+000
1.042244e+003,-1.350281e+000
1.043208e+003,-3.604065e+000
1.044172e+003,-1.544189e+000
1.045136e+003,2.439880e-001
1.046101e+003,1.968658e+000
1.047065e+003,3.250641e+000
1.048029e+003,3.883820e+000
1.048993e+003,3.794708e+000
1.049958e+003,2.658478e+000
1.050922e+003,-2.189026e-001
1.051886e+003,-2.513428e+000
1.052850e+003,-1.256195e+000
1.053814e+003,1.576324e+000
1.054779e+003,3.725464e+000
1.055743e+003,4.559143e+000
1.056707e+003,4.296661e+000
1.057671e+003,3.103333e+000
1.058636e+003,9.393311e-001
1.059600e+003,3.247070e-001
1.060564e+003,3.315338e+000
1.061528e+003,5.165955e+000
1.062493e+003,4.193024e+000
1.063457e+003,2.200195e+000
1.064421e+003,1.263092e+000
1.065385e+003,1.671509e+000
1.066349e+003,2.244690e+000
1.067314e+003,2.686951e+000
1.068278e+003,2.745911e+000
1.069242e+003,1.619537e+000
1.070206e+003,3.043823e-001
1.071171e+003,6.343689e-001
1.072135e+003,3.115112e+000
1.073099e+003,6.065857e+000
1.074063e+003,6.738373e+000
1.075028e+003,4.942810e+000
1.075992e+003,3.542236e+000
1.076956e+003,2.287537e+000
1.077920e+003,1.471191e+000
1.078885e+003,1.544830e+000
1.079849e+003,2.199585e+000
1.080813e+003,2.893219e+000
1.081777e+003,3.662140e+000
1.082741e+003,4.011444e+000
1.083706e+003,2.884369e+000
1.084670e+003,1.649292e+000
1.085634e+003,9.973450e-001
1.086598e+003,8.529663e-001
1.087563e+003,1.069611e+000
1.088527e+003,1.581726e+000
1.089491e+003,2.178741e+000
1.090455e+003,2.149902e+000
1.091420e+003,1.287201e+000
1.092384e+003,1.361938e+000
1.093348e+003,2.932281e+000
1.094312e+003,4.193695e+000
1.095276e+003,3.983246e+000
1.096241e+003,2.840637e+000
1.097205e+003,2.153351e+000
1.098169e+003,2.085541e+000
1.099133e+003,2.114044e+000
1.100098e+003,2.193390e+000
1.101062e+003,2.289886e+000
1.102026e+003,2.295929e+000
1.102990e+003,2.326233e+000
1.103955e+003,2.730927e+000
1.104919e+003,3.674011e+000
1.105883e+003,4.541534e+000
1.106847e+003,3.860657e+000
1.107812e+003,1.611572e+000
1.108776e+003,7.652893e-001
1.109740e+003,2.003632e+000
1.110704e+003,3.492615e+000
1.111668e+003,4.004669e+000
1.112633e+003,3.844025e+000
1.113597e+003,3.906769e+000
1.114561e+003,4.150635e+000
1.115525e+003,4.631042e+000
1.116490e+003,5.782379e+000
1.117454e+003,6.715302e+000
1.118418e+003,7.043945e+000
1.119382e+003,6.794922e+000
1.120347e+003,5.735321e+000
1.121311e+003,3.619202e+000
1.122275e+003,1.463409e+000
1.123239e+003,2.145599e+000
1.124203e+003,5.542480e+000
1.125168e+003,7.294647e+000
1.126132e+003,6.446228e+000
1.127096e+003,5.749176e+000
1.128060e+003,7.763550e+000
1.129025e+003,1.169040e+001
1.129989e+003,1.389059e+001
1.130953e+003,1.360120e+001
1.131917e+003,1.253018e+001
1.132882e+003,1.032465e+001
1.133846e+003,8.526947e+000
1.134810e+003,8.048706e+000
1.135774e+003,8.803650e+000
1.136739e+003,1.056125e+001
1.137703e+003,1.313748e+001
1.138667e+003,1.564114e+001
1.139631e+003,1.612860e+001
1.140595e+003,1.498923e+001
1.141560e+003,1.594852e+001
1.142524e+003,1.967230e+001
1.143488e+003,2.412756e+001
1.144452e+003,2.795230e+001
1.145417e+003,3.135980e+001
1.146381e+003,3.503180e+001
1.147345e+003,3.865933e+001
1.148309e+003,4.336273e+001
1.149274e+003,5.040033e+001
1.150238e+003,5.761996e+001
1.151202e+003,6.396353e+001
1.152166e+003,6.979279e+001
1.153130e+003,7.616110e+001
1.154095e+003,8.332785e+001
1.155059e+003,8.983093e+001
1.156023e+003,9.395288e+001
1.156987e+003,9.558301e+001
1.157952e+003,9.500195e+001
1.158916e+003,9.226416e+001
1.159880e+003,8.873297e+001
1.160844e+003,8.463770e+001
1.161809e+003,7.987445e+001
1.162773e+003,7.471652e+001
1.163737e+003,6.926285e+001
1.164701e+003,6.304684e+001
1.165666e+003,5.469821e+001
1.166630e+003,4.707990e+001
1.167594e+003,4.130618e+001
1.168558e+003,3.684741e+001
1.169522e+003,3.278836e+001
1.170487e+003,2.892694e+001
1.171451e+003,2.622104e+001
1.172415e+003,2.594931e+001
1.173379e+003,2.740579e+001
1.174344e+003,2.669095e+001
1.175308e+003,2.369418e+001
1.176272e+003,2.167963e+001
1.177236e+003,2.275305e+001
1.178201e+003,2.460303e+001
1.179165e+003,2.374936e+001
1.180129e+003,2.004645e+001
1.181093e+003,1.751450e+001
1.182057e+003,1.769904e+001
1.183022e+003,1.827948e+001
1.183986e+003,1.848669e+001
1.184950e+003,1.857227e+001
1.185914e+003,1.902554e+001
1.186879e+003,1.973941e+001
1.187843e+003,1.995047e+001
1.188807e+003,1.897556e+001
1.189771e+003,1.722949e+001
1.190736e+003,1.605005e+001
1.191700e+003,1.543594e+001
1.192664e+003,1.551285e+001
1.193628e+003,1.725394e+001
1.194593e+003,1.861627e+001
1.195557e+003,1.758090e+001
1.196521e+003,1.490909e+001
1.197485e+003,1.352518e+001
1.198449e+003,1.435266e+001
1.199414e+003,1.499243e+001
1.200378e+003,1.419678e+001
1.201342e+003,1.303021e+001
1.202306e+003,1.185858e+001
1.203271e+003,1.080716e+001
1.204235e+003,1.012473e+001
1.205199e+003,9.896179e+000
1.206163e+003,9.648285e+000
1.207128e+003,8.483032e+000
1.208092e+003,6.339478e+000
1.209056e+003,5.144440e+000
1.210020e+003,5.495758e+000
1.210984e+003,5.456848e+000
1.211949e+003,4.347961e+000
1.212913e+003,2.573334e+000
1.213877e+003,5.695801e-001
1.214841e+003,-1.570465e+000
1.215806e+003,-3.536255e+000
1.216770e+003,-5.257065e+000
1.217734e+003,-6.753815e+000
1.218698e+003,-8.153885e+000
1.219663e+003,-9.443222e+000
1.220627e+003,-1.050098e+001
1.221591e+003,-1.135912e+001
1.222555e+003,-1.235927e+001
1.223520e+003,-1.383046e+001
1.224484e+003,-1.537889e+001
1.225448e+003,-1.534671e+001
1.226412e+003,-1.239545e+001
1.227376e+003,-1.097346e+001
1.228341e+003,-1.235033e+001
1.229305e+003,-1.386201e+001
1.230269e+003,-1.407932e+001
1.231233e+003,-1.342053e+001
1.232198e+003,-1.283414e+001
1.233162e+003,-1.251622e+001
1.234126e+003,-1.189496e+001
1.235090e+003,-1.016516e+001
1.236055e+003,-8.516159e+000
1.237019e+003,-8.455978e+000
1.237983e+003,-9.512650e+000
1.238947e+003,-1.023082e+001
1.239911e+003,-9.942245e+000
1.240876e+003,-9.243027e+000
1.241840e+003,-9.011749e+000
1.242804e+003,-9.224213e+000
1.243768e+003,-1.014507e+001
1.244733e+003,-1.344527e+001
1.245697e+003,-1.513789e+001
1.246661e+003,-1.394714e+001
1.247625e+003,-1.218015e+001
1.248590e+003,-1.142821e+001
1.249554e+003,-1.149690e+001
1.250518e+003,-1.127797e+001
1.251482e+003,-1.028796e+001
1.252447e+003,-9.586258e+000
1.253411e+003,-1.098189e+001
1.254375e+003,-1.309923e+001
1.255339e+003,-1.284766e+001
1.256303e+003,-1.014462e+001
1.257268e+003,-7.455734e+000
1.258232e+003,-6.254623e+000
1.259196e+003,-6.092346e+000
1.260160e+003,-5.834213e+000
1.261125e+003,-5.274124e+000
1.262089e+003,-5.183502e+000
1.263053e+003,-6.780899e+000
1.264017e+003,-7.654449e+000
1.264982e+003,-6.553375e+000
1.265946e+003,-4.899048e+000
1.266910e+003,-3.939880e+000
1.267874e+003,-3.808182e+000
1.268839e+003,-3.961838e+000
1.269803e+003,-4.037109e+000
1.270767e+003,-4.219696e+000
1.271731e+003,-4.972656e+000
1.272695e+003,-6.194885e+000
1.273660e+003,-6.868729e+000
1.274624e+003,-7.115326e+000
1.275588e+003,-6.973740e+000
1.276552e+003,-5.738907e+000
1.277517e+003,-4.208679e+000
1.278481e+003,-4.134430e+000
1.279445e+003,-5.728836e+000
1.280409e+003,-7.684174e+000
1.281374e+003,-1.038860e+001
1.282338e+003,-1.217924e+001
1.283302e+003,-1.174109e+001
1.284266e+003,-1.033781e+001
1.285230e+003,-9.272507e+000
1.286195e+003,-8.842377e+000
1.287159e+003,-8.630646e+000
1.288123e+003,-8.245483e+000
1.289087e+003,-7.773697e+000
1.290052e+003,-7.722717e+000
1.291016e+003,-8.241760e+000
1.291980e+003,-9.112671e+000
1.292944e+003,-1.124269e+001
1.293909e+003,-1.276073e+001
1.294873e+003,-1.191533e+001
1.295837e+003,-1.041867e+001
1.296801e+003,-1.133327e+001
1.297766e+003,-1.476421e+001
1.298730e+003,-1.670340e+001
1.299694e+003,-1.453624e+001
1.300658e+003,-1.122711e+001
1.301622e+003,-9.583786e+000
1.302587e+003,-9.133636e+000
1.303551e+003,-9.774338e+000
1.304515e+003,-1.123207e+001
1.305479e+003,-1.180209e+001
1.306444e+003,-9.946442e+000
1.307408e+003,-6.618835e+000
1.308372e+003,-4.867264e+000
1.309336e+003,-4.999542e+000
1.310301e+003,-5.852188e+000
1.311265e+003,-8.072220e+000
1.312229e+003,-9.963181e+000
1.313193e+003,-1.137030e+001
1.314157e+003,-1.202298e+001
1.315122e+003,-1.092807e+001
1.316086e+003,-8.698700e+000
1.317050e+003,-7.973236e+000
1.318014e+003,-1.056857e+001
1.318979e+003,-1.425015e+001
1.319943e+003,-1.504942e+001
1.320907e+003,-1.316747e+001
1.321871e+003,-1.147903e+001
1.322836e+003,-1.027100e+001
1.323800e+003,-9.194534e+000
1.324764e+003,-7.582901e+000
1.325728e+003,-6.181625e+000
1.326693e+003,-6.873581e+000
1.327657e+003,-9.825562e+000
1.328621e+003,-1.129535e+001
1.329585e+003,-9.116669e+000
1.330549e+003,-6.581665e+000
1.331514e+003,-5.631378e+000
1.332478e+003,-5.519318e+000
1.333442e+003,-5.331741e+000
1.334406e+003,-5.105530e+000
1.335371e+003,-5.802460e+000
1.336335e+003,-7.938522e+000
1.337299e+003,-1.024113e+001
1.338263e+003,-1.022372e+001
1.339228e+003,-7.499313e+000
1.340192e+003,-6.051880e+000
1.341156e+003,-6.495117e+000
1.342120e+003,-7.211899e+000
1.343084e+003,-8.717712e+000
1.344049e+003,-9.985184e+000
1.345013e+003,-9.629501e+000
1.345977e+003,-8.144867e+000
1.346941e+003,-7.513992e+000
1.347906e+003,-8.522919e+000
1.348870e+003,-9.405991e+000
1.349834e+003,-8.239914e+000
1.350798e+003,-6.206726e+000
1.351763e+003,-5.514725e+000
1.352727e+003,-5.946884e+000
1.353691e+003,-6.258072e+000
1.354655e+003,-5.846939e+000
1.355620e+003,-5.641159e+000
1.356584e+003,-7.407196e+000
1.357548e+003,-1.066589e+001
1.358512e+003,-1.100552e+001
1.359476e+003,-6.711426e+000
1.360441e+003,-4.060425e+000
1.361405e+003,-6.313461e+000
1.362369e+003,-8.586304e+000
1.363333e+003,-7.835693e+000
1.364298e+003,-5.901352e+000
1.365262e+003,-6.003372e+000
1.366226e+003,-8.528580e+000
1.367190e+003,-1.067165e+001
1.368155e+003,-9.902222e+000
1.369119e+003,-7.293594e+000
1.370083e+003,-6.198822e+000
1.371047e+003,-6.942291e+000
1.372011e+003,-7.749542e+000
1.372976e+003,-9.109482e+000
1.373940e+003,-1.016461e+001
1.374904e+003,-1.071265e+001
1.375868e+003,-1.060698e+001
1.376833e+003,-9.437149e+000
1.377797e+003,-7.389771e+000
1.378761e+003,-5.453354e+000
1.379725e+003,-3.867691e+000
1.380690e+003,-2.959152e+000
1.381654e+003,-3.455795e+000
1.382618e+003,-4.619141e+000
1.383582e+003,-5.814880e+000
1.384547e+003,-6.843903e+000
1.385511e+003,-6.815582e+000
1.386475e+003,-5.074112e+000
1.387439e+003,-2.990372e+000
1.388403e+003,-2.796188e+000
1.389368e+003,-4.498199e+000
1.390332e+003,-5.777542e+000
1.391296e+003,-6.479523e+000
1.392260e+003,-6.748199e+000
1.393225e+003,-6.518875e+000
1.394189e+003,-6.098450e+000
1.395153e+003,-5.493713e+000
1.396117e+003,-4.875626e+000
1.397082e+003,-4.354828e+000
1.398046e+003,-4.003326e+000
1.399010e+003,-4.070831e+000
1.399974e+003,-4.889771e+000
1.400938e+003,-6.241592e+000
1.401903e+003,-7.075851e+000
1.402867e+003,-7.140900e+000
1.403831e+003,-5.916550e+000
1.404795e+003,-1.547501e+000
1.405760e+003,1.266373e+000
1.406724e+003,-8.011627e-001
1.407688e+003,-4.499344e+000
1.408652e+003,-5.680695e+000
1.409617e+003,-4.267181e+000
1.410581e+003,-2.782104e+000
1.411545e+003,-2.183823e+000
1.412509e+003,-1.914581e+000
1.413474e+003,-1.344666e+000
1.414438e+003,-1.096359e+000
1.415402e+003,-2.414337e+000
1.416366e+003,-4.820084e+000
1.417330e+003,-5.915436e+000
1.418295e+003,-4.524429e+000
1.419259e+003,-2.435226e+000
1.420223e+003,-1.980331e+000
1.421187e+003,-2.873993e+000
1.422152e+003,-2.621277e+000
1.423116e+003,-4.714813e-001
1.424080e+003,1.001129e+000
1.425044e+003,3.468323e-002
1.426009e+003,-8.671570e-001
1.426973e+003,-2.767792e-001
1.427937e+003,6.976624e-001
1.428901e+003,6.833954e-001
1.429865e+003,-3.282471e-001
1.430830e+003,-1.540192e+000
1.431794e+003,-2.462875e+000
1.432758e+003,-2.987152e+000
1.433722e+003,-2.709396e+000
1.434687e+003,-1.396057e+000
1.435651e+003,1.716461e-001
1.436615e+003,2.478424e+000
1.437579e+003,3.433197e+000
1.438544e+003,1.558212e+000
1.439508e+003,-2.906036e-001
1.440472e+003,7.167816e-001
1.441436e+003,2.987854e+000
1.442401e+003,2.683990e+000
1.443365e+003,-8.612213e-001
1.444329e+003,-3.904892e+000
1.445293e+003,-3.589203e+000
1.446257e+003,-1.299713e+000
1.447222e+003,8.524323e-001
1.448186e+003,2.687103e+000
1.449150e+003,2.893600e+000
1.450114e+003,8.852081e-001
1.451079e+003,-9.995880e-001
1.452043e+003,-1.346313e+000
1.453007e+003,-8.933105e-001
1.453971e+003,-5.755005e-001
1.454936e+003,-4.875183e-001
1.455900e+003,-9.102173e-001
1.456864e+003,-2.124832e+000
1.457828e+003,-2.812210e+000
1.458792e+003,-1.663986e+000
1.459757e+003,-3.282318e-001
1.460721e+003,-3.197327e-001
1.461685e+003,-1.111969e+000
1.462649e+003,-1.500687e+000
1.463614e+003,-1.123978e+000
1.464578e+003,-4.424744e-001
1.465542e+003,1.348114e-001
1.466506e+003,5.440521e-001
1.467471e+003,6.516724e-001
1.468435e+003,4.366760e-001
1.469399e+003,8.178864e-001
1.470363e+003,2.673676e+000
1.471328e+003,3.584793e+000
1.472292e+003,2.019043e+000
1.473256e+003,6.347656e-002
1.474220e+003,-7.212830e-001
1.475184e+003,-4.365997e-001
1.476149e+003,1.615143e-001
1.477113e+003,7.481842e-001
1.478077e+003,1.822266e+000
1.479041e+003,4.034668e+000
1.480006e+003,6.660461e+000
1.480970e+003,6.864288e+000
1.481934e+003,3.630447e+000
1.482898e+003,1.654251e+000
1.483863e+003,1.196320e+000
1.484827e+003,1.419189e+000
1.485791e+003,2.589828e+000
1.486755e+003,4.155624e+000
1.487719e+003,5.627457e+000
1.488684e+003,6.917831e+000
1.489648e+003,8.312195e+000
1.490612e+003,9.926453e+000
1.491576e+003,1.071710e+001
1.492541e+003,9.317123e+000
1.493505e+003,7.255173e+000
1.494469e+003,8.227325e+000
1.495433e+003,1.160709e+001
1.496398e+003,1.485565e+001
1.497362e+003,1.823088e+001
1.498326e+003,2.043785e+001
1.499290e+003,1.951988e+001
1.500255e+003,1.791022e+001
1.501219e+003,1.927780e+001
1.502183e+003,2.307217e+001
1.503147e+003,2.570686e+001
1.504111e+003,2.615114e+001
1.505076e+003,2.665967e+001
1.506040e+003,2.808487e+001
1.507004e+003,3.075974e+001
1.507968e+003,3.540295e+001
1.508933e+003,4.124599e+001
1.509897e+003,4.689378e+001
1.510861e+003,5.221997e+001
1.511825e+003,5.729895e+001
1.512790e+003,6.176346e+001
1.513754e+003,6.630370e+001
1.514718e+003,7.249440e+001
1.515682e+003,8.021663e+001
1.516646e+003,8.850305e+001
1.517611e+003,9.811035e+001
1.518575e+003,1.066762e+002
1.519539e+003,1.129335e+002
1.520503e+003,1.187679e+002
1.521468e+003,1.263051e+002
1.522432e+003,1.333172e+002
1.523396e+003,1.366669e+002
1.524360e+003,1.360527e+002
1.525325e+003,1.332422e+002
1.526289e+003,1.294449e+002
1.527253e+003,1.249528e+002
1.528217e+003,1.202369e+002
1.529182e+003,1.154084e+002
1.530146e+003,1.097266e+002
1.531110e+003,1.028152e+002
1.532074e+003,9.548422e+001
1.533039e+003,8.772708e+001
1.534003e+003,7.911163e+001
1.534967e+003,6.898822e+001
1.535931e+003,5.875288e+001
1.536896e+003,4.981328e+001
1.537860e+003,4.228415e+001
1.538824e+003,3.529416e+001
1.539788e+003,2.838330e+001
1.540752e+003,2.245271e+001
1.541717e+003,1.884636e+001
1.542681e+003,1.724352e+001
1.543645e+003,1.501233e+001
1.544609e+003,1.141043e+001
1.545573e+003,9.581818e+000
1.546538e+003,1.058299e+001
1.547502e+003,1.151994e+001
1.548466e+003,1.151068e+001
1.549430e+003,1.115552e+001
1.550395e+003,1.075763e+001
1.551359e+003,1.045897e+001
1.552323e+003,1.078581e+001
1.553287e+003,1.185664e+001
1.554252e+003,1.255280e+001
1.555216e+003,1.187381e+001
1.556180e+003,1.014374e+001
1.557144e+003,7.900284e+000
1.558109e+003,5.185806e+000
1.559073e+003,3.237076e+000
1.560037e+003,1.978775e+000
1.561001e+003,1.287003e+000
1.561966e+003,1.817749e+000
1.562930e+003,2.599319e+000
1.563894e+003,2.312668e+000
1.564858e+003,1.492004e+000
1.565823e+003,1.847733e+000
1.566787e+003,3.603027e+000
1.567751e+003,4.890976e+000
1.568715e+003,4.534897e+000
1.569679e+003,3.877365e+000
1.570644e+003,4.929199e+000
1.571608e+003,6.743652e+000
1.572572e+003,6.571686e+000
1.573536e+003,4.368942e+000
1.574500e+003,2.860458e+000
1.575465e+003,2.961411e+000
1.576429e+003,3.857529e+000
1.577393e+003,5.322540e+000
1.578357e+003,6.863297e+000
1.579322e+003,7.504288e+000
1.580286e+003,7.282913e+000
1.581250e+003,7.071899e+000
1.582214e+003,7.086334e+000
1.583179e+003,7.319366e+000
1.584143e+003,7.686203e+000
1.585107e+003,8.220901e+000
1.586071e+003,9.764343e+000
1.587036e+003,1.175052e+001
1.588000e+003,1.149402e+001
1.588964e+003,8.151871e+000
1.589928e+003,5.278519e+000
1.590893e+003,5.400070e+000
1.591857e+003,7.184601e+000
1.592821e+003,9.009003e+000
1.593785e+003,1.080597e+001
1.594750e+003,1.209120e+001
1.595714e+003,1.276164e+001
1.596678e+003,1.274158e+001
1.597642e+003,1.158093e+001
1.598606e+003,1.036847e+001
1.599571e+003,9.618698e+000
1.600535e+003,9.608261e+000
1.601499e+003,1.151131e+001
1.602463e+003,1.466650e+001
1.603427e+003,1.565421e+001
1.604392e+003,1.283249e+001
1.605356e+003,9.695633e+000
1.606320e+003,1.007640e+001
1.607284e+003,1.278973e+001
1.608249e+003,1.453067e+001
1.609213e+003,1.527158e+001
1.610177e+003,1.566339e+001
1.611141e+003,1.585033e+001
1.612106e+003,1.561278e+001
1.613070e+003,1.463638e+001
1.614034e+003,1.333188e+001
1.614998e+003,1.158481e+001
1.615963e+003,9.893570e+000
1.616927e+003,8.962112e+000
1.617891e+003,8.902573e+000
1.618855e+003,9.769897e+000
1.619820e+003,1.175098e+001
1.620784e+003,1.348376e+001
1.621748e+003,1.293767e+001
1.622712e+003,1.069609e+001
1.623677e+003,9.268341e+000
1.624641e+003,8.776733e+000
1.625605e+003,8.526947e+000
1.626569e+003,7.649002e+000
1.627533e+003,7.593735e+000
1.628498e+003,1.025923e+001
1.629462e+003,1.324179e+001
1.630426e+003,1.414139e+001
1.631390e+003,1.374863e+001
1.632354e+003,1.426711e+001
1.633319e+003,1.612236e+001
1.634283e+003,1.767490e+001
1.635247e+003,1.768451e+001
1.636211e+003,1.670844e+001
1.637176e+003,1.561276e+001
1.638140e+003,1.449431e+001
1.639104e+003,1.384526e+001
1.640068e+003,1.353357e+001
1.641033e+003,1.408029e+001
1.641997e+003,1.681839e+001
1.642961e+003,1.885023e+001
1.643925e+003,1.846153e+001
1.644890e+003,1.697609e+001
1.645854e+003,1.512766e+001
1.646818e+003,1.337762e+001
1.647782e+003,1.265039e+001
1.648747e+003,1.313911e+001
1.649711e+003,1.370662e+001
1.650675e+003,1.346381e+001
1.651639e+003,1.284528e+001
1.652604e+003,1.260858e+001
1.653568e+003,1.266457e+001
1.654532e+003,1.237917e+001
1.655496e+003,1.142213e+001
1.656460e+003,1.126837e+001
1.657425e+003,1.357379e+001
1.658389e+003,1.518808e+001
1.659353e+003,1.355501e+001
1.660317e+003,1.105418e+001
1.661281e+003,1.012299e+001
1.662246e+003,1.060648e+001
1.663210e+003,1.159204e+001
1.664174e+003,1.275887e+001
1.665138e+003,1.325746e+001
1.666103e+003,1.194099e+001
1.667067e+003,1.003207e+001
1.668031e+003,1.064148e+001
1.668995e+003,1.351199e+001
1.669960e+003,1.411705e+001
1.670924e+003,1.154582e+001
1.671888e+003,9.367249e+000
1.672852e+003,8.556885e+000
1.673817e+003,8.432556e+000
1.674781e+003,8.863037e+000
1.675745e+003,9.452408e+000
1.676709e+003,9.923264e+000
1.677674e+003,1.014362e+001
1.678638e+003,9.861359e+000
1.679602e+003,9.003448e+000
1.680566e+003,7.720963e+000
1.681531e+003,6.035355e+000
1.682495e+003,4.286575e+000
1.683459e+003,2.503143e+000
1.684423e+003,8.688354e-001
1.685387e+003,1.475708e+000
1.686352e+003,4.938461e+000
1.687316e+003,7.434006e+000
1.688280e+003,7.490173e+000
1.689244e+003,6.792419e+000
1.690208e+003,6.594971e+000
1.691173e+003,6.197281e+000
1.692137e+003,4.107849e+000
1.693101e+003,1.284409e+000
1.694065e+003,1.003723e+000
1.695030e+003,4.069992e+000
1.695994e+003,6.427780e+000
1.696958e+003,4.973557e+000
1.697922e+003,2.415604e+000
1.698887e+003,2.388412e+000
1.699851e+003,4.018814e+000
1.700815e+003,4.371857e+000
1.701779e+003,3.171249e+000
1.702744e+003,2.385605e+000
1.703708e+003,2.834946e+000
1.704672e+003,3.580612e+000
1.705636e+003,3.966095e+000
1.706601e+003,3.899017e+000
1.707565e+003,3.347046e+000
1.708529e+003,2.511383e+000
1.709493e+003,1.512512e+000
1.710458e+003,2.082520e-001
1.711422e+003,3.494263e-002
1.712386e+003,2.799881e+000
1.713350e+003,5.629501e+000
1.714314e+003,5.933914e+000
1.715279e+003,4.761993e+000
1.716243e+003,3.650238e+000
1.717207e+003,2.877808e+000
1.718171e+003,3.093872e+000
1.719135e+003,4.500900e+000
1.720100e+003,5.218338e+000
1.721064e+003,3.739502e+000
1.722028e+003,1.503387e+000
1.722992e+003,6.726074e-001
1.723957e+003,1.126541e+000
1.724921e+003,1.450378e+000
1.725885e+003,1.448151e+000
1.726849e+003,1.256302e+000
1.727814e+003,8.117065e-001
1.728778e+003,7.428741e-001
1.729742e+003,1.594528e+000
1.730706e+003,2.607178e+000
1.731671e+003,2.958191e+000
1.732635e+003,2.685959e+000
1.733599e+003,2.290741e+000
1.734563e+003,1.959579e+000
1.735528e+003,1.445480e+000
1.736492e+003,5.594635e-001
1.737456e+003,-6.224213e-001
1.738420e+003,-2.131332e+000
1.739385e+003,-3.652542e+000
1.740349e+003,-3.550964e+000
1.741313e+003,-1.188568e+000
1.742277e+003,-1.205444e-003
1.743241e+003,-1.035370e+000
1.744206e+003,-1.331100e+000
1.745170e+003,4.122162e-001
1.746134e+003,1.768692e+000
1.747098e+003,7.336273e-001
1.748063e+003,-9.340515e-001
1.749027e+003,-7.639923e-001
1.749991e+003,6.810150e-001
1.750955e+003,7.652740e-001
1.751919e+003,-1.129318e+000
1.752884e+003,-2.390579e+000
1.753848e+003,-8.217468e-001
1.754812e+003,1.885696e+000
1.755776e+003,2.388702e+000
1.756741e+003,8.568268e-001
1.757705e+003,-7.940674e-001
1.758669e+003,-3.070801e+000
1.759633e+003,-4.240555e+000
1.760598e+003,-3.463028e+000
1.761562e+003,-2.670868e+000
1.762526e+003,-2.299454e+000
1.763490e+003,-2.033218e+000
1.764455e+003,-1.663925e+000
1.765419e+003,-1.198608e+000
1.766383e+003,-6.450195e-001
1.767347e+003,-1.490021e-001
1.768312e+003,-1.145630e-001
1.769276e+003,-7.777100e-001
1.770240e+003,-1.440475e+000
1.771204e+003,-1.055817e+000
1.772168e+003,-1.138306e-001
1.773133e+003,-1.651154e-001
1.774097e+003,-1.074265e+000
1.775061e+003,-1.335953e+000
1.776025e+003,-8.254852e-001
1.776990e+003,-4.530640e-001
1.777954e+003,-3.994141e-001
1.778918e+003,-4.122009e-001
1.779882e+003,-5.124969e-001
1.780846e+003,-6.398621e-001
1.781811e+003,-5.605469e-001
1.782775e+003,-3.020020e-001
1.783739e+003,-3.970337e-002
1.784703e+003,2.470245e-001
1.785668e+003,5.066223e-001
1.786632e+003,8.257599e-001
1.787596e+003,6.702118e-001
1.788560e+003,-3.329926e-001
1.789525e+003,-1.741486e+000
1.790489e+003,-3.662277e+000
1.791453e+003,-5.572983e+000
1.792417e+003,-5.608734e+000
1.793382e+003,-3.563904e+000
1.794346e+003,-1.500305e+000
1.795310e+003,-4.886780e-001
1.796274e+003,-3.111267e-001
1.797239e+003,-7.743835e-001
1.798203e+003,-1.429871e+000
1.799167e+003,-1.186172e+000
1.800131e+003,2.136230e-002
1.801095e+003,-4.440308e-002
1.802060e+003,-2.350296e+000
1.803024e+003,-3.787399e+000
1.803988e+003,-3.604004e+000
1.804952e+003,-3.228317e+000
1.805917e+003,-3.198288e+000
1.806881e+003,-3.422913e+000
1.807845e+003,-4.077835e+000
1.808809e+003,-4.678558e+000
1.809773e+003,-4.329803e+000
1.810738e+003,-2.941528e+000
1.811702e+003,-1.252289e+000
1.812666e+003,2.606506e-001
1.813630e+003,1.840988e+000
1.814595e+003,3.991470e+000
1.815559e+003,6.224472e+000
1.816523e+003,6.672623e+000
1.817487e+003,5.318970e+000
1.818452e+003,2.382248e+000
1.819416e+003,-3.296265e+000
1.820380e+003,-6.778625e+000
1.821344e+003,-5.941849e+000
1.822309e+003,-3.964111e+000
1.823273e+003,-1.698593e+000
1.824237e+003,1.238251e-001
1.825201e+003,2.999420e-001
1.826166e+003,-6.390228e-001
1.827130e+003,-1.189865e+000
1.828094e+003,-1.131302e+000
1.829058e+003,-9.971161e-001
1.830022e+003,-8.218231e-001
1.830987e+003,-8.977814e-001
1.831951e+003,-1.940750e+000
1.832915e+003,-3.035385e+000
1.833879e+003,-2.538605e+000
1.834844e+003,-9.882813e-001
1.835808e+003,-2.062988e-001
1.836772e+003,-4.059906e-001
1.837736e+003,-5.535278e-001
1.838700e+003,-2.508392e-001
1.839665e+003,-3.314209e-002
1.840629e+003,-3.416901e-001
1.841593e+003,-9.960938e-001
1.842557e+003,-1.816391e+000
1.843522e+003,-2.795105e+000
1.844486e+003,-2.851364e+000
1.845450e+003,-1.202133e+000
1.846414e+003,1.757050e-001
1.847379e+003,1.514709e+000
1.848343e+003,1.856659e+000
1.849307e+003,-3.030090e-001
1.850271e+003,-2.140961e+000
1.851236e+003,-7.101898e-001
1.852200e+003,1.840591e+000
1.853164e+003,1.878632e+000
1.854128e+003,-2.749329e-001
1.855093e+003,-1.437271e+000
1.856057e+003,-4.013977e-001
1.857021e+003,8.918762e-001
1.857985e+003,7.601318e-001
1.858949e+003,-1.195984e-001
1.859914e+003,-6.831970e-001
1.860878e+003,-8.958130e-001
1.861842e+003,-7.065735e-001
1.862806e+003,-1.496124e-001
1.863771e+003,6.421204e-001
1.864735e+003,1.841400e+000
1.865699e+003,2.032928e+000
1.866663e+003,8.940125e-002
1.867627e+003,-1.848923e+000
1.868592e+003,-1.874664e+000
1.869556e+003,-8.808594e-001
1.870520e+003,-2.555237e-001
1.871484e+003,1.634216e-002
1.872449e+003,1.438904e-002
1.873413e+003,-1.908722e-001
1.874377e+003,4.290161e-001
1.875341e+003,2.766891e+000
1.876306e+003,4.644730e+000
1.877270e+003,4.318420e+000
1.878234e+003,3.434891e+000
1.879198e+003,3.863297e+000
1.880163e+003,4.992950e+000
1.881127e+003,5.622604e+000
1.882091e+003,5.513351e+000
1.883055e+003,4.658035e+000
1.884020e+003,3.163254e+000
1.884984e+003,1.884064e+000
1.885948e+003,1.617447e+000
1.886912e+003,1.851395e+000
1.887876e+003,1.505447e+000
1.888841e+003,6.921082e-001
1.889805e+003,6.978302e-001
1.890769e+003,1.646439e+000
1.891733e+003,2.859863e+000
1.892698e+003,4.681427e+000
1.893662e+003,5.498108e+000
1.894626e+003,3.952515e+000
1.895590e+003,2.389313e+000
1.896554e+003,2.782211e+000
1.897519e+003,3.906097e+000
1.898483e+003,4.426346e+000
1.899447e+003,4.202347e+000
1.900411e+003,3.062485e+000
1.901376e+003,9.177856e-001
1.902340e+003,-2.347107e-001
1.903304e+003,1.021027e+000
1.904268e+003,2.341629e+000
1.905233e+003,2.205307e+000
1.906197e+003,1.627289e+000
1.907161e+003,1.518143e+000
1.908125e+003,1.859192e+000
1.909090e+003,2.576202e+000
1.910054e+003,3.416473e+000
1.911018e+003,3.794388e+000
1.911982e+003,3.641830e+000
1.912947e+003,3.561768e+000
1.913911e+003,3.961792e+000
1.914875e+003,5.050659e+000
1.915839e+003,7.323593e+000
1.916803e+003,1.011377e+001
1.917768e+003,1.021797e+001
1.918732e+003,7.175049e+000
1.919696e+003,5.012253e+000
1.920660e+003,3.988556e+000
1.921625e+003,3.540939e+000
1.922589e+003,4.018143e+000
1.923553e+003,4.128387e+000
1.924517e+003,2.376999e+000
1.925481e+003,7.318726e-001
1.926446e+003,1.237335e+000
1.927410e+003,2.992004e+000
1.928374e+003,4.428024e+000
1.929338e+003,5.269684e+000
1.930303e+003,4.929291e+000
1.931267e+003,2.807343e+000
1.932231e+003,1.535767e+000
1.933195e+003,2.595291e+000
1.934160e+003,4.289917e+000
1.935124e+003,5.613556e+000
1.936088e+003,6.622467e+000
1.937052e+003,7.962234e+000
1.938017e+003,9.089096e+000
1.938981e+003,8.134323e+000
1.939945e+003,5.413544e+000
1.940909e+003,3.900177e+000
1.941874e+003,4.761124e+000
1.942838e+003,5.424484e+000
1.943802e+003,3.511887e+000
1.944766e+003,7.003479e-001
1.945730e+003,1.245575e-001
1.946695e+003,1.485413e+000
1.947659e+003,3.250229e+000
1.948623e+003,5.533279e+000
1.949587e+003,6.506210e+000
1.950552e+003,5.757690e+000
1.951516e+003,4.815720e+000
1.952480e+003,3.958923e+000
1.953444e+003,3.469833e+000
1.954408e+003,3.431763e+000
1.955373e+003,3.844910e+000
1.956337e+003,5.457993e+000
1.957301e+003,7.734894e+000
1.958265e+003,8.124985e+000
1.959230e+003,6.318817e+000
1.960194e+003,4.949936e+000
1.961158e+003,3.621277e+000
1.962122e+003,3.519730e+000
1.963087e+003,6.527237e+000
1.964051e+003,8.989914e+000
1.965015e+003,8.426407e+000
1.965979e+003,6.872223e+000
1.966944e+003,5.762329e+000
1.967908e+003,5.441513e+000
1.968872e+003,6.740082e+000
1.969836e+003,9.094757e+000
1.970801e+003,1.004683e+001
1.971765e+003,8.649414e+000
1.972729e+003,6.825668e+000
1.973693e+003,6.050888e+000
1.974657e+003,6.131226e+000
1.975622e+003,7.164749e+000
1.976586e+003,8.606934e+000
1.977550e+003,9.037140e+000
1.978514e+003,8.624588e+000
1.979479e+003,8.148453e+000
1.980443e+003,7.739548e+000
1.981407e+003,7.979294e+000
1.982371e+003,9.187958e+000
1.983335e+003,9.880081e+000
1.984300e+003,8.699966e+000
1.985264e+003,7.234177e+000
1.986228e+003,8.253479e+000
1.987192e+003,1.091679e+001
1.988157e+003,1.065550e+001
1.989121e+003,6.475876e+000
1.990085e+003,4.854599e+000
1.991049e+003,7.650467e+000
1.992014e+003,9.376526e+000
1.992978e+003,8.444351e+000
1.993942e+003,7.512848e+000
1.994906e+003,7.725952e+000
1.995871e+003,8.026459e+000
1.996835e+003,7.249146e+000
1.997799e+003,6.375610e+000
1.998763e+003,7.059036e+000
1.999728e+003,8.941254e+000
