5.003444e+002,1.994335e+002
5.013087e+002,1.968040e+002
5.022729e+002,1.902286e+002
5.032371e+002,1.821467e+002
5.042014e+002,1.775104e+002
5.051656e+002,1.760426e+002
5.061298e+002,1.757876e+002
5.070941e+002,1.747634e+002
5.080583e+002,1.721189e+002
5.090225e+002,1.710720e+002
5.099868e+002,1.731864e+002
5.109510e+002,1.747101e+002
5.119152e+002,1.735752e+002
5.128795e+002,1.696155e+002
5.138437e+002,1.655470e+002
5.148079e+002,1.619705e+002
5.157722e+002,1.591731e+002
5.167364e+002,1.575311e+002
5.177006e+002,1.565310e+002
5.186649e+002,1.548257e+002
5.196291e+002,1.510083e+002
5.205933e+002,1.470918e+002
5.215576e+002,1.435143e+002
5.225218e+002,1.400348e+002
5.234860e+002,1.372415e+002
5.244503e+002,1.371676e+002
5.254145e+002,1.420551e+002
5.263787e+002,1.452296e+002
5.273430e+002,1.465944e+002
5.283072e+002,1.463755e+002
5.292714e+002,1.442621e+002
5.302357e+002,1.378732e+002
5.311999e+002,1.319696e+002
5.321641e+002,1.285880e+002
5.331284e+002,1.265743e+002
5.340926e+002,1.244144e+002
5.350568e+002,1.210574e+002
5.360211e+002,1.179185e+002
5.369853e+002,1.186766e+002
5.379495e+002,1.205502e+002
5.389138e+002,1.207416e+002
5.398780e+002,1.181255e+002
5.408422e+002,1.137775e+002
5.418065e+002,1.109692e+002
5.427707e+002,1.094526e+002
5.437349e+002,1.074264e+002
5.446992e+002,1.039580e+002
5.456634e+002,9.972241e+001
5.466276e+002,9.742041e+001
5.475919e+002,9.988965e+001
5.485561e+002,1.016171e+002
5.495203e+002,1.028368e+002
5.504846e+002,1.024152e+002
5.514488e+002,9.838550e+001
5.524130e+002,8.818457e+001
5.533773e+002,7.992810e+001
5.543415e+002,7.798376e+001
5.553057e+002,7.942554e+001
5.562700e+002,8.163403e+001
5.572342e+002,8.286731e+001
5.581984e+002,8.295178e+001
5.591627e+002,8.206824e+001
5.601269e+002,8.084375e+001
5.610911e+002,7.934985e+001
5.620554e+002,7.738672e+001
5.630196e+002,7.464575e+001
5.639838e+002,7.105139e+001
5.649481e+002,6.540564e+001
5.659123e+002,6.073303e+001
5.668765e+002,5.880164e+001
5.678408e+002,5.931079e+001
5.688050e+002,6.018665e+001
5.697692e+002,6.004810e+001
5.707335e+002,5.897925e+001
5.716977e+002,5.714124e+001
5.726619e+002,5.504260e+001
5.736262e+002,5.341187e+001
5.745904e+002,5.295691e+001
5.755546e+002,5.295740e+001
5.765189e+002,5.052393e+001
5.774831e+002,4.665857e+001
5.784473e+002,4.475183e+001
5.794116e+002,4.741113e+001
5.803758e+002,5.440771e+001
5.813400e+002,5.554565e+001
5.823043e+002,4.811938e+001
5.832685e+002,4.086670e+001
5.842327e+002,3.724402e+001
5.851970e+002,3.737976e+001
5.861612e+002,3.886829e+001
5.871254e+002,4.311694e+001
5.880897e+002,4.567407e+001
5.890539e+002,4.424243e+001
5.900181e+002,4.038074e+001
5.909824e+002,3.694873e+001
5.919466e+002,3.605505e+001
5.929108e+002,3.627014e+001
5.938751e+002,3.604285e+001
5.948393e+002,3.544629e+001
5.958035e+002,3.476233e+001
5.967678e+002,3.429602e+001
5.977320e+002,3.420911e+001
5.986962e+002,3.304773e+001
5.996605e+002,2.996228e+001
6.006247e+002,2.667676e+001
6.015889e+002,2.359192e+001
6.025532e+002,2.089429e+001
6.035174e+002,1.979980e+001
6.044816e+002,2.240125e+001
6.054459e+002,2.477795e+001
6.064101e+002,2.666089e+001
6.073743e+002,2.781836e+001
6.083386e+002,2.791260e+001
6.093028e+002,2.634607e+001
6.102670e+002,2.500903e+001
6.112313e+002,2.560413e+001
6.121955e+002,2.695422e+001
6.131597e+002,2.714844e+001
6.141240e+002,2.491882e+001
6.150882e+002,2.132068e+001
6.160524e+002,2.282690e+001
6.170167e+002,2.885181e+001
6.179809e+002,3.242664e+001
6.189451e+002,2.891138e+001
6.199094e+002,1.924744e+001
6.208736e+002,1.358887e+001
6.218378e+002,1.759802e+001
6.228021e+002,2.106323e+001
6.237663e+002,2.375293e+001
6.247305e+002,2.548035e+001
6.256948e+002,2.555273e+001
6.266590e+002,2.231628e+001
6.276232e+002,1.855066e+001
6.285875e+002,1.692700e+001
6.295517e+002,1.645483e+001
6.305159e+002,1.561157e+001
6.314802e+002,1.342627e+001
6.324444e+002,1.055457e+001
6.334086e+002,1.056970e+001
6.343729e+002,1.297839e+001
6.353371e+002,1.480188e+001
6.363013e+002,1.470056e+001
6.372656e+002,1.303564e+001
6.382298e+002,1.174329e+001
6.391940e+002,1.076123e+001
6.401583e+002,9.771118e+000
6.411225e+002,1.034204e+001
6.420867e+002,1.168286e+001
6.430510e+002,1.215076e+001
6.440152e+002,1.036951e+001
6.449794e+002,8.156128e+000
6.459437e+002,6.657837e+000
6.469079e+002,5.175537e+000
6.478721e+002,3.210449e+000
6.488364e+002,8.348389e-001
6.498006e+002,-1.171021e+000
6.507648e+002,-1.861816e+000
6.517291e+002,-1.599243e+000
6.526933e+002,-2.144775e-001
6.536575e+002,2.377686e+000
6.546218e+002,5.131836e+000
6.555860e+002,6.129883e+000
6.565502e+002,4.822754e+000
6.575145e+002,2.125366e+000
6.584787e+002,-3.229248e+000
6.594429e+002,-8.661133e+000
6.604072e+002,-1.235144e+001
6.613714e+002,-1.403589e+001
6.623356e+002,-1.397522e+001
6.632999e+002,-1.150037e+001
6.642641e+002,-9.009155e+000
6.652283e+002,-6.603882e+000
6.661926e+002,-4.468750e+000
6.671568e+002,-3.330200e+000
6.681210e+002,-5.122559e+000
6.690853e+002,-8.619263e+000
6.700495e+002,-9.479614e+000
6.710137e+002,-7.711914e+000
6.719780e+002,-5.119751e+000
6.729422e+002,-3.622681e+000
6.739064e+002,-3.543579e+000
6.748707e+002,-4.611938e+000
6.758349e+002,-7.969116e+000
6.767991e+002,-1.112134e+001
6.777634e+002,-1.236719e+001
6.787276e+002,-1.140869e+001
6.796918e+002,-9.640747e+000
6.806561e+002,-7.871948e+000
6.816203e+002,-6.427734e+000
6.825845e+002,-5.432983e+000
6.835488e+002,-4.783813e+000
6.845130e+002,-4.286255e+000
6.854772e+002,-3.683960e+000
6.864415e+002,-2.465088e+000
6.874057e+002,-1.440430e-001
6.883699e+002,2.003662e+000
6.893342e+002,2.136108e+000
6.902984e+002,-7.668457e-001
6.912626e+002,-5.787109e+000
6.922269e+002,-8.136353e+000
6.931911e+002,-3.843994e+000
6.941553e+002,-1.250000e-001
6.951196e+002,9.777832e-001
6.960838e+002,4.323730e-001
6.970480e+002,4.783936e-001
6.980123e+002,2.409058e+000
6.989765e+002,3.776611e+000
6.999407e+002,3.318481e+000
7.009050e+002,1.987305e+000
7.018692e+002,2.004395e-001
7.028334e+002,-1.834717e+000
7.037977e+002,-3.876709e+000
7.047619e+002,-4.877563e+000
7.057261e+002,-4.833008e+000
7.066904e+002,-5.204712e+000
7.076546e+002,-6.260620e+000
7.086188e+002,-6.763550e+000
7.095831e+002,-4.528320e+000
7.105473e+002,1.894165e+000
7.115115e+002,4.923828e+000
7.124758e+002,2.757202e+000
7.134400e+002,-6.854248e-001
7.144042e+002,-2.817139e+000
7.153685e+002,-3.263794e+000
7.163327e+002,-3.820679e+000
7.172969e+002,-6.498901e+000
7.182612e+002,-8.073120e+000
7.192254e+002,-6.325684e+000
7.201896e+002,-2.817017e+000
7.211539e+002,-1.111450e+000
7.221181e+002,-4.556274e+000
7.230823e+002,-9.680786e+000
7.240466e+002,-5.190430e+000
7.250108e+002,6.918457e+000
7.259750e+002,1.584595e+001
7.269393e+002,1.399902e+001
7.279035e+002,2.359375e+000
7.288677e+002,-4.349976e+000
7.298320e+002,1.688354e+000
7.307962e+002,6.160645e+000
7.317604e+002,7.693237e+000
7.327247e+002,7.542603e+000
7.336889e+002,6.390747e+000
7.346531e+002,2.578369e+000
7.356174e+002,-6.827393e-001
7.365816e+002,1.640869e+000
7.375458e+002,5.379517e+000
7.385101e+002,7.236328e+000
7.394743e+002,6.362183e+000
7.404385e+002,4.165894e+000
7.414028e+002,1.888672e+000
7.423670e+002,-1.320801e+000
7.433312e+002,-2.567505e+000
7.442955e+002,-3.768311e-001
7.452597e+002,3.548340e+000
7.462239e+002,6.882813e+000
7.471882e+002,9.256226e+000
7.481524e+002,1.089685e+001
7.491166e+002,9.373901e+000
7.500809e+002,7.865356e+000
7.510451e+002,8.491699e+000
7.520093e+002,1.037561e+001
7.529736e+002,1.008948e+001
7.539378e+002,5.135864e+000
7.549020e+002,1.027954e+000
7.558663e+002,1.522827e+000
7.568306e+002,4.580444e+000
7.577948e+002,7.200684e+000
7.587590e+002,7.344727e+000
7.597233e+002,5.494385e+000
7.606875e+002,4.831787e+000
7.616517e+002,5.674316e+000
7.626160e+002,5.247681e+000
7.635802e+002,2.312622e+000
7.645444e+002,-1.378052e+000
7.655087e+002,-2.324097e+000
7.664729e+002,2.127686e-001
7.674371e+002,3.742432e+000
7.684014e+002,1.009753e+001
7.693656e+002,1.527820e+001
7.703298e+002,1.600732e+001
7.712941e+002,1.243994e+001
7.722583e+002,9.105225e+000
7.732225e+002,9.786621e+000
7.741868e+002,1.148694e+001
7.751510e+002,1.163745e+001
7.761152e+002,1.078345e+001
7.770795e+002,1.080664e+001
7.780437e+002,1.329944e+001
7.790079e+002,1.744690e+001
7.799722e+002,1.716455e+001
7.809364e+002,1.212207e+001
7.819006e+002,7.697266e+000
7.828649e+002,6.806519e+000
7.838291e+002,8.853027e+000
7.847933e+002,1.066016e+001
7.857576e+002,1.129932e+001
7.867218e+002,1.071228e+001
7.876860e+002,8.582642e+000
7.886503e+002,7.031494e+000
7.896145e+002,8.386475e+000
7.905787e+002,1.298315e+001
7.915430e+002,1.765857e+001
7.925072e+002,1.810474e+001
7.934714e+002,1.586890e+001
7.944357e+002,1.253198e+001
7.953999e+002,9.274536e+000
7.963641e+002,8.064819e+000
7.973284e+002,1.102869e+001
7.982926e+002,1.861890e+001
7.992568e+002,2.135425e+001
8.002211e+002,1.585071e+001
8.011853e+002,9.446289e+000
8.021495e+002,5.079712e+000
8.031138e+002,3.878662e+000
8.040780e+002,6.919678e+000
8.050422e+002,1.698279e+001
8.060065e+002,2.475073e+001
8.069707e+002,2.573926e+001
8.079349e+002,2.336523e+001
8.088992e+002,2.145959e+001
8.098634e+002,2.161646e+001
8.108276e+002,2.185022e+001
8.117919e+002,1.712830e+001
8.127561e+002,9.395142e+000
8.137203e+002,5.824097e+000
8.146846e+002,7.927734e+000
8.156488e+002,1.185278e+001
8.166130e+002,1.207373e+001
8.175773e+002,7.100220e+000
8.185415e+002,6.274658e+000
8.195057e+002,1.164160e+001
8.204700e+002,1.637170e+001
8.214342e+002,1.831323e+001
8.223984e+002,1.791663e+001
8.233627e+002,1.644849e+001
8.243269e+002,1.369604e+001
8.252911e+002,1.186877e+001
8.262554e+002,1.167517e+001
8.272196e+002,1.286267e+001
8.281838e+002,1.583545e+001
8.291481e+002,2.026343e+001
8.301123e+002,2.443420e+001
8.310765e+002,2.499585e+001
8.320408e+002,2.202930e+001
8.330050e+002,2.055151e+001
8.339692e+002,2.144043e+001
8.349335e+002,2.251941e+001
8.358977e+002,2.109277e+001
8.368619e+002,1.677698e+001
8.378262e+002,1.611023e+001
8.387904e+002,2.321558e+001
8.397546e+002,2.818433e+001
8.407189e+002,2.740527e+001
8.416831e+002,2.325500e+001
8.426473e+002,1.953723e+001
8.436116e+002,1.754382e+001
8.445758e+002,1.865625e+001
8.455400e+002,2.694482e+001
8.465043e+002,3.604944e+001
8.474685e+002,3.895471e+001
8.484327e+002,3.470361e+001
8.493970e+002,2.778333e+001
8.503612e+002,2.473328e+001
8.513254e+002,2.590259e+001
8.522897e+002,2.689392e+001
8.532539e+002,2.721228e+001
8.542181e+002,2.705005e+001
8.551824e+002,2.715747e+001
8.561466e+002,2.826233e+001
8.571108e+002,3.030908e+001
8.580751e+002,3.105420e+001
8.590393e+002,3.210083e+001
8.600035e+002,3.512000e+001
8.609678e+002,3.938196e+001
8.619320e+002,4.409290e+001
8.628962e+002,4.873962e+001
8.638605e+002,5.292346e+001
8.648247e+002,5.550330e+001
8.657889e+002,5.728174e+001
8.667532e+002,6.075452e+001
8.677174e+002,6.621729e+001
8.686816e+002,7.164050e+001
8.696459e+002,7.489221e+001
8.706101e+002,7.614001e+001
8.715743e+002,7.675427e+001
8.725386e+002,7.607324e+001
8.735028e+002,7.582568e+001
8.744670e+002,7.526392e+001
8.754313e+002,7.461072e+001
8.763955e+002,7.507471e+001
8.773597e+002,7.770337e+001
8.783240e+002,8.079309e+001
8.792882e+002,8.261682e+001
8.802524e+002,8.393604e+001
8.812167e+002,8.505994e+001
8.821809e+002,8.643372e+001
8.831451e+002,8.935608e+001
8.841094e+002,9.599487e+001
8.850736e+002,1.063711e+002
8.860378e+002,1.104834e+002
8.870021e+002,1.064690e+002
8.879663e+002,1.021953e+002
8.889305e+002,1.017015e+002
8.898948e+002,1.041111e+002
8.908590e+002,1.060620e+002
8.918232e+002,1.068552e+002
8.927875e+002,1.095212e+002
8.937517e+002,1.167190e+002
8.947159e+002,1.244031e+002
8.956802e+002,1.281113e+002
8.966444e+002,1.269470e+002
8.976086e+002,1.246898e+002
8.985729e+002,1.258453e+002
8.995371e+002,1.293428e+002
9.005013e+002,1.328571e+002
9.014656e+002,1.363761e+002
9.024298e+002,1.387769e+002
9.033940e+002,1.385778e+002
9.043583e+002,1.356469e+002
9.053225e+002,1.337140e+002
9.062867e+002,1.321072e+002
9.072510e+002,1.315631e+002
9.082152e+002,1.346201e+002
9.091794e+002,1.387676e+002
9.101437e+002,1.410101e+002
9.111079e+002,1.407731e+002
9.120721e+002,1.408480e+002
9.130364e+002,1.435756e+002
9.140006e+002,1.450352e+002
9.149648e+002,1.423541e+002
9.159291e+002,1.376497e+002
9.168933e+002,1.348092e+002
9.178575e+002,1.361741e+002
9.188218e+002,1.398695e+002
9.197860e+002,1.406691e+002
9.207502e+002,1.382145e+002
9.217145e+002,1.354679e+002
9.226787e+002,1.341149e+002
9.236429e+002,1.333984e+002
9.246072e+002,1.314805e+002
9.255714e+002,1.274994e+002
9.265356e+002,1.237941e+002
9.274999e+002,1.190757e+002
9.284641e+002,1.158486e+002
9.294283e+002,1.173074e+002
9.303926e+002,1.209542e+002
9.313568e+002,1.219497e+002
9.323210e+002,1.176113e+002
9.332853e+002,1.112135e+002
9.342495e+002,1.073811e+002
9.352137e+002,1.050682e+002
9.361780e+002,1.044036e+002
9.371422e+002,1.058567e+002
9.381064e+002,1.075499e+002
9.390707e+002,1.059512e+002
9.400349e+002,9.939014e+001
9.409991e+002,9.552454e+001
9.419634e+002,9.578918e+001
9.429276e+002,9.610852e+001
9.438918e+002,9.572644e+001
9.448561e+002,9.493872e+001
9.458203e+002,9.421008e+001
9.467845e+002,9.377466e+001
9.477488e+002,9.411304e+001
9.487130e+002,9.602490e+001
9.496772e+002,9.819666e+001
9.506415e+002,9.984326e+001
9.516057e+002,1.007190e+002
9.525699e+002,1.006549e+002
9.535342e+002,9.938354e+001
9.544984e+002,9.672900e+001
9.554626e+002,9.350122e+001
9.564269e+002,9.049915e+001
9.573911e+002,8.845203e+001
9.583553e+002,8.697363e+001
9.593196e+002,8.635901e+001
9.602838e+002,8.778809e+001
9.612480e+002,9.198059e+001
9.622123e+002,9.416809e+001
9.631765e+002,9.077612e+001
9.641407e+002,8.784692e+001
9.651050e+002,8.881042e+001
9.660692e+002,9.193457e+001
9.670334e+002,9.363025e+001
9.679977e+002,9.207104e+001
9.689619e+002,8.923767e+001
9.699261e+002,8.726685e+001
9.708904e+002,8.564673e+001
9.718546e+002,8.474109e+001
9.728188e+002,8.409387e+001
9.737831e+002,8.502600e+001
9.747473e+002,9.022144e+001
9.757115e+002,1.010197e+002
9.766758e+002,1.102209e+002
9.776400e+002,1.188022e+002
9.786042e+002,1.258074e+002
9.795685e+002,1.314592e+002
9.805327e+002,1.340769e+002
9.814969e+002,1.312793e+002
9.824612e+002,1.227118e+002
9.834254e+002,1.130576e+002
9.843896e+002,1.049003e+002
9.853539e+002,9.802588e+001
9.863181e+002,9.331384e+001
9.872823e+002,8.982886e+001
9.882466e+002,8.522620e+001
9.892108e+002,7.816553e+001
9.901750e+002,7.030273e+001
9.911393e+002,6.668164e+001
9.921035e+002,6.748840e+001
9.930677e+002,6.852393e+001
9.940320e+002,7.057776e+001
9.949962e+002,7.356238e+001
9.959604e+002,7.734167e+001
9.969247e+002,8.203198e+001
9.978889e+002,8.776245e+001
9.988531e+002,9.441003e+001
9.998174e+002,1.001063e+002
1.000782e+003,1.044628e+002
1.001746e+003,1.081803e+002
1.002710e+003,1.122920e+002
1.003674e+003,1.169476e+002
1.004639e+003,1.206577e+002
1.005603e+003,1.205076e+002
1.006567e+003,1.157823e+002
1.007531e+003,1.148256e+002
1.008495e+003,1.195851e+002
1.009460e+003,1.242762e+002
1.010424e+003,1.260110e+002
1.011388e+003,1.252510e+002
1.012352e+003,1.228563e+002
1.013317e+003,1.174150e+002
1.014281e+003,1.124259e+002
1.015245e+003,1.097140e+002
1.016209e+003,1.064653e+002
1.017174e+003,1.005298e+002
1.018138e+003,9.220764e+001
1.019102e+003,8.337488e+001
1.020066e+003,7.560266e+001
1.021031e+003,6.931824e+001
1.021995e+003,6.530334e+001
1.022959e+003,6.227539e+001
1.023923e+003,5.673071e+001
1.024887e+003,4.651501e+001
1.025852e+003,3.470044e+001
1.026816e+003,2.670032e+001
1.027780e+003,2.402014e+001
1.028744e+003,2.079077e+001
1.029709e+003,1.471802e+001
1.030673e+003,9.892212e+000
1.031637e+003,6.963867e+000
1.032601e+003,5.822021e+000
1.033566e+003,7.473755e+000
1.034530e+003,1.229236e+001
1.035494e+003,1.635974e+001
1.036458e+003,1.290601e+001
1.037422e+003,6.887573e+000
1.038387e+003,7.756470e+000
1.039351e+003,1.499023e+001
1.040315e+003,2.224133e+001
1.041279e+003,2.511548e+001
1.042244e+003,2.463428e+001
1.043208e+003,2.430188e+001
1.044172e+003,2.368188e+001
1.045136e+003,2.245874e+001
1.046101e+003,2.131726e+001
1.047065e+003,1.968127e+001
1.048029e+003,1.633936e+001
1.048993e+003,1.175586e+001
1.049958e+003,8.041748e+000
1.050922e+003,6.305786e+000
1.051886e+003,6.692993e+000
1.052850e+003,1.049854e+001
1.053814e+003,1.542273e+001
1.054779e+003,1.821179e+001
1.055743e+003,1.821899e+001
1.056707e+003,1.745337e+001
1.057671e+003,1.845581e+001
1.058636e+003,2.109778e+001
1.059600e+003,2.155090e+001
1.060564e+003,1.849585e+001
1.061528e+003,1.709863e+001
1.062493e+003,1.789563e+001
1.063457e+003,1.938562e+001
1.064421e+003,2.097156e+001
1.065385e+003,2.278931e+001
1.066349e+003,2.320605e+001
1.067314e+003,2.063806e+001
1.068278e+003,1.727222e+001
1.069242e+003,1.396411e+001
1.070206e+003,1.156555e+001
1.071171e+003,1.118750e+001
1.072135e+003,1.286792e+001
1.073099e+003,1.528528e+001
1.074063e+003,1.681604e+001
1.075028e+003,1.768408e+001
1.075992e+003,1.796704e+001
1.076956e+003,1.688269e+001
1.077920e+003,1.547375e+001
1.078885e+003,1.515540e+001
1.079849e+003,1.537927e+001
1.080813e+003,1.419336e+001
1.081777e+003,1.093481e+001
1.082741e+003,9.195679e+000
1.083706e+003,1.106470e+001
1.084670e+003,1.333582e+001
1.085634e+003,1.476697e+001
1.086598e+003,1.517798e+001
1.087563e+003,1.469678e+001
1.088527e+003,1.377600e+001
1.089491e+003,1.324646e+001
1.090455e+003,1.373560e+001
1.091420e+003,1.480981e+001
1.092384e+003,1.598389e+001
1.093348e+003,1.788586e+001
1.094312e+003,1.777039e+001
1.095276e+003,1.277307e+001
1.096241e+003,5.418457e+000
1.097205e+003,2.726929e+000
1.098169e+003,6.777954e+000
1.099133e+003,1.013525e+001
1.100098e+003,9.933472e+000
1.101062e+003,8.942871e+000
1.102026e+003,8.482788e+000
1.102990e+003,8.818726e+000
1.103955e+003,9.790283e+000
1.104919e+003,1.114856e+001
1.105883e+003,1.248096e+001
1.106847e+003,1.319482e+001
1.107812e+003,1.319092e+001
1.108776e+003,1.411963e+001
1.109740e+003,1.715466e+001
1.110704e+003,1.886694e+001
1.111668e+003,1.573132e+001
1.112633e+003,9.801147e+000
1.113597e+003,8.784668e+000
1.114561e+003,1.570044e+001
1.115525e+003,2.067383e+001
1.116490e+003,1.841699e+001
1.117454e+003,1.542114e+001
1.118418e+003,1.636963e+001
1.119382e+003,2.104407e+001
1.120347e+003,2.688574e+001
1.121311e+003,3.175867e+001
1.122275e+003,3.438025e+001
1.123239e+003,3.334912e+001
1.124203e+003,2.989746e+001
1.125168e+003,2.848364e+001
1.126132e+003,3.014697e+001
1.127096e+003,3.257581e+001
1.128060e+003,3.272620e+001
1.129025e+003,3.140735e+001
1.129989e+003,3.429761e+001
1.130953e+003,4.436145e+001
1.131917e+003,5.192834e+001
1.132882e+003,5.341284e+001
1.133846e+003,5.361389e+001
1.134810e+003,5.414185e+001
1.135774e+003,5.613806e+001
1.136739e+003,6.136987e+001
1.137703e+003,7.067786e+001
1.138667e+003,8.115051e+001
1.139631e+003,8.716394e+001
1.140595e+003,8.945923e+001
1.141560e+003,9.611060e+001
1.142524e+003,1.085717e+002
1.143488e+003,1.235339e+002
1.144452e+003,1.383839e+002
1.145417e+003,1.536677e+002
1.146381e+003,1.712891e+002
1.147345e+003,1.906208e+002
1.148309e+003,2.136368e+002
1.149274e+003,2.436091e+002
1.150238e+003,2.748633e+002
1.151202e+003,3.052327e+002
1.152166e+003,3.352262e+002
1.153130e+003,3.669250e+002
1.154095e+003,4.003137e+002
1.155059e+003,4.305365e+002
1.156023e+003,4.524680e+002
1.156987e+003,4.654938e+002
1.157952e+003,4.690524e+002
1.158916e+003,4.639303e+002
1.159880e+003,4.534355e+002
1.160844e+003,4.366870e+002
1.161809e+003,4.140428e+002
1.162773e+003,3.883743e+002
1.163737e+003,3.597422e+002
1.164701e+003,3.283101e+002
1.165666e+003,2.897542e+002
1.166630e+003,2.539526e+002
1.167594e+003,2.232930e+002
1.168558e+003,1.979897e+002
1.169522e+003,1.781556e+002
1.170487e+003,1.636686e+002
1.171451e+003,1.546500e+002
1.172415e+003,1.516954e+002
1.173379e+003,1.533180e+002
1.174344e+003,1.526973e+002
1.175308e+003,1.501287e+002
1.176272e+003,1.468516e+002
1.177236e+003,1.432328e+002
1.178201e+003,1.395868e+002
1.179165e+003,1.360953e+002
1.180129e+003,1.322605e+002
1.181093e+003,1.267050e+002
1.182057e+003,1.182590e+002
1.183022e+003,1.100850e+002
1.183986e+003,1.027338e+002
1.184950e+003,9.668005e+001
1.185914e+003,9.220007e+001
1.186879e+003,8.967126e+001
1.187843e+003,8.985803e+001
1.188807e+003,9.322473e+001
1.189771e+003,9.859485e+001
1.190736e+003,1.038131e+002
1.191700e+003,1.090548e+002
1.192664e+003,1.106246e+002
1.193628e+003,1.064672e+002
1.194593e+003,1.017198e+002
1.195557e+003,1.004547e+002
1.196521e+003,1.013411e+002
1.197485e+003,1.001985e+002
1.198449e+003,9.665320e+001
1.199414e+003,9.067749e+001
1.200378e+003,7.949280e+001
1.201342e+003,6.851965e+001
1.202306e+003,6.059814e+001
1.203271e+003,5.536804e+001
1.204235e+003,5.194336e+001
1.205199e+003,4.980554e+001
1.206163e+003,4.827881e+001
1.207128e+003,4.615369e+001
1.208092e+003,4.351257e+001
1.209056e+003,3.890625e+001
1.210020e+003,3.236511e+001
1.210984e+003,2.445630e+001
1.211949e+003,1.330505e+001
1.212913e+003,1.802246e+000
1.213877e+003,-5.742798e+000
1.214841e+003,-8.958740e+000
1.215806e+003,-1.134546e+001
1.216770e+003,-1.358838e+001
1.217734e+003,-1.673511e+001
1.218698e+003,-2.280774e+001
1.219663e+003,-2.980396e+001
1.220627e+003,-3.476135e+001
1.221591e+003,-3.745264e+001
1.222555e+003,-4.050208e+001
1.223520e+003,-4.634680e+001
1.224484e+003,-5.334656e+001
1.225448e+003,-5.483057e+001
1.226412e+003,-4.650732e+001
1.227376e+003,-4.264014e+001
1.228341e+003,-4.627209e+001
1.229305e+003,-5.120081e+001
1.230269e+003,-5.442078e+001
1.231233e+003,-5.652856e+001
1.232198e+003,-5.940234e+001
1.233162e+003,-6.339490e+001
1.234126e+003,-6.478418e+001
1.235090e+003,-5.863672e+001
1.236055e+003,-5.160791e+001
1.237019e+003,-5.181067e+001
1.237983e+003,-5.707141e+001
1.238947e+003,-6.055811e+001
1.239911e+003,-5.912354e+001
1.240876e+003,-5.550708e+001
1.241840e+003,-5.396960e+001
1.242804e+003,-5.453601e+001
1.243768e+003,-5.591699e+001
1.244733e+003,-6.092566e+001
1.245697e+003,-6.273877e+001
1.246661e+003,-5.927844e+001
1.247625e+003,-5.505383e+001
1.248590e+003,-5.273950e+001
1.249554e+003,-5.191687e+001
1.250518e+003,-5.133643e+001
1.251482e+003,-5.083569e+001
1.252447e+003,-5.025232e+001
1.253411e+003,-4.848999e+001
1.254375e+003,-4.596033e+001
1.255339e+003,-4.463086e+001
1.256303e+003,-4.417395e+001
1.257268e+003,-4.174377e+001
1.258232e+003,-3.542688e+001
1.259196e+003,-2.812219e+001
1.260160e+003,-2.537537e+001
1.261125e+003,-2.778796e+001
1.262089e+003,-2.750012e+001
1.263053e+003,-2.233594e+001
1.264017e+003,-1.725830e+001
1.264982e+003,-1.252625e+001
1.265946e+003,-8.570068e+000
1.266910e+003,-5.343018e+000
1.267874e+003,-3.195068e+000
1.268839e+003,-3.397827e+000
1.269803e+003,-6.820679e+000
1.270767e+003,-1.118066e+001
1.271731e+003,-1.129517e+001
1.272695e+003,-7.204346e+000
1.273660e+003,-7.473267e+000
1.274624e+003,-1.464246e+001
1.275588e+003,-2.263684e+001
1.276552e+003,-2.779456e+001
1.277517e+003,-3.072900e+001
1.278481e+003,-3.322754e+001
1.279445e+003,-3.556958e+001
1.280409e+003,-3.781384e+001
1.281374e+003,-4.054541e+001
1.282338e+003,-4.210046e+001
1.283302e+003,-4.105554e+001
1.284266e+003,-3.901086e+001
1.285230e+003,-3.737671e+001
1.286195e+003,-3.675854e+001
1.287159e+003,-3.743701e+001
1.288123e+003,-3.940015e+001
1.289087e+003,-4.178796e+001
1.290052e+003,-4.311487e+001
1.291016e+003,-4.332764e+001
1.291980e+003,-4.449524e+001
1.292944e+003,-4.827344e+001
1.293909e+003,-5.187769e+001
1.294873e+003,-5.363049e+001
1.295837e+003,-5.397522e+001
1.296801e+003,-5.339697e+001
1.297766e+003,-5.211877e+001
1.298730e+003,-5.157349e+001
1.299694e+003,-5.338794e+001
1.300658e+003,-5.552478e+001
1.301622e+003,-5.484253e+001
1.302587e+003,-5.275134e+001
1.303551e+003,-5.181958e+001
1.304515e+003,-5.223438e+001
1.305479e+003,-5.256836e+001
1.306444e+003,-5.202246e+001
1.307408e+003,-5.099084e+001
1.308372e+003,-4.997510e+001
1.309336e+003,-4.926392e+001
1.310301e+003,-4.780518e+001
1.311265e+003,-4.314807e+001
1.312229e+003,-4.002441e+001
1.313193e+003,-4.126697e+001
1.314157e+003,-4.405847e+001
1.315122e+003,-4.567969e+001
1.316086e+003,-4.581628e+001
1.317050e+003,-4.534399e+001
1.318014e+003,-4.451160e+001
1.318979e+003,-4.344067e+001
1.319943e+003,-4.262891e+001
1.320907e+003,-4.190771e+001
1.321871e+003,-4.208435e+001
1.322836e+003,-4.437573e+001
1.323800e+003,-4.625989e+001
1.324764e+003,-4.574329e+001
1.325728e+003,-4.408594e+001
1.326693e+003,-4.376001e+001
1.327657e+003,-4.518237e+001
1.328621e+003,-4.693481e+001
1.329585e+003,-4.764331e+001
1.330549e+003,-4.685022e+001
1.331514e+003,-4.615503e+001
1.332478e+003,-4.530591e+001
1.333442e+003,-4.266541e+001
1.334406e+003,-3.875745e+001
1.335371e+003,-3.635901e+001
1.336335e+003,-3.709521e+001
1.337299e+003,-3.903418e+001
1.338263e+003,-3.867834e+001
1.339228e+003,-3.573840e+001
1.340192e+003,-3.291248e+001
1.341156e+003,-2.933289e+001
1.342120e+003,-2.715332e+001
1.343084e+003,-2.743018e+001
1.344049e+003,-2.964417e+001
1.345013e+003,-3.407275e+001
1.345977e+003,-3.917017e+001
1.346941e+003,-4.148779e+001
1.347906e+003,-3.973840e+001
1.348870e+003,-3.703552e+001
1.349834e+003,-3.636353e+001
1.350798e+003,-3.703064e+001
1.351763e+003,-3.691357e+001
1.352727e+003,-3.600732e+001
1.353691e+003,-3.524451e+001
1.354655e+003,-3.480005e+001
1.355620e+003,-3.487488e+001
1.356584e+003,-3.582202e+001
1.357548e+003,-3.733105e+001
1.358512e+003,-3.838428e+001
1.359476e+003,-3.949695e+001
1.360441e+003,-4.086169e+001
1.361405e+003,-4.304614e+001
1.362369e+003,-4.428149e+001
1.363333e+003,-4.279846e+001
1.364298e+003,-4.018225e+001
1.365262e+003,-3.885596e+001
1.366226e+003,-3.920166e+001
1.367190e+003,-3.933374e+001
1.368155e+003,-3.753479e+001
1.369119e+003,-3.480090e+001
1.370083e+003,-3.427747e+001
1.371047e+003,-3.655615e+001
1.372011e+003,-3.710510e+001
1.372976e+003,-3.557593e+001
1.373940e+003,-3.420984e+001
1.374904e+003,-3.368323e+001
1.375868e+003,-3.332129e+001
1.376833e+003,-3.268604e+001
1.377797e+003,-3.179321e+001
1.378761e+003,-2.984790e+001
1.379725e+003,-2.548645e+001
1.380690e+003,-2.274036e+001
1.381654e+003,-2.913025e+001
1.382618e+003,-3.779321e+001
1.383582e+003,-3.788220e+001
1.384547e+003,-3.006152e+001
1.385511e+003,-2.407190e+001
1.386475e+003,-2.534351e+001
1.387439e+003,-2.981824e+001
1.388403e+003,-3.133057e+001
1.389368e+003,-2.995154e+001
1.390332e+003,-2.852808e+001
1.391296e+003,-2.711255e+001
1.392260e+003,-2.478186e+001
1.393225e+003,-2.053296e+001
1.394189e+003,-1.657678e+001
1.395153e+003,-1.316248e+001
1.396117e+003,-1.127808e+001
1.397082e+003,-1.316589e+001
1.398046e+003,-1.838440e+001
1.399010e+003,-2.275183e+001
1.399974e+003,-2.274146e+001
1.400938e+003,-2.047827e+001
1.401903e+003,-2.081396e+001
1.402867e+003,-2.337231e+001
1.403831e+003,-2.226147e+001
1.404795e+003,-1.465613e+001
1.405760e+003,-8.907227e+000
1.406724e+003,-9.985107e+000
1.407688e+003,-1.502368e+001
1.408652e+003,-2.060083e+001
1.409617e+003,-2.517554e+001
1.410581e+003,-2.665637e+001
1.411545e+003,-2.379285e+001
1.412509e+003,-2.010217e+001
1.413474e+003,-1.961755e+001
1.414438e+003,-2.112170e+001
1.415402e+003,-2.128406e+001
1.416366e+003,-1.973975e+001
1.417330e+003,-1.799084e+001
1.418295e+003,-1.661316e+001
1.419259e+003,-1.518188e+001
1.420223e+003,-1.325562e+001
1.421187e+003,-1.142004e+001
1.422152e+003,-1.116565e+001
1.423116e+003,-1.256445e+001
1.424080e+003,-1.302710e+001
1.425044e+003,-1.197742e+001
1.426009e+003,-1.095618e+001
1.426973e+003,-1.060425e+001
1.427937e+003,-1.068335e+001
1.428901e+003,-1.113196e+001
1.429865e+003,-1.126025e+001
1.430830e+003,-9.396851e+000
1.431794e+003,-4.804199e+000
1.432758e+003,7.446289e-003
1.433722e+003,5.644531e-001
1.434687e+003,-2.852539e+000
1.435651e+003,-1.811646e+000
1.436615e+003,5.412109e+000
1.437579e+003,1.021313e+001
1.438544e+003,1.114233e+001
1.439508e+003,1.072644e+001
1.440472e+003,1.115283e+001
1.441436e+003,1.211609e+001
1.442401e+003,1.187646e+001
1.443365e+003,9.974121e+000
1.444329e+003,8.072510e+000
1.445293e+003,7.446289e+000
1.446257e+003,8.223267e+000
1.447222e+003,1.131494e+001
1.448186e+003,1.585754e+001
1.449150e+003,1.728540e+001
1.450114e+003,1.470398e+001
1.451079e+003,1.022693e+001
1.452043e+003,3.301880e+000
1.453007e+003,-2.943726e+000
1.453971e+003,-3.884521e+000
1.454936e+003,-4.237061e-001
1.455900e+003,2.277466e+000
1.456864e+003,3.376587e+000
1.457828e+003,4.071411e+000
1.458792e+003,3.845581e+000
1.459757e+003,3.774902e+000
1.460721e+003,5.695068e+000
1.461685e+003,8.219849e+000
1.462649e+003,8.403076e+000
1.463614e+003,5.898804e+000
1.464578e+003,3.262695e+000
1.465542e+003,2.458984e+000
1.466506e+003,2.849731e+000
1.467471e+003,3.524902e+000
1.468435e+003,5.445801e+000
1.469399e+003,6.509521e+000
1.470363e+003,4.192505e+000
1.471328e+003,2.914795e+000
1.472292e+003,4.446411e+000
1.473256e+003,5.329956e+000
1.474220e+003,2.984497e+000
1.475184e+003,-5.174561e-001
1.476149e+003,-1.699341e+000
1.477113e+003,9.362793e-002
1.478077e+003,2.787109e+000
1.479041e+003,4.899170e+000
1.480006e+003,6.998169e+000
1.480970e+003,9.642456e+000
1.481934e+003,1.251306e+001
1.482898e+003,1.431726e+001
1.483863e+003,1.283081e+001
1.484827e+003,1.320325e+001
1.485791e+003,2.037134e+001
1.486755e+003,2.792102e+001
1.487719e+003,2.777148e+001
1.488684e+003,2.251367e+001
1.489648e+003,2.149463e+001
1.490612e+003,2.789246e+001
1.491576e+003,3.555627e+001
1.492541e+003,3.896631e+001
1.493505e+003,4.044458e+001
1.494469e+003,4.569263e+001
1.495433e+003,5.334436e+001
1.496398e+003,5.912781e+001
1.497362e+003,6.283386e+001
1.498326e+003,6.722278e+001
1.499290e+003,7.366101e+001
1.500255e+003,8.138635e+001
1.501219e+003,8.893347e+001
1.502183e+003,9.638000e+001
1.503147e+003,1.053159e+002
1.504111e+003,1.160477e+002
1.505076e+003,1.284309e+002
1.506040e+003,1.421001e+002
1.507004e+003,1.581400e+002
1.507968e+003,1.768861e+002
1.508933e+003,1.986544e+002
1.509897e+003,2.247490e+002
1.510861e+003,2.561176e+002
1.511825e+003,2.906272e+002
1.512790e+003,3.263641e+002
1.513754e+003,3.629619e+002
1.514718e+003,4.004907e+002
1.515682e+003,4.383723e+002
1.516646e+003,4.783322e+002
1.517611e+003,5.233369e+002
1.518575e+003,5.654526e+002
1.519539e+003,6.043033e+002
1.520503e+003,6.386992e+002
1.521468e+003,6.692546e+002
1.522432e+003,6.936530e+002
1.523396e+003,7.092562e+002
1.524360e+003,7.154329e+002
1.525325e+003,7.129288e+002
1.526289e+003,7.024016e+002
1.527253e+003,6.852532e+002
1.528217e+003,6.635687e+002
1.529182e+003,6.378713e+002
1.530146e+003,6.076964e+002
1.531110e+003,5.723296e+002
1.532074e+003,5.322935e+002
1.533039e+003,4.864924e+002
1.534003e+003,4.350708e+002
1.534967e+003,3.740732e+002
1.535931e+003,3.129457e+002
1.536896e+003,2.610629e+002
1.537860e+003,2.193411e+002
1.538824e+003,1.832631e+002
1.539788e+003,1.502400e+002
1.540752e+003,1.227672e+002
1.541717e+003,1.048695e+002
1.542681e+003,9.542944e+001
1.543645e+003,8.455090e+001
1.544609e+003,7.045496e+001
1.545573e+003,6.173352e+001
1.546538e+003,5.997559e+001
1.547502e+003,5.940149e+001
1.548466e+003,5.933276e+001
1.549430e+003,5.999292e+001
1.550395e+003,6.183484e+001
1.551359e+003,6.378308e+001
1.552323e+003,6.352625e+001
1.553287e+003,6.045947e+001
1.554252e+003,5.670691e+001
1.555216e+003,5.415576e+001
1.556180e+003,5.174792e+001
1.557144e+003,4.650391e+001
1.558109e+003,3.858826e+001
1.559073e+003,3.414172e+001
1.560037e+003,3.454443e+001
1.561001e+003,3.362598e+001
1.561966e+003,2.830908e+001
1.562930e+003,2.358704e+001
1.563894e+003,2.456274e+001
1.564858e+003,2.885693e+001
1.565823e+003,3.069983e+001
1.566787e+003,2.896448e+001
1.567751e+003,2.646826e+001
1.568715e+003,2.459485e+001
1.569679e+003,2.407788e+001
1.570644e+003,2.669617e+001
1.571608e+003,3.040002e+001
1.572572e+003,2.972144e+001
1.573536e+003,2.478247e+001
1.574500e+003,2.277417e+001
1.575465e+003,2.752405e+001
1.576429e+003,3.300073e+001
1.577393e+003,3.286694e+001
1.578357e+003,3.026672e+001
1.579322e+003,3.315222e+001
1.580286e+003,4.157214e+001
1.581250e+003,4.609436e+001
1.582214e+003,4.285181e+001
1.583179e+003,3.891248e+001
1.584143e+003,3.937903e+001
1.585107e+003,4.136267e+001
1.586071e+003,4.113367e+001
1.587036e+003,4.038416e+001
1.588000e+003,4.268030e+001
1.588964e+003,4.850952e+001
1.589928e+003,5.401794e+001
1.590893e+003,5.660742e+001
1.591857e+003,5.772717e+001
1.592821e+003,5.944360e+001
1.593785e+003,6.176343e+001
1.594750e+003,6.408655e+001
1.595714e+003,6.608826e+001
1.596678e+003,6.771680e+001
1.597642e+003,6.903455e+001
1.598606e+003,7.000928e+001
1.599571e+003,7.086987e+001
1.600535e+003,7.166418e+001
1.601499e+003,7.213477e+001
1.602463e+003,7.218750e+001
1.603427e+003,7.207104e+001
1.604392e+003,7.186511e+001
1.605356e+003,7.210315e+001
1.606320e+003,7.432214e+001
1.607284e+003,7.715027e+001
1.608249e+003,7.546143e+001
1.609213e+003,6.901013e+001
1.610177e+003,6.671545e+001
1.611141e+003,7.239844e+001
1.612106e+003,7.646765e+001
1.613070e+003,7.209180e+001
1.614034e+003,6.624500e+001
1.614998e+003,6.362207e+001
1.615963e+003,6.321387e+001
1.616927e+003,6.278235e+001
1.617891e+003,6.189575e+001
1.618855e+003,6.157813e+001
1.619820e+003,6.219922e+001
1.620784e+003,6.286963e+001
1.621748e+003,6.354602e+001
1.622712e+003,6.501172e+001
1.623677e+003,6.664661e+001
1.624641e+003,6.857141e+001
1.625605e+003,7.030261e+001
1.626569e+003,6.940015e+001
1.627533e+003,6.894788e+001
1.628498e+003,7.332190e+001
1.629462e+003,7.773059e+001
1.630426e+003,7.693225e+001
1.631390e+003,7.285840e+001
1.632354e+003,7.040796e+001
1.633319e+003,7.068030e+001
1.634283e+003,7.127124e+001
1.635247e+003,7.017664e+001
1.636211e+003,6.867432e+001
1.637176e+003,6.992346e+001
1.638140e+003,7.392139e+001
1.639104e+003,7.642029e+001
1.640068e+003,7.717700e+001
1.641033e+003,7.554663e+001
1.641997e+003,6.877185e+001
1.642961e+003,6.395374e+001
1.643925e+003,6.606067e+001
1.644890e+003,7.028210e+001
1.645854e+003,7.183398e+001
1.646818e+003,7.115173e+001
1.647782e+003,7.076819e+001
1.648747e+003,7.143481e+001
1.649711e+003,7.246436e+001
1.650675e+003,7.401489e+001
1.651639e+003,7.524878e+001
1.652604e+003,7.263000e+001
1.653568e+003,6.605798e+001
1.654532e+003,6.304443e+001
1.655496e+003,6.504565e+001
1.656460e+003,6.679297e+001
1.657425e+003,6.652881e+001
1.658389e+003,6.660034e+001
1.659353e+003,6.919275e+001
1.660317e+003,7.197290e+001
1.661281e+003,7.298218e+001
1.662246e+003,7.164966e+001
1.663210e+003,6.694556e+001
1.664174e+003,5.893372e+001
1.665138e+003,5.148022e+001
1.666103e+003,4.743347e+001
1.667067e+003,4.579138e+001
1.668031e+003,4.516919e+001
1.668995e+003,4.568140e+001
1.669960e+003,4.717749e+001
1.670924e+003,5.040845e+001
1.671888e+003,5.191748e+001
1.672852e+003,4.795154e+001
1.673817e+003,4.526074e+001
1.674781e+003,5.098413e+001
1.675745e+003,5.792554e+001
1.676709e+003,5.718591e+001
1.677674e+003,5.051599e+001
1.678638e+003,4.537024e+001
1.679602e+003,4.408911e+001
1.680566e+003,4.312158e+001
1.681531e+003,3.991565e+001
1.682495e+003,3.597119e+001
1.683459e+003,3.277612e+001
1.684423e+003,3.012048e+001
1.685387e+003,2.880798e+001
1.686352e+003,2.901929e+001
1.687316e+003,3.194727e+001
1.688280e+003,4.062280e+001
1.689244e+003,4.707288e+001
1.690208e+003,4.314172e+001
1.691173e+003,3.496887e+001
1.692137e+003,2.787659e+001
1.693101e+003,2.301550e+001
1.694065e+003,2.219775e+001
1.695030e+003,2.552087e+001
1.695994e+003,2.811023e+001
1.696958e+003,2.702185e+001
1.697922e+003,2.426367e+001
1.698887e+003,2.132227e+001
1.699851e+003,1.906494e+001
1.700815e+003,2.053296e+001
1.701779e+003,2.555188e+001
1.702744e+003,2.831848e+001
1.703708e+003,2.732642e+001
1.704672e+003,2.524011e+001
1.705636e+003,2.209619e+001
1.706601e+003,1.912915e+001
1.707565e+003,2.018677e+001
1.708529e+003,2.414966e+001
1.709493e+003,2.617419e+001
1.710458e+003,2.556201e+001
1.711422e+003,2.349072e+001
1.712386e+003,1.989172e+001
1.713350e+003,1.662158e+001
1.714314e+003,1.512170e+001
1.715279e+003,1.381543e+001
1.716243e+003,9.437866e+000
1.717207e+003,3.082031e+000
1.718171e+003,1.019287e+000
1.719135e+003,5.097412e+000
1.720100e+003,9.112061e+000
1.721064e+003,8.603394e+000
1.722028e+003,6.050049e+000
1.722992e+003,5.214844e+000
1.723957e+003,6.549805e+000
1.724921e+003,9.428101e+000
1.725885e+003,1.350342e+001
1.726849e+003,1.483081e+001
1.727814e+003,1.216101e+001
1.728778e+003,9.733887e+000
1.729742e+003,8.535767e+000
1.730706e+003,8.695190e+000
1.731671e+003,1.082654e+001
1.732635e+003,1.308875e+001
1.733599e+003,1.284692e+001
1.734563e+003,1.054626e+001
1.735528e+003,8.699585e+000
1.736492e+003,8.362549e+000
1.737456e+003,8.963013e+000
1.738420e+003,1.001086e+001
1.739385e+003,1.067664e+001
1.740349e+003,9.629028e+000
1.741313e+003,7.052246e+000
1.742277e+003,4.081299e+000
1.743241e+003,3.697510e-001
1.744206e+003,-2.195068e+000
1.745170e+003,-3.482666e+000
1.746134e+003,-4.078857e+000
1.747098e+003,-4.239868e+000
1.748063e+003,-4.037598e+000
1.749027e+003,-3.204224e+000
1.749991e+003,-1.934082e+000
1.750955e+003,-8.660889e-001
1.751919e+003,-3.280029e-001
1.752884e+003,-7.287598e-002
1.753848e+003,1.148682e-001
1.754812e+003,-2.685547e-001
1.755776e+003,-2.073730e+000
1.756741e+003,-4.689209e+000
1.757705e+003,-4.812012e+000
1.758669e+003,-2.029053e+000
1.759633e+003,6.066895e-001
1.760598e+003,2.031494e+000
1.761562e+003,3.471191e+000
1.762526e+003,7.772217e+000
1.763490e+003,1.081604e+001
1.764455e+003,8.192383e+000
1.765419e+003,3.304565e+000
1.766383e+003,1.253296e+000
1.767347e+003,2.190430e+000
1.768312e+003,3.380615e+000
1.769276e+003,3.385864e+000
1.770240e+003,2.642578e+000
1.771204e+003,2.714233e+000
1.772168e+003,3.056152e+000
1.773133e+003,1.159668e-001
1.774097e+003,-5.533936e+000
1.775061e+003,-7.177002e+000
1.776025e+003,-4.087769e+000
1.776990e+003,-2.477539e+000
1.777954e+003,-5.107300e+000
1.778918e+003,-6.015381e+000
1.779882e+003,7.062988e-001
1.780846e+003,9.192017e+000
1.781811e+003,1.223462e+001
1.782775e+003,1.105591e+001
1.783739e+003,9.004517e+000
1.784703e+003,6.662231e+000
1.785668e+003,4.412842e+000
1.786632e+003,1.443604e+000
1.787596e+003,-1.536621e+000
1.788560e+003,-3.355713e+000
1.789525e+003,-3.787720e+000
1.790489e+003,-3.474365e+000
1.791453e+003,-2.506714e+000
1.792417e+003,7.611084e-001
1.793382e+003,6.171143e+000
1.794346e+003,8.800293e+000
1.795310e+003,5.820679e+000
1.796274e+003,5.715332e-001
1.797239e+003,-3.125000e+000
1.798203e+003,-4.546265e+000
1.799167e+003,-3.298706e+000
1.800131e+003,1.245117e-001
1.801095e+003,1.138794e+000
1.802060e+003,-9.962158e-001
1.803024e+003,-1.818604e+000
1.803988e+003,-1.352051e+000
1.804952e+003,2.171631e-001
1.805917e+003,4.541504e+000
1.806881e+003,8.412598e+000
1.807845e+003,8.620605e+000
1.808809e+003,6.262329e+000
1.809773e+003,3.123047e+000
1.810738e+003,3.265381e-001
1.811702e+003,-6.335449e-002
1.812666e+003,3.105347e+000
1.813630e+003,7.118286e+000
1.814595e+003,8.240601e+000
1.815559e+003,7.114868e+000
1.816523e+003,7.303345e+000
1.817487e+003,9.213135e+000
1.818452e+003,9.116821e+000
1.819416e+003,5.937622e+000
1.820380e+003,5.260498e+000
1.821344e+003,1.127808e+001
1.822309e+003,1.508984e+001
1.823273e+003,8.422852e+000
1.824237e+003,3.537598e-001
1.825201e+003,1.126465e+000
1.826166e+003,7.496216e+000
1.827130e+003,9.852905e+000
1.828094e+003,6.420776e+000
1.829058e+003,3.526489e+000
1.830022e+003,4.891724e+000
1.830987e+003,7.075317e+000
1.831951e+003,7.433716e+000
1.832915e+003,6.756470e+000
1.833879e+003,5.643311e+000
1.834844e+003,4.510986e+000
1.835808e+003,4.377075e+000
1.836772e+003,5.474121e+000
1.837736e+003,8.038208e+000
1.838700e+003,1.201770e+001
1.839665e+003,1.395813e+001
1.840629e+003,1.050415e+001
1.841593e+003,4.530151e+000
1.842557e+003,1.658936e+000
1.843522e+003,1.822388e+000
1.844486e+003,1.931885e+000
1.845450e+003,2.369141e+000
1.846414e+003,3.508057e+000
1.847379e+003,5.386353e+000
1.848343e+003,5.958496e+000
1.849307e+003,3.563965e+000
1.850271e+003,1.446045e+000
1.851236e+003,3.201660e+000
1.852200e+003,6.458374e+000
1.853164e+003,6.637329e+000
1.854128e+003,3.798218e+000
1.855093e+003,1.862549e+000
1.856057e+003,2.728149e+000
1.857021e+003,4.361450e+000
1.857985e+003,4.750122e+000
1.858949e+003,4.506836e+000
1.859914e+003,4.624023e+000
1.860878e+003,5.379761e+000
1.861842e+003,8.156616e+000
1.862806e+003,1.285608e+001
1.863771e+003,1.399451e+001
1.864735e+003,9.280029e+000
1.865699e+003,6.294312e+000
1.866663e+003,9.518555e+000
1.867627e+003,1.427209e+001
1.868592e+003,1.653076e+001
1.869556e+003,1.641101e+001
1.870520e+003,1.517908e+001
1.871484e+003,1.277551e+001
1.872449e+003,8.709229e+000
1.873413e+003,3.377441e+000
1.874377e+003,1.225952e+000
1.875341e+003,3.836792e+000
1.876306e+003,6.625854e+000
1.877270e+003,5.927979e+000
1.878234e+003,5.007690e+000
1.879198e+003,8.706543e+000
1.880163e+003,1.439819e+001
1.881127e+003,1.633020e+001
1.882091e+003,1.475708e+001
1.883055e+003,1.491565e+001
1.884020e+003,1.865002e+001
1.884984e+003,2.141528e+001
1.885948e+003,1.902954e+001
1.886912e+003,1.426721e+001
1.887876e+003,1.283386e+001
1.888841e+003,1.448010e+001
1.889805e+003,1.530444e+001
1.890769e+003,1.504016e+001
1.891733e+003,1.548438e+001
1.892698e+003,1.683057e+001
1.893662e+003,1.763660e+001
1.894626e+003,1.670569e+001
1.895590e+003,1.646191e+001
1.896554e+003,2.076611e+001
1.897519e+003,2.571228e+001
1.898483e+003,2.474792e+001
1.899447e+003,1.940308e+001
1.900411e+003,1.760925e+001
1.901376e+003,2.109692e+001
1.902340e+003,2.370471e+001
1.903304e+003,2.278394e+001
1.904268e+003,2.073218e+001
1.905233e+003,1.840845e+001
1.906197e+003,1.666943e+001
1.907161e+003,1.646741e+001
1.908125e+003,1.770105e+001
1.909090e+003,2.011438e+001
1.910054e+003,2.288330e+001
1.911018e+003,2.466724e+001
1.911982e+003,2.533997e+001
1.912947e+003,2.583154e+001
1.913911e+003,2.666296e+001
1.914875e+003,2.742261e+001
1.915839e+003,2.718262e+001
1.916803e+003,2.586621e+001
1.917768e+003,2.556873e+001
1.918732e+003,2.703662e+001
1.919696e+003,2.706067e+001
1.920660e+003,2.472571e+001
1.921625e+003,2.468921e+001
1.922589e+003,3.026917e+001
1.923553e+003,3.371033e+001
1.924517e+003,2.657019e+001
1.925481e+003,1.958887e+001
1.926446e+003,2.425940e+001
1.927410e+003,3.520105e+001
1.928374e+003,4.207556e+001
1.929338e+003,4.373438e+001
1.930303e+003,4.238501e+001
1.931267e+003,3.811890e+001
1.932231e+003,3.526855e+001
1.933195e+003,3.564075e+001
1.934160e+003,3.693909e+001
1.935124e+003,3.839111e+001
1.936088e+003,3.877197e+001
1.937052e+003,3.666089e+001
1.938017e+003,3.330273e+001
1.938981e+003,3.064648e+001
1.939945e+003,2.904749e+001
1.940909e+003,2.804224e+001
1.941874e+003,2.730859e+001
1.942838e+003,2.729663e+001
1.943802e+003,2.896814e+001
1.944766e+003,3.189099e+001
1.945730e+003,3.394727e+001
1.946695e+003,3.496399e+001
1.947659e+003,3.756421e+001
1.948623e+003,4.214258e+001
1.949587e+003,4.133704e+001
1.950552e+003,3.285620e+001
1.951516e+003,2.652795e+001
1.952480e+003,2.571814e+001
1.953444e+003,2.755554e+001
1.954408e+003,3.150464e+001
1.955373e+003,3.486536e+001
1.956337e+003,3.360120e+001
1.957301e+003,2.975073e+001
1.958265e+003,2.841333e+001
1.959230e+003,2.999524e+001
1.960194e+003,3.230188e+001
1.961158e+003,3.504517e+001
1.962122e+003,3.652002e+001
1.963087e+003,3.470703e+001
1.964051e+003,3.373596e+001
1.965015e+003,3.743774e+001
1.965979e+003,4.291028e+001
1.966944e+003,4.820740e+001
1.967908e+003,5.129858e+001
1.968872e+003,4.847632e+001
1.969836e+003,4.121838e+001
1.970801e+003,3.600146e+001
1.971765e+003,3.571655e+001
1.972729e+003,3.924487e+001
1.973693e+003,4.681580e+001
1.974657e+003,5.394629e+001
1.975622e+003,5.225110e+001
1.976586e+003,4.502295e+001
1.977550e+003,4.154797e+001
1.978514e+003,4.184595e+001
1.979479e+003,4.383789e+001
1.980443e+003,4.690723e+001
1.981407e+003,4.901489e+001
1.982371e+003,4.962878e+001
1.983335e+003,4.927478e+001
1.984300e+003,4.777747e+001
1.985264e+003,4.628333e+001
1.986228e+003,4.721899e+001
1.987192e+003,4.979919e+001
1.988157e+003,4.996143e+001
1.989121e+003,4.747900e+001
1.990085e+003,4.480725e+001
1.991049e+003,4.077820e+001
1.992014e+003,3.960352e+001
1.992978e+003,4.253381e+001
1.993942e+003,4.674622e+001
1.994906e+003,5.400439e+001
1.995871e+003,5.946765e+001
1.996835e+003,5.870996e+001
1.997799e+003,5.479590e+001
1.998763e+003,5.050354e+001
1.999728e+003,4.677258e+001
