5.003444e+002,2.176782e+001
5.013087e+002,1.775366e+001
5.022729e+002,1.563586e+001
5.032371e+002,1.587659e+001
5.042014e+002,1.812695e+001
5.051656e+002,2.203174e+001
5.061298e+002,2.470496e+001
5.070941e+002,2.304913e+001
5.080583e+002,1.528241e+001
5.090225e+002,1.207440e+001
5.099868e+002,1.631171e+001
5.109510e+002,2.049896e+001
5.119152e+002,2.029468e+001
5.128795e+002,1.523859e+001
5.138437e+002,1.139532e+001
5.148079e+002,1.119501e+001
5.157722e+002,1.249481e+001
5.167364e+002,1.562018e+001
5.177006e+002,1.961932e+001
5.186649e+002,2.197180e+001
5.196291e+002,1.821179e+001
5.205933e+002,1.293719e+001
5.215576e+002,1.081415e+001
5.225218e+002,1.184827e+001
5.234860e+002,1.399109e+001
5.244503e+002,1.406342e+001
5.254145e+002,1.182330e+001
5.263787e+002,1.101959e+001
5.273430e+002,1.241370e+001
5.283072e+002,1.472388e+001
5.292714e+002,1.612341e+001
5.302357e+002,1.591382e+001
5.311999e+002,1.442426e+001
5.321641e+002,1.197717e+001
5.331284e+002,9.491760e+000
5.340926e+002,7.084045e+000
5.350568e+002,4.465576e+000
5.360211e+002,2.558533e+000
5.369853e+002,3.174622e+000
5.379495e+002,5.199707e+000
5.389138e+002,8.137451e+000
5.398780e+002,1.146094e+001
5.408422e+002,1.445459e+001
5.418065e+002,1.528241e+001
5.427707e+002,1.413519e+001
5.437349e+002,1.134625e+001
5.446992e+002,6.001099e+000
5.456634e+002,-4.954224e-001
5.466276e+002,-2.943970e+000
5.475919e+002,4.569214e+000
5.485561e+002,9.463501e+000
5.495203e+002,9.677490e+000
5.504846e+002,7.156128e+000
5.514488e+002,4.781128e+000
5.524130e+002,3.611755e+000
5.533773e+002,3.291992e+000
5.543415e+002,3.674377e+000
5.553057e+002,4.500977e+000
5.562700e+002,5.496643e+000
5.572342e+002,6.424500e+000
5.581984e+002,7.140930e+000
5.591627e+002,7.876160e+000
5.601269e+002,8.779175e+000
5.610911e+002,9.405151e+000
5.620554e+002,9.344238e+000
5.630196e+002,8.510315e+000
5.639838e+002,7.869080e+000
5.649481e+002,8.482422e+000
5.659123e+002,7.835510e+000
5.668765e+002,4.980957e+000
5.678408e+002,1.185608e+000
5.688050e+002,-6.483154e-001
5.697692e+002,8.456421e-001
5.707335e+002,2.044250e+000
5.716977e+002,2.313599e+000
5.726619e+002,1.876404e+000
5.736262e+002,1.039917e+000
5.745904e+002,-4.760742e-003
5.755546e+002,-8.776245e-001
5.765189e+002,-1.665405e+000
5.774831e+002,-2.574829e+000
5.784473e+002,-3.304199e+000
5.794116e+002,-3.441223e+000
5.803758e+002,-2.688416e+000
5.813400e+002,-1.317627e+000
5.823043e+002,7.279663e-001
5.832685e+002,1.266907e+000
5.842327e+002,-1.124268e+000
5.851970e+002,-5.458496e+000
5.861612e+002,-7.333618e+000
5.871254e+002,-4.107117e+000
5.880897e+002,-1.193176e+000
5.890539e+002,6.170654e-002
5.900181e+002,1.008911e-001
5.909824e+002,-2.075195e-003
5.919466e+002,5.486450e-001
5.929108e+002,1.379089e+000
5.938751e+002,2.174500e+000
5.948393e+002,2.826782e+000
5.958035e+002,3.286682e+000
5.967678e+002,3.587585e+000
5.977320e+002,3.850464e+000
5.986962e+002,3.083618e+000
5.996605e+002,6.366577e-001
6.006247e+002,-1.384094e+000
6.015889e+002,-1.489136e+000
6.025532e+002,1.774292e-001
6.035174e+002,5.693359e-001
6.044816e+002,-2.160767e+000
6.054459e+002,-4.049500e+000
6.064101e+002,-4.150024e+000
6.073743e+002,-3.137573e+000
6.083386e+002,-2.226257e+000
6.093028e+002,-1.911682e+000
6.102670e+002,-1.772522e+000
6.112313e+002,-2.180847e+000
6.121955e+002,-2.462708e+000
6.131597e+002,-1.448669e+000
6.141240e+002,1.596375e+000
6.150882e+002,5.784302e+000
6.160524e+002,7.809998e+000
6.170167e+002,8.293640e+000
6.179809e+002,7.549927e+000
6.189451e+002,4.866760e+000
6.199094e+002,4.624634e-001
6.208736e+002,-2.114502e+000
6.218378e+002,3.613281e-001
6.228021e+002,2.109680e+000
6.237663e+002,1.868042e+000
6.247305e+002,9.666748e-001
6.256948e+002,1.784180e+000
6.266590e+002,6.060547e+000
6.276232e+002,8.842590e+000
6.285875e+002,6.985779e+000
6.295517e+002,3.302795e+000
6.305159e+002,2.644653e-001
6.314802e+002,-8.497925e-001
6.324444e+002,-7.189331e-001
6.334086e+002,3.666992e-001
6.343729e+002,2.278503e+000
6.353371e+002,3.126770e+000
6.363013e+002,1.907532e+000
6.372656e+002,-8.110352e-001
6.382298e+002,-2.561096e+000
6.391940e+002,-2.424438e+000
6.401583e+002,-2.789063e+000
6.411225e+002,-3.006958e+000
6.420867e+002,-3.044373e+000
6.430510e+002,-3.556580e+000
6.440152e+002,-5.664612e+000
6.449794e+002,-6.736938e+000
6.459437e+002,-4.144043e+000
6.469079e+002,-1.015076e+000
6.478721e+002,8.203125e-002
6.488364e+002,-1.471375e+000
6.498006e+002,-3.694458e+000
6.507648e+002,-3.025574e+000
6.517291e+002,-6.826172e-001
6.526933e+002,8.327637e-001
6.536575e+002,1.016724e+000
6.546218e+002,2.214355e-001
6.555860e+002,-9.210205e-001
6.565502e+002,-3.088318e+000
6.575145e+002,-4.128235e+000
6.584787e+002,-3.606323e+000
6.594429e+002,-2.406677e+000
6.604072e+002,-9.846191e-001
6.613714e+002,6.921997e-001
6.623356e+002,1.956604e+000
6.632999e+002,2.566284e+000
6.642641e+002,2.007141e+000
6.652283e+002,-1.870117e-001
6.661926e+002,-3.480469e+000
6.671568e+002,-6.812927e+000
6.681210e+002,-9.524170e+000
6.690853e+002,-1.124762e+001
6.700495e+002,-1.081116e+001
6.710137e+002,-8.268616e+000
6.719780e+002,-4.720703e+000
6.729422e+002,-1.187622e+000
6.739064e+002,2.461487e+000
6.748707e+002,3.722107e+000
6.758349e+002,1.948364e+000
6.767991e+002,-8.514404e-001
6.777634e+002,-5.083252e+000
6.787276e+002,-9.700500e+000
6.796918e+002,-9.920898e+000
6.806561e+002,7.039185e-001
6.816203e+002,1.010272e+001
6.825845e+002,1.352838e+001
6.835488e+002,1.256537e+001
6.845130e+002,1.013605e+001
6.854772e+002,8.347839e+000
6.864415e+002,7.358765e+000
6.874057e+002,6.509766e+000
6.883699e+002,5.402954e+000
6.893342e+002,4.407166e+000
6.902984e+002,3.875488e+000
6.912626e+002,3.925049e+000
6.922269e+002,4.305542e+000
6.931911e+002,6.642761e+000
6.941553e+002,8.514648e+000
6.951196e+002,9.144409e+000
6.960838e+002,8.532898e+000
6.970480e+002,6.857849e+000
6.980123e+002,3.799316e+000
6.989765e+002,1.305542e+000
6.999407e+002,-1.642456e-001
7.009050e+002,-8.785400e-001
7.018692e+002,-7.934570e-001
7.028334e+002,-9.173584e-002
7.037977e+002,5.420532e-001
7.047619e+002,-2.030029e-001
7.057261e+002,-1.045288e+000
7.066904e+002,5.232544e-001
7.076546e+002,4.852295e+000
7.086188e+002,9.483887e+000
7.095831e+002,1.030591e+001
7.105473e+002,5.102966e+000
7.115115e+002,2.128052e+000
7.124758e+002,2.439331e+000
7.134400e+002,3.095947e+000
7.144042e+002,2.482666e+000
7.153685e+002,7.321167e-001
7.163327e+002,-6.290283e-001
7.172969e+002,-1.323547e+000
7.182612e+002,-8.599243e-001
7.192254e+002,1.781555e+000
7.201896e+002,5.473999e+000
7.211539e+002,8.301758e+000
7.221181e+002,8.717285e+000
7.230823e+002,7.312744e+000
7.240466e+002,5.840088e+000
7.250108e+002,4.691895e+000
7.259750e+002,3.791565e+000
7.269393e+002,2.629028e+000
7.279035e+002,7.587891e-001
7.288677e+002,-1.223206e+000
7.298320e+002,-2.715393e+000
7.307962e+002,-2.936951e+000
7.317604e+002,-1.229675e+000
7.327247e+002,1.676086e+000
7.336889e+002,4.651855e+000
7.346531e+002,7.020264e+000
7.356174e+002,7.464905e+000
7.365816e+002,4.734619e+000
7.375458e+002,2.260498e+000
7.385101e+002,3.232056e+000
7.394743e+002,7.994141e+000
7.404385e+002,1.373566e+001
7.414028e+002,1.596222e+001
7.423670e+002,1.423511e+001
7.433312e+002,1.230298e+001
7.442955e+002,1.114343e+001
7.452597e+002,1.064819e+001
7.462239e+002,1.011963e+001
7.471882e+002,8.951355e+000
7.481524e+002,9.507263e+000
7.491166e+002,1.227490e+001
7.500809e+002,1.441425e+001
7.510451e+002,1.539893e+001
7.520093e+002,1.498663e+001
7.529736e+002,1.264026e+001
7.539378e+002,7.569031e+000
7.549020e+002,2.555908e+000
7.558663e+002,-2.062988e+000
7.568306e+002,-5.265198e+000
7.577948e+002,-5.283630e+000
7.587590e+002,-1.417297e+000
7.597233e+002,4.325684e+000
7.606875e+002,6.862915e+000
7.616517e+002,6.938782e+000
7.626160e+002,7.018799e+000
7.635802e+002,7.603943e+000
7.645444e+002,8.818848e+000
7.655087e+002,1.110773e+001
7.664729e+002,1.596423e+001
7.674371e+002,1.796399e+001
7.684014e+002,1.547095e+001
7.693656e+002,1.175159e+001
7.703298e+002,8.415527e+000
7.712941e+002,5.954102e+000
7.722583e+002,4.666626e+000
7.732225e+002,5.288879e+000
7.741868e+002,6.774292e+000
7.751510e+002,8.586853e+000
7.761152e+002,1.056268e+001
7.770795e+002,1.264764e+001
7.780437e+002,1.473853e+001
7.790079e+002,1.649701e+001
7.799722e+002,1.554401e+001
7.809364e+002,1.157813e+001
7.819006e+002,8.392578e+000
7.828649e+002,8.315247e+000
7.838291e+002,1.065778e+001
7.847933e+002,1.220978e+001
7.857576e+002,1.150037e+001
7.867218e+002,1.074164e+001
7.876860e+002,1.152240e+001
7.886503e+002,1.256226e+001
7.896145e+002,1.265509e+001
7.905787e+002,1.151147e+001
7.915430e+002,1.002252e+001
7.925072e+002,8.223633e+000
7.934714e+002,6.309143e+000
7.944357e+002,5.285400e+000
7.953999e+002,5.437134e+000
7.963641e+002,6.240967e+000
7.973284e+002,6.900269e+000
7.982926e+002,7.364746e+000
7.992568e+002,8.983215e+000
8.002211e+002,1.190771e+001
8.011853e+002,1.318420e+001
8.021495e+002,1.176489e+001
8.031138e+002,9.180847e+000
8.040780e+002,8.675354e+000
8.050422e+002,1.114862e+001
8.060065e+002,1.378070e+001
8.069707e+002,1.627863e+001
8.079349e+002,1.750519e+001
8.088992e+002,1.570795e+001
8.098634e+002,1.090625e+001
8.108276e+002,6.458984e+000
8.117919e+002,7.264099e+000
8.127561e+002,1.073083e+001
8.137203e+002,1.388397e+001
8.146846e+002,1.685022e+001
8.156488e+002,1.899609e+001
8.166130e+002,1.894452e+001
8.175773e+002,1.591864e+001
8.185415e+002,1.449243e+001
8.195057e+002,1.437695e+001
8.204700e+002,1.484558e+001
8.214342e+002,1.636029e+001
8.223984e+002,1.830780e+001
8.233627e+002,1.899701e+001
8.243269e+002,1.721710e+001
8.252911e+002,1.585364e+001
8.262554e+002,1.741266e+001
8.272196e+002,1.956940e+001
8.281838e+002,1.935181e+001
8.291481e+002,1.599792e+001
8.301123e+002,1.185944e+001
8.310765e+002,1.137286e+001
8.320408e+002,1.406146e+001
8.330050e+002,1.474066e+001
8.339692e+002,1.283008e+001
8.349335e+002,1.033392e+001
8.358977e+002,9.236023e+000
8.368619e+002,9.858093e+000
8.378262e+002,1.177014e+001
8.387904e+002,1.626709e+001
8.397546e+002,1.966467e+001
8.407189e+002,2.105115e+001
8.416831e+002,2.082037e+001
8.426473e+002,1.943689e+001
8.436116e+002,1.678851e+001
8.445758e+002,1.477539e+001
8.455400e+002,1.500726e+001
8.465043e+002,1.601642e+001
8.474685e+002,1.709692e+001
8.484327e+002,1.835199e+001
8.493970e+002,2.014075e+001
8.503612e+002,2.247119e+001
8.513254e+002,2.534070e+001
8.522897e+002,2.633942e+001
8.532539e+002,2.390515e+001
8.542181e+002,2.119391e+001
8.551824e+002,2.083923e+001
8.561466e+002,2.303802e+001
8.571108e+002,2.511853e+001
8.580751e+002,2.484851e+001
8.590393e+002,2.395514e+001
8.600035e+002,2.305743e+001
8.609678e+002,2.275037e+001
8.619320e+002,2.382574e+001
8.628962e+002,2.640472e+001
8.638605e+002,2.913586e+001
8.648247e+002,2.986487e+001
8.657889e+002,2.918787e+001
8.667532e+002,2.852179e+001
8.677174e+002,2.804840e+001
8.686816e+002,2.766626e+001
8.696459e+002,2.731036e+001
8.706101e+002,2.715039e+001
8.715743e+002,2.791174e+001
8.725386e+002,3.123309e+001
8.735028e+002,3.345123e+001
8.744670e+002,3.158667e+001
8.754313e+002,2.772766e+001
8.763955e+002,2.656384e+001
8.773597e+002,3.053796e+001
8.783240e+002,3.518524e+001
8.792882e+002,3.803339e+001
8.802524e+002,3.910034e+001
8.812167e+002,3.737549e+001
8.821809e+002,3.342413e+001
8.831451e+002,2.972656e+001
8.841094e+002,2.971307e+001
8.850736e+002,3.358008e+001
8.860378e+002,3.571149e+001
8.870021e+002,3.531183e+001
8.879663e+002,3.509180e+001
8.889305e+002,3.687335e+001
8.898948e+002,3.991998e+001
8.908590e+002,4.104498e+001
8.918232e+002,3.844659e+001
8.927875e+002,3.751654e+001
8.937517e+002,4.080969e+001
8.947159e+002,4.502380e+001
8.956802e+002,4.639185e+001
8.966444e+002,4.430872e+001
8.976086e+002,4.256671e+001
8.985729e+002,4.661224e+001
8.995371e+002,5.294568e+001
9.005013e+002,5.485486e+001
9.014656e+002,5.298523e+001
9.024298e+002,5.021765e+001
9.033940e+002,4.827411e+001
9.043583e+002,4.678613e+001
9.053225e+002,4.596661e+001
9.062867e+002,4.564508e+001
9.072510e+002,4.561621e+001
9.082152e+002,4.757684e+001
9.091794e+002,4.983508e+001
9.101437e+002,5.013983e+001
9.111079e+002,4.805469e+001
9.120721e+002,4.648676e+001
9.130364e+002,4.758569e+001
9.140006e+002,4.841370e+001
9.149648e+002,4.710828e+001
9.159291e+002,4.487634e+001
9.168933e+002,4.392804e+001
9.178575e+002,4.555963e+001
9.188218e+002,4.872589e+001
9.197860e+002,5.071722e+001
9.207502e+002,5.130695e+001
9.217145e+002,5.155823e+001
9.226787e+002,5.224957e+001
9.236429e+002,5.333057e+001
9.246072e+002,5.431915e+001
9.255714e+002,5.491022e+001
9.265356e+002,5.496973e+001
9.274999e+002,5.399042e+001
9.284641e+002,5.255640e+001
9.294283e+002,5.123456e+001
9.303926e+002,4.990607e+001
9.313568e+002,4.796588e+001
9.323210e+002,4.499878e+001
9.332853e+002,4.188214e+001
9.342495e+002,4.026331e+001
9.352137e+002,3.931091e+001
9.361780e+002,3.804297e+001
9.371422e+002,3.665057e+001
9.381064e+002,3.657477e+001
9.390707e+002,3.967279e+001
9.400349e+002,4.644720e+001
9.409991e+002,4.915778e+001
9.419634e+002,4.406311e+001
9.429276e+002,4.001727e+001
9.438918e+002,4.053168e+001
9.448561e+002,4.335449e+001
9.458203e+002,4.411328e+001
9.467845e+002,4.116754e+001
9.477488e+002,3.927728e+001
9.487130e+002,4.397174e+001
9.496772e+002,4.958435e+001
9.506415e+002,5.151685e+001
9.516057e+002,4.966608e+001
9.525699e+002,4.644586e+001
9.535342e+002,4.411414e+001
9.544984e+002,4.246130e+001
9.554626e+002,4.161115e+001
9.564269e+002,4.229718e+001
9.573911e+002,4.357227e+001
9.583553e+002,4.560248e+001
9.593196e+002,4.757690e+001
9.602838e+002,4.783484e+001
9.612480e+002,4.548090e+001
9.622123e+002,4.421637e+001
9.631765e+002,4.702661e+001
9.641407e+002,4.960229e+001
9.651050e+002,4.963232e+001
9.660692e+002,4.746576e+001
9.670334e+002,4.443762e+001
9.679977e+002,4.161542e+001
9.689619e+002,3.987665e+001
9.699261e+002,4.086395e+001
9.708904e+002,4.331799e+001
9.718546e+002,4.476038e+001
9.728188e+002,4.420557e+001
9.737831e+002,4.338489e+001
9.747473e+002,4.548022e+001
9.757115e+002,5.183429e+001
9.766758e+002,5.466235e+001
9.776400e+002,5.128735e+001
9.786042e+002,4.849164e+001
9.795685e+002,4.784698e+001
9.805327e+002,4.798218e+001
9.814969e+002,4.699207e+001
9.824612e+002,4.456122e+001
9.834254e+002,4.308582e+001
9.843896e+002,4.551373e+001
9.853539e+002,4.895001e+001
9.863181e+002,5.011975e+001
9.872823e+002,4.889301e+001
9.882466e+002,4.743188e+001
9.892108e+002,4.807520e+001
9.901750e+002,5.121716e+001
9.911393e+002,5.440997e+001
9.921035e+002,5.569281e+001
9.930677e+002,5.726398e+001
9.940320e+002,5.975146e+001
9.949962e+002,6.317926e+001
9.959604e+002,6.773419e+001
9.969247e+002,7.346295e+001
9.978889e+002,7.964459e+001
9.988531e+002,8.663641e+001
9.998174e+002,9.127899e+001
1.000782e+003,9.051477e+001
1.001746e+003,8.770215e+001
1.002710e+003,8.775653e+001
1.003674e+003,9.252075e+001
1.004639e+003,9.923560e+001
1.005603e+003,1.031525e+002
1.006567e+003,1.037447e+002
1.007531e+003,1.035724e+002
1.008495e+003,1.028548e+002
1.009460e+003,1.012465e+002
1.010424e+003,9.813910e+001
1.011388e+003,9.411987e+001
1.012352e+003,9.111548e+001
1.013317e+003,8.934222e+001
1.014281e+003,8.800342e+001
1.015245e+003,8.730096e+001
1.016209e+003,8.594629e+001
1.017174e+003,8.321112e+001
1.018138e+003,7.910724e+001
1.019102e+003,7.375763e+001
1.020066e+003,6.708215e+001
1.021031e+003,6.064948e+001
1.021995e+003,5.921674e+001
1.022959e+003,6.110828e+001
1.023923e+003,6.028748e+001
1.024887e+003,5.390912e+001
1.025852e+003,4.522607e+001
1.026816e+003,3.989398e+001
1.027780e+003,3.931543e+001
1.028744e+003,3.747742e+001
1.029709e+003,3.111206e+001
1.030673e+003,2.650604e+001
1.031637e+003,2.626477e+001
1.032601e+003,2.828876e+001
1.033566e+003,2.997864e+001
1.034530e+003,3.053851e+001
1.035494e+003,3.054333e+001
1.036458e+003,2.999573e+001
1.037422e+003,2.924078e+001
1.038387e+003,2.927563e+001
1.039351e+003,2.987305e+001
1.040315e+003,2.977472e+001
1.041279e+003,2.792651e+001
1.042244e+003,2.537994e+001
1.043208e+003,2.656512e+001
1.044172e+003,3.521869e+001
1.045136e+003,4.001245e+001
1.046101e+003,3.924603e+001
1.047065e+003,3.685669e+001
1.048029e+003,3.459552e+001
1.048993e+003,3.265466e+001
1.049958e+003,3.110193e+001
1.050922e+003,3.029938e+001
1.051886e+003,2.998138e+001
1.052850e+003,2.904211e+001
1.053814e+003,2.849341e+001
1.054779e+003,3.069360e+001
1.055743e+003,3.552838e+001
1.056707e+003,3.931158e+001
1.057671e+003,3.740051e+001
1.058636e+003,2.963617e+001
1.059600e+003,2.579236e+001
1.060564e+003,3.000256e+001
1.061528e+003,3.324384e+001
1.062493e+003,3.270239e+001
1.063457e+003,3.071240e+001
1.064421e+003,3.068286e+001
1.065385e+003,3.313275e+001
1.066349e+003,3.416504e+001
1.067314e+003,3.031708e+001
1.068278e+003,2.627557e+001
1.069242e+003,2.540472e+001
1.070206e+003,2.683673e+001
1.071171e+003,2.902057e+001
1.072135e+003,3.096222e+001
1.073099e+003,3.243146e+001
1.074063e+003,3.345105e+001
1.075028e+003,3.420209e+001
1.075992e+003,3.468616e+001
1.076956e+003,3.445538e+001
1.077920e+003,3.389215e+001
1.078885e+003,3.365289e+001
1.079849e+003,3.372766e+001
1.080813e+003,3.362634e+001
1.081777e+003,3.323834e+001
1.082741e+003,3.342188e+001
1.083706e+003,3.408331e+001
1.084670e+003,3.482245e+001
1.085634e+003,3.604108e+001
1.086598e+003,3.708636e+001
1.087563e+003,3.671503e+001
1.088527e+003,3.459515e+001
1.089491e+003,3.230640e+001
1.090455e+003,3.231989e+001
1.091420e+003,3.452686e+001
1.092384e+003,3.526880e+001
1.093348e+003,3.390491e+001
1.094312e+003,3.152246e+001
1.095276e+003,2.828448e+001
1.096241e+003,2.516071e+001
1.097205e+003,2.463947e+001
1.098169e+003,2.790607e+001
1.099133e+003,2.989734e+001
1.100098e+003,2.720624e+001
1.101062e+003,2.461310e+001
1.102026e+003,2.520612e+001
1.102990e+003,2.852380e+001
1.103955e+003,3.304877e+001
1.104919e+003,3.768402e+001
1.105883e+003,4.098181e+001
1.106847e+003,3.929877e+001
1.107812e+003,3.255603e+001
1.108776e+003,3.030096e+001
1.109740e+003,3.489459e+001
1.110704e+003,3.992841e+001
1.111668e+003,4.069574e+001
1.112633e+003,3.863470e+001
1.113597e+003,3.868884e+001
1.114561e+003,4.182727e+001
1.115525e+003,4.480347e+001
1.116490e+003,4.695624e+001
1.117454e+003,4.819592e+001
1.118418e+003,4.778467e+001
1.119382e+003,4.706805e+001
1.120347e+003,4.864551e+001
1.121311e+003,5.367505e+001
1.122275e+003,5.942346e+001
1.123239e+003,6.168384e+001
1.124203e+003,6.131372e+001
1.125168e+003,6.116864e+001
1.126132e+003,6.141284e+001
1.127096e+003,6.242334e+001
1.128060e+003,6.455182e+001
1.129025e+003,6.733044e+001
1.129989e+003,6.931604e+001
1.130953e+003,6.965527e+001
1.131917e+003,7.038971e+001
1.132882e+003,7.292963e+001
1.133846e+003,7.560797e+001
1.134810e+003,7.640570e+001
1.135774e+003,7.667957e+001
1.136739e+003,7.987701e+001
1.137703e+003,8.782623e+001
1.138667e+003,9.761719e+001
1.139631e+003,1.040723e+002
1.140595e+003,1.075671e+002
1.141560e+003,1.127555e+002
1.142524e+003,1.198154e+002
1.143488e+003,1.302457e+002
1.144452e+003,1.466364e+002
1.145417e+003,1.670701e+002
1.146381e+003,1.839003e+002
1.147345e+003,1.941024e+002
1.148309e+003,2.078802e+002
1.149274e+003,2.310131e+002
1.150238e+003,2.552413e+002
1.151202e+003,2.780179e+002
1.152166e+003,2.987974e+002
1.153130e+003,3.174070e+002
1.154095e+003,3.332830e+002
1.155059e+003,3.455459e+002
1.156023e+003,3.543853e+002
1.156987e+003,3.591167e+002
1.157952e+003,3.558636e+002
1.158916e+003,3.448069e+002
1.159880e+003,3.310479e+002
1.160844e+003,3.157065e+002
1.161809e+003,2.980933e+002
1.162773e+003,2.774985e+002
1.163737e+003,2.527851e+002
1.164701e+003,2.306353e+002
1.165666e+003,2.152399e+002
1.166630e+003,2.008900e+002
1.167594e+003,1.831949e+002
1.168558e+003,1.661727e+002
1.169522e+003,1.560153e+002
1.170487e+003,1.541609e+002
1.171451e+003,1.563276e+002
1.172415e+003,1.579457e+002
1.173379e+003,1.588697e+002
1.174344e+003,1.596449e+002
1.175308e+003,1.606928e+002
1.176272e+003,1.598738e+002
1.177236e+003,1.557620e+002
1.178201e+003,1.503840e+002
1.179165e+003,1.461575e+002
1.180129e+003,1.426978e+002
1.181093e+003,1.375820e+002
1.182057e+003,1.286255e+002
1.183022e+003,1.211270e+002
1.183986e+003,1.177581e+002
1.184950e+003,1.161391e+002
1.185914e+003,1.138434e+002
1.186879e+003,1.109694e+002
1.187843e+003,1.095590e+002
1.188807e+003,1.111372e+002
1.189771e+003,1.146378e+002
1.190736e+003,1.178055e+002
1.191700e+003,1.206548e+002
1.192664e+003,1.220187e+002
1.193628e+003,1.217258e+002
1.194593e+003,1.207093e+002
1.195557e+003,1.194847e+002
1.196521e+003,1.178778e+002
1.197485e+003,1.156089e+002
1.198449e+003,1.128196e+002
1.199414e+003,1.090960e+002
1.200378e+003,1.031056e+002
1.201342e+003,9.725244e+001
1.202306e+003,9.282172e+001
1.203271e+003,8.947571e+001
1.204235e+003,8.663202e+001
1.205199e+003,8.400012e+001
1.206163e+003,8.129224e+001
1.207128e+003,7.790125e+001
1.208092e+003,7.386633e+001
1.209056e+003,6.881635e+001
1.210020e+003,6.163330e+001
1.210984e+003,5.585394e+001
1.211949e+003,5.361047e+001
1.212913e+003,5.236658e+001
1.213877e+003,4.874756e+001
1.214841e+003,4.275879e+001
1.215806e+003,3.760626e+001
1.216770e+003,3.465814e+001
1.217734e+003,3.242004e+001
1.218698e+003,2.907202e+001
1.219663e+003,2.566412e+001
1.220627e+003,2.355829e+001
1.221591e+003,2.302234e+001
1.222555e+003,2.377838e+001
1.223520e+003,2.574811e+001
1.224484e+003,2.854846e+001
1.225448e+003,2.933618e+001
1.226412e+003,2.706689e+001
1.227376e+003,2.457770e+001
1.228341e+003,2.110675e+001
1.229305e+003,1.790985e+001
1.230269e+003,1.545770e+001
1.231233e+003,1.376605e+001
1.232198e+003,1.308734e+001
1.233162e+003,1.374615e+001
1.234126e+003,1.523523e+001
1.235090e+003,1.720459e+001
1.236055e+003,1.911871e+001
1.237019e+003,2.149615e+001
1.237983e+003,2.324792e+001
1.238947e+003,2.093195e+001
1.239911e+003,1.347302e+001
1.240876e+003,6.508301e+000
1.241840e+003,8.909241e+000
1.242804e+003,2.147839e+001
1.243768e+003,2.903564e+001
1.244733e+003,2.742761e+001
1.245697e+003,2.593848e+001
1.246661e+003,2.388477e+001
1.247625e+003,2.240607e+001
1.248590e+003,2.313373e+001
1.249554e+003,2.579388e+001
1.250518e+003,2.881354e+001
1.251482e+003,3.131183e+001
1.252447e+003,3.255731e+001
1.253411e+003,3.134991e+001
1.254375e+003,2.918536e+001
1.255339e+003,2.882135e+001
1.256303e+003,3.055951e+001
1.257268e+003,3.302472e+001
1.258232e+003,3.512720e+001
1.259196e+003,3.668744e+001
1.260160e+003,3.817395e+001
1.261125e+003,4.004614e+001
1.262089e+003,4.183270e+001
1.263053e+003,4.131409e+001
1.264017e+003,4.253534e+001
1.264982e+003,4.944324e+001
1.265946e+003,5.668658e+001
1.266910e+003,5.879742e+001
1.267874e+003,5.605591e+001
1.268839e+003,5.262146e+001
1.269803e+003,5.126782e+001
1.270767e+003,5.083746e+001
1.271731e+003,4.912512e+001
1.272695e+003,4.639240e+001
1.273660e+003,4.428857e+001
1.274624e+003,4.269250e+001
1.275588e+003,3.994244e+001
1.276552e+003,3.438391e+001
1.277517e+003,2.829443e+001
1.278481e+003,2.575159e+001
1.279445e+003,2.706647e+001
1.280409e+003,2.806879e+001
1.281374e+003,2.730206e+001
1.282338e+003,2.627484e+001
1.283302e+003,2.608575e+001
1.284266e+003,2.577789e+001
1.285230e+003,2.405566e+001
1.286195e+003,2.087024e+001
1.287159e+003,1.708606e+001
1.288123e+003,1.361627e+001
1.289087e+003,1.126440e+001
1.290052e+003,1.163232e+001
1.291016e+003,1.538239e+001
1.291980e+003,1.822455e+001
1.292944e+003,2.029364e+001
1.293909e+003,2.052515e+001
1.294873e+003,1.765320e+001
1.295837e+003,1.396802e+001
1.296801e+003,1.241266e+001
1.297766e+003,1.333472e+001
1.298730e+003,1.512823e+001
1.299694e+003,1.722681e+001
1.300658e+003,1.859949e+001
1.301622e+003,1.733893e+001
1.302587e+003,1.540167e+001
1.303551e+003,1.613971e+001
1.304515e+003,2.009222e+001
1.305479e+003,2.462402e+001
1.306444e+003,2.753674e+001
1.307408e+003,2.877771e+001
1.308372e+003,2.875970e+001
1.309336e+003,2.715869e+001
1.310301e+003,2.513226e+001
1.311265e+003,2.238776e+001
1.312229e+003,2.024939e+001
1.313193e+003,1.947302e+001
1.314157e+003,1.904370e+001
1.315122e+003,1.763678e+001
1.316086e+003,1.521326e+001
1.317050e+003,1.293677e+001
1.318014e+003,1.177380e+001
1.318979e+003,1.158502e+001
1.319943e+003,1.183075e+001
1.320907e+003,1.275427e+001
1.321871e+003,1.435803e+001
1.322836e+003,1.621820e+001
1.323800e+003,1.790845e+001
1.324764e+003,1.927374e+001
1.325728e+003,2.049365e+001
1.326693e+003,2.188660e+001
1.327657e+003,2.320496e+001
1.328621e+003,2.311066e+001
1.329585e+003,2.182623e+001
1.330549e+003,2.091272e+001
1.331514e+003,1.911566e+001
1.332478e+003,1.744220e+001
1.333442e+003,1.816656e+001
1.334406e+003,2.070551e+001
1.335371e+003,2.194409e+001
1.336335e+003,2.003748e+001
1.337299e+003,1.680707e+001
1.338263e+003,1.552209e+001
1.339228e+003,1.634924e+001
1.340192e+003,1.782068e+001
1.341156e+003,2.205603e+001
1.342120e+003,2.377271e+001
1.343084e+003,1.882745e+001
1.344049e+003,1.323041e+001
1.345013e+003,1.293317e+001
1.345977e+003,1.697882e+001
1.346941e+003,2.079889e+001
1.347906e+003,2.279425e+001
1.348870e+003,2.309454e+001
1.349834e+003,2.073047e+001
1.350798e+003,1.714124e+001
1.351763e+003,1.550659e+001
1.352727e+003,1.577679e+001
1.353691e+003,1.693640e+001
1.354655e+003,1.898224e+001
1.355620e+003,2.076923e+001
1.356584e+003,2.073438e+001
1.357548e+003,1.928418e+001
1.358512e+003,1.863397e+001
1.359476e+003,1.854340e+001
1.360441e+003,1.830060e+001
1.361405e+003,1.807538e+001
1.362369e+003,1.782635e+001
1.363333e+003,1.749738e+001
1.364298e+003,1.719617e+001
1.365262e+003,1.711389e+001
1.366226e+003,1.726813e+001
1.367190e+003,1.743781e+001
1.368155e+003,1.741425e+001
1.369119e+003,1.738232e+001
1.370083e+003,1.806451e+001
1.371047e+003,2.000421e+001
1.372011e+003,2.150616e+001
1.372976e+003,2.207648e+001
1.373940e+003,2.179346e+001
1.374904e+003,1.992065e+001
1.375868e+003,1.814288e+001
1.376833e+003,1.883160e+001
1.377797e+003,2.168646e+001
1.378761e+003,2.401868e+001
1.379725e+003,2.491705e+001
1.380690e+003,2.475214e+001
1.381654e+003,2.332745e+001
1.382618e+003,2.155420e+001
1.383582e+003,2.034015e+001
1.384547e+003,1.982397e+001
1.385511e+003,2.038745e+001
1.386475e+003,2.227386e+001
1.387439e+003,2.431372e+001
1.388403e+003,2.470184e+001
1.389368e+003,2.339117e+001
1.390332e+003,2.233130e+001
1.391296e+003,2.137201e+001
1.392260e+003,2.185596e+001
1.393225e+003,2.582556e+001
1.394189e+003,2.905487e+001
1.395153e+003,2.877533e+001
1.396117e+003,2.634674e+001
1.397082e+003,2.370099e+001
1.398046e+003,2.182990e+001
1.399010e+003,2.125427e+001
1.399974e+003,2.220691e+001
1.400938e+003,2.355463e+001
1.401903e+003,2.328918e+001
1.402867e+003,2.211987e+001
1.403831e+003,2.251733e+001
1.404795e+003,2.391034e+001
1.405760e+003,2.624133e+001
1.406724e+003,3.050995e+001
1.407688e+003,3.329175e+001
1.408652e+003,3.039374e+001
1.409617e+003,2.325385e+001
1.410581e+003,1.797827e+001
1.411545e+003,1.703656e+001
1.412509e+003,1.797540e+001
1.413474e+003,1.849878e+001
1.414438e+003,1.858905e+001
1.415402e+003,1.933148e+001
1.416366e+003,2.104071e+001
1.417330e+003,2.296167e+001
1.418295e+003,2.488251e+001
1.419259e+003,2.665741e+001
1.420223e+003,2.793134e+001
1.421187e+003,2.838013e+001
1.422152e+003,2.758417e+001
1.423116e+003,2.509796e+001
1.424080e+003,2.480756e+001
1.425044e+003,3.040118e+001
1.426009e+003,3.449506e+001
1.426973e+003,3.270325e+001
1.427937e+003,2.844415e+001
1.428901e+003,2.562207e+001
1.429865e+003,2.517883e+001
1.430830e+003,2.649487e+001
1.431794e+003,2.884918e+001
1.432758e+003,3.087634e+001
1.433722e+003,3.027942e+001
1.434687e+003,2.733350e+001
1.435651e+003,2.826385e+001
1.436615e+003,3.503424e+001
1.437579e+003,3.921362e+001
1.438544e+003,3.889056e+001
1.439508e+003,3.743958e+001
1.440472e+003,3.796075e+001
1.441436e+003,3.938281e+001
1.442401e+003,3.822351e+001
1.443365e+003,3.384216e+001
1.444329e+003,3.024835e+001
1.445293e+003,3.067249e+001
1.446257e+003,3.347113e+001
1.447222e+003,3.550049e+001
1.448186e+003,3.684015e+001
1.449150e+003,3.845459e+001
1.450114e+003,4.073944e+001
1.451079e+003,4.128662e+001
1.452043e+003,3.773755e+001
1.453007e+003,3.325555e+001
1.453971e+003,3.212286e+001
1.454936e+003,3.373578e+001
1.455900e+003,3.468994e+001
1.456864e+003,3.441479e+001
1.457828e+003,3.396979e+001
1.458792e+003,3.317310e+001
1.459757e+003,3.250067e+001
1.460721e+003,3.258142e+001
1.461685e+003,3.304541e+001
1.462649e+003,3.323035e+001
1.463614e+003,3.318896e+001
1.464578e+003,3.359296e+001
1.465542e+003,3.507874e+001
1.466506e+003,3.662140e+001
1.467471e+003,3.512708e+001
1.468435e+003,2.983942e+001
1.469399e+003,2.847150e+001
1.470363e+003,3.490991e+001
1.471328e+003,3.903595e+001
1.472292e+003,3.619507e+001
1.473256e+003,3.166980e+001
1.474220e+003,2.983673e+001
1.475184e+003,3.036194e+001
1.476149e+003,3.073016e+001
1.477113e+003,2.995068e+001
1.478077e+003,2.957300e+001
1.479041e+003,3.152728e+001
1.480006e+003,3.558423e+001
1.480970e+003,3.997772e+001
1.481934e+003,4.470007e+001
1.482898e+003,4.717188e+001
1.483863e+003,4.623822e+001
1.484827e+003,4.470325e+001
1.485791e+003,4.287506e+001
1.486755e+003,4.198792e+001
1.487719e+003,4.337231e+001
1.488684e+003,4.602203e+001
1.489648e+003,4.737085e+001
1.490612e+003,4.693549e+001
1.491576e+003,4.784937e+001
1.492541e+003,5.280676e+001
1.493505e+003,5.983319e+001
1.494469e+003,6.462256e+001
1.495433e+003,6.708221e+001
1.496398e+003,7.015710e+001
1.497362e+003,7.515210e+001
1.498326e+003,8.052338e+001
1.499290e+003,8.505359e+001
1.500255e+003,8.961066e+001
1.501219e+003,9.473352e+001
1.502183e+003,1.005443e+002
1.503147e+003,1.083693e+002
1.504111e+003,1.185616e+002
1.505076e+003,1.304987e+002
1.506040e+003,1.447675e+002
1.507004e+003,1.599075e+002
1.507968e+003,1.738867e+002
1.508933e+003,1.877335e+002
1.509897e+003,2.036169e+002
1.510861e+003,2.226715e+002
1.511825e+003,2.446458e+002
1.512790e+003,2.687643e+002
1.513754e+003,2.949093e+002
1.514718e+003,3.244521e+002
1.515682e+003,3.569005e+002
1.516646e+003,3.873349e+002
1.517611e+003,4.160935e+002
1.518575e+003,4.426869e+002
1.519539e+003,4.699944e+002
1.520503e+003,4.929331e+002
1.521468e+003,5.085047e+002
1.522432e+003,5.175891e+002
1.523396e+003,5.221395e+002
1.524360e+003,5.219907e+002
1.525325e+003,5.144985e+002
1.526289e+003,4.980776e+002
1.527253e+003,4.769242e+002
1.528217e+003,4.586301e+002
1.529182e+003,4.437116e+002
1.530146e+003,4.226583e+002
1.531110e+003,3.933730e+002
1.532074e+003,3.606251e+002
1.533039e+003,3.213705e+002
1.534003e+003,2.809664e+002
1.534967e+003,2.406938e+002
1.535931e+003,2.032977e+002
1.536896e+003,1.706219e+002
1.537860e+003,1.434226e+002
1.538824e+003,1.225722e+002
1.539788e+003,1.079952e+002
1.540752e+003,9.665826e+001
1.541717e+003,8.491040e+001
1.542681e+003,7.360107e+001
1.543645e+003,6.642474e+001
1.544609e+003,6.662634e+001
1.545573e+003,6.415790e+001
1.546538e+003,5.502527e+001
1.547502e+003,4.700854e+001
1.548466e+003,4.412372e+001
1.549430e+003,4.405481e+001
1.550395e+003,4.470758e+001
1.551359e+003,4.515930e+001
1.552323e+003,4.462634e+001
1.553287e+003,4.293549e+001
1.554252e+003,4.047998e+001
1.555216e+003,3.734296e+001
1.556180e+003,3.410461e+001
1.557144e+003,3.226819e+001
1.558109e+003,3.210748e+001
1.559073e+003,3.243298e+001
1.560037e+003,3.319452e+001
1.561001e+003,3.271716e+001
1.561966e+003,2.985388e+001
1.562930e+003,2.756128e+001
1.563894e+003,2.893616e+001
1.564858e+003,3.228864e+001
1.565823e+003,3.346069e+001
1.566787e+003,3.169226e+001
1.567751e+003,2.990796e+001
1.568715e+003,2.987268e+001
1.569679e+003,3.081256e+001
1.570644e+003,3.184351e+001
1.571608e+003,3.243964e+001
1.572572e+003,3.216052e+001
1.573536e+003,3.132776e+001
1.574500e+003,3.029633e+001
1.575465e+003,2.810901e+001
1.576429e+003,2.701263e+001
1.577393e+003,3.014246e+001
1.578357e+003,3.472632e+001
1.579322e+003,3.482770e+001
1.580286e+003,3.069080e+001
1.581250e+003,2.914301e+001
1.582214e+003,3.301013e+001
1.583179e+003,3.687354e+001
1.584143e+003,3.602704e+001
1.585107e+003,3.309814e+001
1.586071e+003,3.253656e+001
1.587036e+003,3.405164e+001
1.588000e+003,3.457849e+001
1.588964e+003,3.295123e+001
1.589928e+003,3.212866e+001
1.590893e+003,3.492621e+001
1.591857e+003,3.898474e+001
1.592821e+003,4.058057e+001
1.593785e+003,4.025909e+001
1.594750e+003,4.085449e+001
1.595714e+003,4.272174e+001
1.596678e+003,4.368396e+001
1.597642e+003,4.235730e+001
1.598606e+003,4.075879e+001
1.599571e+003,4.100220e+001
1.600535e+003,4.198309e+001
1.601499e+003,4.200757e+001
1.602463e+003,4.100330e+001
1.603427e+003,3.997778e+001
1.604392e+003,3.932751e+001
1.605356e+003,3.916412e+001
1.606320e+003,3.995007e+001
1.607284e+003,4.124585e+001
1.608249e+003,4.183154e+001
1.609213e+003,4.170923e+001
1.610177e+003,4.061334e+001
1.611141e+003,3.817993e+001
1.612106e+003,3.562024e+001
1.613070e+003,3.359644e+001
1.614034e+003,3.145569e+001
1.614998e+003,2.751227e+001
1.615963e+003,2.367725e+001
1.616927e+003,2.366931e+001
1.617891e+003,2.746155e+001
1.618855e+003,3.117590e+001
1.619820e+003,3.241010e+001
1.620784e+003,3.144873e+001
1.621748e+003,2.869348e+001
1.622712e+003,2.537524e+001
1.623677e+003,2.540833e+001
1.624641e+003,2.980316e+001
1.625605e+003,3.190906e+001
1.626569e+003,2.712036e+001
1.627533e+003,2.257300e+001
1.628498e+003,2.238928e+001
1.629462e+003,2.446039e+001
1.630426e+003,2.819775e+001
1.631390e+003,3.218994e+001
1.632354e+003,3.403589e+001
1.633319e+003,3.315552e+001
1.634283e+003,3.027460e+001
1.635247e+003,2.509265e+001
1.636211e+003,2.048773e+001
1.637176e+003,2.392004e+001
1.638140e+003,3.469031e+001
1.639104e+003,3.754095e+001
1.640068e+003,2.925232e+001
1.641033e+003,2.288043e+001
1.641997e+003,2.271387e+001
1.642961e+003,2.409009e+001
1.643925e+003,2.558307e+001
1.644890e+003,2.652112e+001
1.645854e+003,2.445294e+001
1.646818e+003,2.139636e+001
1.647782e+003,2.379639e+001
1.648747e+003,3.303870e+001
1.649711e+003,4.075635e+001
1.650675e+003,4.002936e+001
1.651639e+003,3.454541e+001
1.652604e+003,3.076929e+001
1.653568e+003,2.838196e+001
1.654532e+003,2.692981e+001
1.655496e+003,2.695404e+001
1.656460e+003,2.586609e+001
1.657425e+003,2.118811e+001
1.658389e+003,1.807312e+001
1.659353e+003,2.105017e+001
1.660317e+003,2.546674e+001
1.661281e+003,2.604065e+001
1.662246e+003,2.337830e+001
1.663210e+003,2.095984e+001
1.664174e+003,2.014441e+001
1.665138e+003,2.022070e+001
1.666103e+003,2.063123e+001
1.667067e+003,2.077686e+001
1.668031e+003,1.948291e+001
1.668995e+003,1.702161e+001
1.669960e+003,1.546277e+001
1.670924e+003,1.500671e+001
1.671888e+003,1.602930e+001
1.672852e+003,2.029468e+001
1.673817e+003,2.308923e+001
1.674781e+003,1.907178e+001
1.675745e+003,1.377112e+001
1.676709e+003,1.442627e+001
1.677674e+003,1.919177e+001
1.678638e+003,2.050903e+001
1.679602e+003,1.608264e+001
1.680566e+003,1.154431e+001
1.681531e+003,1.153223e+001
1.682495e+003,1.425854e+001
1.683459e+003,1.698694e+001
1.684423e+003,1.913098e+001
1.685387e+003,1.817639e+001
1.686352e+003,1.352515e+001
1.687316e+003,1.031335e+001
1.688280e+003,1.055042e+001
1.689244e+003,1.183057e+001
1.690208e+003,1.269360e+001
1.691173e+003,1.318677e+001
1.692137e+003,1.334619e+001
1.693101e+003,1.372656e+001
1.694065e+003,1.499402e+001
1.695030e+003,1.688489e+001
1.695994e+003,1.856677e+001
1.696958e+003,2.034082e+001
1.697922e+003,2.119482e+001
1.698887e+003,1.864502e+001
1.699851e+003,1.446033e+001
1.700815e+003,1.443213e+001
1.701779e+003,1.867419e+001
1.702744e+003,2.052173e+001
1.703708e+003,1.779456e+001
1.704672e+003,1.514709e+001
1.705636e+003,1.607288e+001
1.706601e+003,1.732825e+001
1.707565e+003,1.376465e+001
1.708529e+003,7.606567e+000
1.709493e+003,5.295776e+000
1.710458e+003,7.949097e+000
1.711422e+003,9.948120e+000
1.712386e+003,8.197510e+000
1.713350e+003,6.748779e+000
1.714314e+003,9.670654e+000
1.715279e+003,1.362732e+001
1.716243e+003,1.300391e+001
1.717207e+003,8.380981e+000
1.718171e+003,4.108643e+000
1.719135e+003,1.504517e+000
1.720100e+003,4.973145e-001
1.721064e+003,1.140625e+000
1.722028e+003,2.353516e+000
1.722992e+003,2.896851e+000
1.723957e+003,3.552734e+000
1.724921e+003,6.285156e+000
1.725885e+003,1.112573e+001
1.726849e+003,1.239282e+001
1.727814e+003,6.916504e+000
1.728778e+003,2.706299e+000
1.729742e+003,4.221558e+000
1.730706e+003,7.234741e+000
1.731671e+003,6.557495e+000
1.732635e+003,3.528320e+000
1.733599e+003,3.619873e+000
1.734563e+003,7.398560e+000
1.735528e+003,8.780640e+000
1.736492e+003,4.349121e+000
1.737456e+003,-1.054932e+000
1.738420e+003,-1.689331e+000
1.739385e+003,9.750977e-001
1.740349e+003,3.143311e+000
1.741313e+003,5.359131e+000
1.742277e+003,6.185303e+000
1.743241e+003,5.864868e+000
1.744206e+003,4.743652e+000
1.745170e+003,1.378540e+000
1.746134e+003,-1.615845e+000
1.747098e+003,-3.455688e+000
1.748063e+003,-3.762207e+000
1.749027e+003,-1.019775e+000
1.749991e+003,3.452148e+000
1.750955e+003,6.109741e+000
1.751919e+003,5.837158e+000
1.752884e+003,4.971436e+000
1.753848e+003,5.466431e+000
1.754812e+003,5.997192e+000
1.755776e+003,4.039429e+000
1.756741e+003,1.470947e-001
1.757705e+003,-1.962158e+000
1.758669e+003,-2.250854e+000
1.759633e+003,-2.047241e+000
1.760598e+003,-1.171387e+000
1.761562e+003,-1.035034e+000
1.762526e+003,-2.406372e+000
1.763490e+003,-3.354614e+000
1.764455e+003,-2.305054e+000
1.765419e+003,1.116943e-001
1.766383e+003,3.029907e+000
1.767347e+003,5.661499e+000
1.768312e+003,6.712524e+000
1.769276e+003,5.416870e+000
1.770240e+003,3.019653e+000
1.771204e+003,1.365967e+000
1.772168e+003,5.031738e-001
1.773133e+003,-8.992920e-001
1.774097e+003,-2.671509e+000
1.775061e+003,-2.364624e+000
1.776025e+003,2.336426e-001
1.776990e+003,8.148193e-001
1.777954e+003,-3.003296e+000
1.778918e+003,-5.226440e+000
1.779882e+003,3.143311e-001
1.780846e+003,7.446533e+000
1.781811e+003,7.309082e+000
1.782775e+003,2.366821e+000
1.783739e+003,6.573486e-001
1.784703e+003,3.720459e+000
1.785668e+003,7.050781e+000
1.786632e+003,9.199707e+000
1.787596e+003,9.269775e+000
1.788560e+003,6.116699e+000
1.789525e+003,2.177246e+000
1.790489e+003,-3.201904e-001
1.791453e+003,-1.371826e+000
1.792417e+003,-5.179443e-001
1.793382e+003,2.109009e+000
1.794346e+003,4.588989e+000
1.795310e+003,5.931885e+000
1.796274e+003,5.458740e+000
1.797239e+003,2.469604e+000
1.798203e+003,-1.751831e+000
1.799167e+003,-5.340332e+000
1.800131e+003,-9.777344e+000
1.801095e+003,-1.075232e+001
1.802060e+003,-4.507202e+000
1.803024e+003,7.949219e-001
1.803988e+003,3.862427e+000
1.804952e+003,5.754883e+000
1.805917e+003,6.269897e+000
1.806881e+003,6.411133e+000
1.807845e+003,7.974365e+000
1.808809e+003,9.983398e+000
1.809773e+003,9.497559e+000
1.810738e+003,6.480103e+000
1.811702e+003,4.718018e+000
1.812666e+003,6.466675e+000
1.813630e+003,8.663330e+000
1.814595e+003,7.008057e+000
1.815559e+003,2.468872e+000
1.816523e+003,-4.991455e-001
1.817487e+003,-1.715820e+000
1.818452e+003,-1.775513e+000
1.819416e+003,1.035156e-001
1.820380e+003,2.240601e+000
1.821344e+003,4.355469e+000
1.822309e+003,5.343994e+000
1.823273e+003,4.140991e+000
1.824237e+003,2.623047e+000
1.825201e+003,3.082275e+000
1.826166e+003,4.262817e+000
1.827130e+003,1.971924e+000
1.828094e+003,-4.475586e+000
1.829058e+003,-7.718994e+000
1.830022e+003,-2.351929e+000
1.830987e+003,3.966309e+000
1.831951e+003,4.635498e+000
1.832915e+003,2.619019e+000
1.833879e+003,2.179443e+000
1.834844e+003,2.780396e+000
1.835808e+003,2.037964e+000
1.836772e+003,-2.358398e-001
1.837736e+003,-2.826416e+000
1.838700e+003,-5.514526e+000
1.839665e+003,-6.503174e+000
1.840629e+003,-3.315918e+000
1.841593e+003,1.177246e+000
1.842557e+003,-1.171875e-002
1.843522e+003,-6.785278e+000
1.844486e+003,-9.479248e+000
1.845450e+003,-5.004883e+000
1.846414e+003,-1.014893e+000
1.847379e+003,2.529175e+000
1.848343e+003,3.824341e+000
1.849307e+003,1.152588e+000
1.850271e+003,-2.114380e+000
1.851236e+003,-3.605713e+000
1.852200e+003,-3.655762e+000
1.853164e+003,-3.498657e+000
1.854128e+003,-3.654175e+000
1.855093e+003,-3.524780e+000
1.856057e+003,-2.552979e+000
1.857021e+003,-1.486938e+000
1.857985e+003,-1.200806e+000
1.858949e+003,-1.645386e+000
1.859914e+003,-2.861084e+000
1.860878e+003,-4.468140e+000
1.861842e+003,-5.369141e+000
1.862806e+003,-5.752197e+000
1.863771e+003,-3.762573e+000
1.864735e+003,1.662842e+000
1.865699e+003,4.842896e+000
1.866663e+003,2.724731e+000
1.867627e+003,-3.142090e-001
1.868592e+003,-7.153320e-001
1.869556e+003,-2.663574e-001
1.870520e+003,-1.875732e+000
1.871484e+003,-5.135132e+000
1.872449e+003,-6.881592e+000
1.873413e+003,-5.282837e+000
1.874377e+003,-2.375000e+000
1.875341e+003,1.097168e+000
1.876306e+003,3.475586e+000
1.877270e+003,3.198486e+000
1.878234e+003,1.698975e+000
1.879198e+003,3.874512e-001
1.880163e+003,-6.414795e-001
1.881127e+003,-1.463623e+000
1.882091e+003,-2.078369e+000
1.883055e+003,-2.821899e+000
1.884020e+003,-3.748657e+000
1.884984e+003,-3.659302e+000
1.885948e+003,-1.364258e+000
1.886912e+003,1.774658e+000
1.887876e+003,3.127441e+000
1.888841e+003,2.837402e+000
1.889805e+003,1.803101e+000
1.890769e+003,-1.162109e-001
1.891733e+003,-2.251709e+000
1.892698e+003,-6.001831e+000
1.893662e+003,-7.269653e+000
1.894626e+003,-2.483398e+000
1.895590e+003,2.702881e+000
1.896554e+003,4.660522e+000
1.897519e+003,5.213135e+000
1.898483e+003,6.378296e+000
1.899447e+003,7.214966e+000
1.900411e+003,5.202759e+000
1.901376e+003,-1.051025e-001
1.902340e+003,-4.114990e+000
1.903304e+003,-4.438599e+000
1.904268e+003,-4.322021e+000
1.905233e+003,-5.699463e+000
1.906197e+003,-7.246582e+000
1.907161e+003,-8.241577e+000
1.908125e+003,-7.864990e+000
1.909090e+003,-3.993408e+000
1.910054e+003,1.855957e+000
1.911018e+003,4.485718e+000
1.911982e+003,2.735474e+000
1.912947e+003,7.598877e-001
1.913911e+003,1.465454e+000
1.914875e+003,3.484375e+000
1.915839e+003,4.630127e+000
1.916803e+003,4.538940e+000
1.917768e+003,3.067993e+000
1.918732e+003,1.574707e-001
1.919696e+003,-1.380737e+000
1.920660e+003,-8.920898e-001
1.921625e+003,1.519775e-001
1.922589e+003,1.714966e+000
1.923553e+003,2.617798e+000
1.924517e+003,1.544800e+000
1.925481e+003,2.905273e-001
1.926446e+003,4.614258e-001
1.927410e+003,1.631348e+000
1.928374e+003,2.735840e+000
1.929338e+003,3.448242e+000
1.930303e+003,4.645142e+000
1.931267e+003,7.890137e+000
1.932231e+003,9.847168e+000
1.933195e+003,6.801758e+000
1.934160e+003,3.454224e+000
1.935124e+003,3.586426e+000
1.936088e+003,4.769653e+000
1.937052e+003,5.052490e+000
1.938017e+003,4.286621e+000
1.938981e+003,1.744507e+000
1.939945e+003,-2.197510e+000
1.940909e+003,-5.821167e+000
1.941874e+003,-8.316406e+000
1.942838e+003,-9.092896e+000
1.943802e+003,-7.072998e+000
1.944766e+003,-3.395386e+000
1.945730e+003,-1.299927e+000
1.946695e+003,-9.473877e-001
1.947659e+003,-1.001343e+000
1.948623e+003,-1.675781e+000
1.949587e+003,-1.568115e+000
1.950552e+003,2.023926e-001
1.951516e+003,6.436768e-001
1.952480e+003,-2.438232e+000
1.953444e+003,-4.480591e+000
1.954408e+003,-1.253052e+000
1.955373e+003,3.101074e+000
1.956337e+003,3.171021e+000
1.957301e+003,4.857178e-001
1.958265e+003,-1.834717e+000
1.959230e+003,-3.869629e+000
1.960194e+003,-3.565918e+000
1.961158e+003,5.535889e-001
1.962122e+003,3.510864e+000
1.963087e+003,4.169189e+000
1.964051e+003,3.441162e+000
1.965015e+003,8.580322e-001
1.965979e+003,-1.046875e+000
1.966944e+003,2.886963e-001
1.967908e+003,3.210449e+000
1.968872e+003,5.302002e+000
1.969836e+003,5.992188e+000
1.970801e+003,5.304810e+000
1.971765e+003,3.366089e+000
1.972729e+003,7.036133e-001
1.973693e+003,-2.777710e+000
1.974657e+003,-5.332275e+000
1.975622e+003,-3.742920e+000
1.976586e+003,2.734375e-001
1.977550e+003,3.277832e+000
1.978514e+003,5.102539e+000
1.979479e+003,3.544067e+000
1.980443e+003,-1.457520e+000
1.981407e+003,-3.563354e+000
1.982371e+003,-9.411621e-002
1.983335e+003,4.435059e+000
1.984300e+003,6.523193e+000
1.985264e+003,6.509277e+000
1.986228e+003,4.941162e+000
1.987192e+003,2.350220e+000
1.988157e+003,1.721191e+000
1.989121e+003,3.958130e+000
1.990085e+003,4.463257e+000
1.991049e+003,2.238770e+000
1.992014e+003,8.912354e-001
1.992978e+003,5.227051e-001
1.993942e+003,9.725342e-001
1.994906e+003,4.341797e+000
1.995871e+003,6.356323e+000
1.996835e+003,1.384644e+000
1.997799e+003,-5.117798e+000
1.998763e+003,-4.190552e+000
1.999728e+003,2.465820e+000
