5.003444e+002,3.806532e+001
5.013087e+002,3.858058e+001
5.022729e+002,3.778479e+001
5.032371e+002,3.618900e+001
5.042014e+002,3.490802e+001
5.051656e+002,3.397475e+001
5.061298e+002,3.361281e+001
5.070941e+002,3.412061e+001
5.080583e+002,3.581619e+001
5.090225e+002,3.586314e+001
5.099868e+002,3.303419e+001
5.109510e+002,3.037314e+001
5.119152e+002,2.944437e+001
5.128795e+002,3.040466e+001
5.138437e+002,3.191862e+001
5.148079e+002,3.493082e+001
5.157722e+002,3.722006e+001
5.167364e+002,3.728159e+001
5.177006e+002,3.522694e+001
5.186649e+002,3.278661e+001
5.196291e+002,3.261725e+001
5.205933e+002,3.315335e+001
5.215576e+002,3.194205e+001
5.225218e+002,2.885078e+001
5.234860e+002,2.535980e+001
5.244503e+002,2.432813e+001
5.254145e+002,2.696902e+001
5.263787e+002,2.848433e+001
5.273430e+002,2.823372e+001
5.283072e+002,2.730536e+001
5.292714e+002,2.717020e+001
5.302357e+002,2.816649e+001
5.311999e+002,2.873656e+001
5.321641e+002,2.926840e+001
5.331284e+002,2.937955e+001
5.340926e+002,2.848160e+001
5.350568e+002,2.620772e+001
5.360211e+002,2.366064e+001
5.369853e+002,2.167654e+001
5.379495e+002,2.033228e+001
5.389138e+002,1.982494e+001
5.398780e+002,2.013869e+001
5.408422e+002,2.101935e+001
5.418065e+002,2.217630e+001
5.427707e+002,2.347852e+001
5.437349e+002,2.361174e+001
5.446992e+002,2.190363e+001
5.456634e+002,1.893277e+001
5.466276e+002,1.676770e+001
5.475919e+002,1.534962e+001
5.485561e+002,1.528227e+001
5.495203e+002,1.785049e+001
5.504846e+002,2.122162e+001
5.514488e+002,2.276973e+001
5.524130e+002,2.109642e+001
5.533773e+002,1.875003e+001
5.543415e+002,1.690359e+001
5.553057e+002,1.537009e+001
5.562700e+002,1.377812e+001
5.572342e+002,1.188887e+001
5.581984e+002,1.019983e+001
5.591627e+002,1.057471e+001
5.601269e+002,1.221770e+001
5.610911e+002,1.314436e+001
5.620554e+002,1.221738e+001
5.630196e+002,9.693817e+000
5.639838e+002,8.465820e+000
5.649481e+002,9.569046e+000
5.659123e+002,1.045950e+001
5.668765e+002,1.119305e+001
5.678408e+002,1.165756e+001
5.688050e+002,1.118187e+001
5.697692e+002,8.304642e+000
5.707335e+002,5.751022e+000
5.716977e+002,4.255936e+000
5.726619e+002,3.696960e+000
5.736262e+002,3.985031e+000
5.745904e+002,5.220840e+000
5.755546e+002,6.785767e+000
5.765189e+002,7.782440e+000
5.774831e+002,8.149124e+000
5.784473e+002,7.704422e+000
5.794116e+002,6.396881e+000
5.803758e+002,4.494949e+000
5.813400e+002,4.380829e+000
5.823043e+002,6.391144e+000
5.832685e+002,8.091614e+000
5.842327e+002,8.813049e+000
5.851970e+002,8.742981e+000
5.861612e+002,8.470169e+000
5.871254e+002,7.653900e+000
5.880897e+002,6.819748e+000
5.890539e+002,5.709671e+000
5.900181e+002,4.632278e+000
5.909824e+002,4.227554e+000
5.919466e+002,5.270340e+000
5.929108e+002,6.411285e+000
5.938751e+002,6.175446e+000
5.948393e+002,5.075516e+000
5.958035e+002,3.814331e+000
5.967678e+002,2.933762e+000
5.977320e+002,2.485046e+000
5.986962e+002,2.419357e+000
5.996605e+002,2.477646e+000
6.006247e+002,2.918030e+000
6.015889e+002,4.533463e+000
6.025532e+002,7.135132e+000
6.035174e+002,7.749878e+000
6.044816e+002,3.173126e+000
6.054459e+002,5.133057e-002
6.064101e+002,1.196594e-001
6.073743e+002,2.150665e+000
6.083386e+002,3.900085e+000
6.093028e+002,4.368225e+000
6.102670e+002,4.027786e+000
6.112313e+002,2.590042e+000
6.121955e+002,9.790344e-001
6.131597e+002,5.859985e-001
6.141240e+002,2.323318e+000
6.150882e+002,5.437683e+000
6.160524e+002,6.783966e+000
6.170167e+002,6.748734e+000
6.179809e+002,6.420013e+000
6.189451e+002,6.170853e+000
6.199094e+002,5.899521e+000
6.208736e+002,5.363846e+000
6.218378e+002,4.163727e+000
6.228021e+002,3.484253e+000
6.237663e+002,3.792389e+000
6.247305e+002,4.640411e+000
6.256948e+002,5.315811e+000
6.266590e+002,5.559601e+000
6.276232e+002,5.135712e+000
6.285875e+002,3.698944e+000
6.295517e+002,2.051437e+000
6.305159e+002,9.956207e-001
6.314802e+002,9.193726e-001
6.324444e+002,1.408691e+000
6.334086e+002,1.753952e+000
6.343729e+002,2.042572e+000
6.353371e+002,1.999252e+000
6.363013e+002,1.434372e+000
6.372656e+002,4.710999e-001
6.382298e+002,-3.337860e-001
6.391940e+002,-9.723969e-001
6.401583e+002,-1.521317e+000
6.411225e+002,-2.003616e+000
6.420867e+002,-2.107544e+000
6.430510e+002,-1.259964e+000
6.440152e+002,1.115952e+000
6.449794e+002,2.409760e+000
6.459437e+002,5.515442e-001
6.469079e+002,-2.160645e+000
6.478721e+002,-4.118454e+000
6.488364e+002,-4.641418e+000
6.498006e+002,-4.095154e+000
6.507648e+002,-2.638565e+000
6.517291e+002,-7.997589e-001
6.526933e+002,4.734802e-002
6.536575e+002,-4.152222e-001
6.546218e+002,-1.445007e+000
6.555860e+002,-1.582275e+000
6.565502e+002,-1.987000e-001
6.575145e+002,7.505646e-001
6.584787e+002,1.920288e+000
6.594429e+002,2.260483e+000
6.604072e+002,2.308655e-002
6.613714e+002,-5.495361e+000
6.623356e+002,-8.772079e+000
6.632999e+002,-4.755127e+000
6.642641e+002,-1.374054e-001
6.652283e+002,1.911331e+000
6.661926e+002,1.125870e+000
6.671568e+002,-9.068298e-001
6.681210e+002,-2.842606e+000
6.690853e+002,-4.340851e+000
6.700495e+002,-4.313950e+000
6.710137e+002,-2.857162e+000
6.719780e+002,-1.418289e+000
6.729422e+002,-1.680573e+000
6.739064e+002,-4.282730e+000
6.748707e+002,-4.954178e+000
6.758349e+002,-2.345734e+000
6.767991e+002,-1.734924e-002
6.777634e+002,5.918884e-001
6.787276e+002,-2.847290e-001
6.796918e+002,-1.242706e+000
6.806561e+002,-2.142258e+000
6.816203e+002,-2.908569e+000
6.825845e+002,-3.627106e+000
6.835488e+002,-4.162460e+000
6.845130e+002,-4.255264e+000
6.854772e+002,-3.659317e+000
6.864415e+002,-2.540802e+000
6.874057e+002,-1.422592e+000
6.883699e+002,-4.674225e-001
6.893342e+002,3.488922e-001
6.902984e+002,1.131607e+000
6.912626e+002,1.760666e+000
6.922269e+002,1.104294e+000
6.931911e+002,-2.438644e+000
6.941553e+002,-4.675674e+000
6.951196e+002,-5.077591e+000
6.960838e+002,-4.318695e+000
6.970480e+002,-3.244415e+000
6.980123e+002,-1.765366e+000
6.989765e+002,-4.346619e-001
6.999407e+002,1.230957e+000
7.009050e+002,2.223999e+000
7.018692e+002,1.107224e+000
7.028334e+002,-2.284042e+000
7.037977e+002,-6.003906e+000
7.047619e+002,-6.587509e+000
7.057261e+002,-5.100861e+000
7.066904e+002,-3.846481e+000
7.076546e+002,-3.193375e+000
7.086188e+002,-2.768478e+000
7.095831e+002,-1.956512e+000
7.105473e+002,-4.949341e-001
7.115115e+002,1.909485e-001
7.124758e+002,-7.028046e-001
7.134400e+002,-1.507874e+000
7.144042e+002,-5.199738e-001
7.153685e+002,2.242050e+000
7.163327e+002,3.414047e+000
7.172969e+002,-1.006699e+000
7.182612e+002,-5.079987e+000
7.192254e+002,-6.275253e+000
7.201896e+002,-5.226822e+000
7.211539e+002,-3.597641e+000
7.221181e+002,-2.652802e+000
7.230823e+002,-2.337326e+000
7.240466e+002,-2.746506e+000
7.250108e+002,-3.517578e+000
7.259750e+002,-3.344254e+000
7.269393e+002,-1.366898e+000
7.279035e+002,1.898834e+000
7.288677e+002,3.325241e+000
7.298320e+002,1.887512e+000
7.307962e+002,2.934113e-001
7.317604e+002,-2.063797e+000
7.327247e+002,-4.155746e+000
7.336889e+002,-4.434921e+000
7.346531e+002,-2.198029e+000
7.356174e+002,-3.109741e-002
7.365816e+002,1.006134e+000
7.375458e+002,1.613220e+000
7.385101e+002,2.343460e+000
7.394743e+002,3.289185e+000
7.404385e+002,4.000137e+000
7.414028e+002,3.542221e+000
7.423670e+002,1.969986e+000
7.433312e+002,1.068924e+000
7.442955e+002,1.215424e+000
7.452597e+002,1.764359e+000
7.462239e+002,1.956940e+000
7.471882e+002,1.777512e+000
7.481524e+002,9.117584e-001
7.491166e+002,-2.094742e+000
7.500809e+002,-4.421204e+000
7.510451e+002,-4.840805e+000
7.520093e+002,-3.630844e+000
7.529736e+002,-1.945221e+000
7.539378e+002,3.018951e-001
7.549020e+002,2.296890e+000
7.558663e+002,3.599030e+000
7.568306e+002,4.332443e+000
7.577948e+002,4.683762e+000
7.587590e+002,4.704987e+000
7.597233e+002,4.135452e+000
7.606875e+002,1.875458e+000
7.616517e+002,-1.681763e+000
7.626160e+002,-3.594147e+000
7.635802e+002,-2.642334e+000
7.645444e+002,-5.178833e-002
7.655087e+002,1.605774e+000
7.664729e+002,1.830719e+000
7.674371e+002,2.023041e+000
7.684014e+002,2.480698e+000
7.693656e+002,2.753052e+000
7.703298e+002,2.418121e+000
7.712941e+002,1.522079e+000
7.722583e+002,7.469635e-001
7.732225e+002,4.976959e-001
7.741868e+002,6.895599e-001
7.751510e+002,1.545273e+000
7.761152e+002,2.789078e+000
7.770795e+002,3.805054e+000
7.780437e+002,4.026199e+000
7.790079e+002,3.531586e+000
7.799722e+002,3.331055e+000
7.809364e+002,3.424057e+000
7.819006e+002,3.525253e+000
7.828649e+002,3.493378e+000
7.838291e+002,3.522797e+000
7.847933e+002,4.190613e+000
7.857576e+002,6.487930e+000
7.867218e+002,7.175919e+000
7.876860e+002,4.683777e+000
7.886503e+002,1.600449e+000
7.896145e+002,1.421204e-001
7.905787e+002,8.448944e-001
7.915430e+002,2.122452e+000
7.925072e+002,2.169724e+000
7.934714e+002,1.706039e+000
7.944357e+002,1.716904e+000
7.953999e+002,2.310898e+000
7.963641e+002,3.112183e+000
7.973284e+002,3.665253e+000
7.982926e+002,3.978104e+000
7.992568e+002,3.748688e+000
8.002211e+002,2.521622e+000
8.011853e+002,1.098572e+000
8.021495e+002,-5.689087e-001
8.031138e+002,-1.901276e+000
8.040780e+002,-1.196579e+000
8.050422e+002,3.597992e+000
8.060065e+002,7.111237e+000
8.069707e+002,7.024078e+000
8.079349e+002,5.227188e+000
8.088992e+002,3.356216e+000
8.098634e+002,2.172073e+000
8.108276e+002,1.625107e+000
8.117919e+002,1.848709e+000
8.127561e+002,2.252579e+000
8.137203e+002,2.038635e+000
8.146846e+002,1.267761e+000
8.156488e+002,4.221802e-001
8.166130e+002,-1.739502e-002
8.175773e+002,-5.075073e-002
8.185415e+002,9.982300e-002
8.195057e+002,2.913055e-001
8.204700e+002,5.419922e-001
8.214342e+002,8.672791e-001
8.223984e+002,1.265152e+000
8.233627e+002,1.812164e+000
8.243269e+002,2.859497e+000
8.252911e+002,3.469635e+000
8.262554e+002,2.541779e+000
8.272196e+002,1.303528e+000
8.281838e+002,1.172089e+000
8.291481e+002,2.544724e+000
8.301123e+002,4.475876e+000
8.310765e+002,5.286530e+000
8.320408e+002,5.008804e+000
8.330050e+002,5.059631e+000
8.339692e+002,5.651459e+000
8.349335e+002,6.240646e+000
8.358977e+002,6.258240e+000
8.368619e+002,5.683731e+000
8.378262e+002,5.284485e+000
8.387904e+002,5.135788e+000
8.397546e+002,4.878754e+000
8.407189e+002,4.309235e+000
8.416831e+002,3.623291e+000
8.426473e+002,3.103882e+000
8.436116e+002,2.852600e+000
8.445758e+002,3.011871e+000
8.455400e+002,3.640884e+000
8.465043e+002,4.466919e+000
8.474685e+002,5.770798e+000
8.484327e+002,7.517746e+000
8.493970e+002,8.790451e+000
8.503612e+002,7.762878e+000
8.513254e+002,3.748901e+000
8.522897e+002,2.175827e+000
8.532539e+002,4.038361e+000
8.542181e+002,6.499893e+000
8.551824e+002,8.344025e+000
8.561466e+002,9.702621e+000
8.571108e+002,1.051443e+001
8.580751e+002,9.559555e+000
8.590393e+002,8.969864e+000
8.600035e+002,1.004915e+001
8.609678e+002,1.175529e+001
8.619320e+002,1.289647e+001
8.628962e+002,1.296562e+001
8.638605e+002,1.239355e+001
8.648247e+002,1.136336e+001
8.657889e+002,1.034363e+001
8.667532e+002,1.069632e+001
8.677174e+002,1.259232e+001
8.686816e+002,1.473729e+001
8.696459e+002,1.564282e+001
8.706101e+002,1.516733e+001
8.715743e+002,1.501645e+001
8.725386e+002,1.546640e+001
8.735028e+002,1.588504e+001
8.744670e+002,1.576840e+001
8.754313e+002,1.539754e+001
8.763955e+002,1.551634e+001
8.773597e+002,1.659286e+001
8.783240e+002,1.766788e+001
8.792882e+002,1.780496e+001
8.802524e+002,1.766154e+001
8.812167e+002,1.781642e+001
8.821809e+002,1.839154e+001
8.831451e+002,1.922002e+001
8.841094e+002,2.015565e+001
8.850736e+002,2.123045e+001
8.860378e+002,2.139041e+001
8.870021e+002,2.014612e+001
8.879663e+002,1.944684e+001
8.889305e+002,2.090782e+001
8.898948e+002,2.390329e+001
8.908590e+002,2.530267e+001
8.918232e+002,2.374321e+001
8.927875e+002,2.269803e+001
8.937517e+002,2.329568e+001
8.947159e+002,2.436526e+001
8.956802e+002,2.466644e+001
8.966444e+002,2.397791e+001
8.976086e+002,2.336227e+001
8.985729e+002,2.413731e+001
8.995371e+002,2.576750e+001
9.005013e+002,2.723401e+001
9.014656e+002,2.853633e+001
9.024298e+002,2.963699e+001
9.033940e+002,3.041302e+001
9.043583e+002,3.077377e+001
9.053225e+002,3.088023e+001
9.062867e+002,3.023094e+001
9.072510e+002,2.978183e+001
9.082152e+002,2.993292e+001
9.091794e+002,3.035320e+001
9.101437e+002,3.072850e+001
9.111079e+002,3.099710e+001
9.120721e+002,3.109854e+001
9.130364e+002,3.087848e+001
9.140006e+002,3.029527e+001
9.149648e+002,2.899022e+001
9.159291e+002,2.752260e+001
9.168933e+002,2.700476e+001
9.178575e+002,2.812016e+001
9.188218e+002,3.002580e+001
9.197860e+002,2.982724e+001
9.207502e+002,2.741690e+001
9.217145e+002,2.542924e+001
9.226787e+002,2.442969e+001
9.236429e+002,2.429144e+001
9.246072e+002,2.499132e+001
9.255714e+002,2.671080e+001
9.265356e+002,2.776337e+001
9.274999e+002,2.732619e+001
9.284641e+002,2.666022e+001
9.294283e+002,2.619888e+001
9.303926e+002,2.592023e+001
9.313568e+002,2.576109e+001
9.323210e+002,2.571562e+001
9.332853e+002,2.533647e+001
9.342495e+002,2.312733e+001
9.352137e+002,2.022641e+001
9.361780e+002,1.876883e+001
9.371422e+002,1.928751e+001
9.381064e+002,2.052011e+001
9.390707e+002,2.052423e+001
9.400349e+002,1.873369e+001
9.409991e+002,1.867375e+001
9.419634e+002,2.173621e+001
9.429276e+002,2.442143e+001
9.438918e+002,2.605205e+001
9.448561e+002,2.671986e+001
9.458203e+002,2.645723e+001
9.467845e+002,2.510706e+001
9.477488e+002,2.388651e+001
9.487130e+002,2.364427e+001
9.496772e+002,2.389063e+001
9.506415e+002,2.456519e+001
9.516057e+002,2.543449e+001
9.525699e+002,2.591156e+001
9.535342e+002,2.538425e+001
9.544984e+002,2.400555e+001
9.554626e+002,2.378802e+001
9.564269e+002,2.535995e+001
9.573911e+002,2.603719e+001
9.583553e+002,2.407976e+001
9.593196e+002,2.117726e+001
9.602838e+002,2.036574e+001
9.612480e+002,2.233528e+001
9.622123e+002,2.374817e+001
9.631765e+002,2.372708e+001
9.641407e+002,2.298056e+001
9.651050e+002,2.101353e+001
9.660692e+002,1.857426e+001
9.670334e+002,1.711455e+001
9.679977e+002,1.762442e+001
9.689619e+002,1.934891e+001
9.699261e+002,2.061523e+001
9.708904e+002,2.146536e+001
9.718546e+002,2.222453e+001
9.728188e+002,2.286552e+001
9.737831e+002,2.360062e+001
9.747473e+002,2.497786e+001
9.757115e+002,2.734978e+001
9.766758e+002,2.865971e+001
9.776400e+002,2.751573e+001
9.786042e+002,2.723180e+001
9.795685e+002,2.944653e+001
9.805327e+002,3.241037e+001
9.814969e+002,3.393237e+001
9.824612e+002,3.336992e+001
9.834254e+002,3.168777e+001
9.843896e+002,2.870259e+001
9.853539e+002,2.550719e+001
9.863181e+002,2.336377e+001
9.872823e+002,2.220575e+001
9.882466e+002,2.148300e+001
9.892108e+002,2.088055e+001
9.901750e+002,2.056496e+001
9.911393e+002,2.043254e+001
9.921035e+002,2.015028e+001
9.930677e+002,1.985904e+001
9.940320e+002,1.969307e+001
9.949962e+002,1.968874e+001
9.959604e+002,1.952098e+001
9.969247e+002,1.928017e+001
9.978889e+002,2.047395e+001
9.988531e+002,2.488586e+001
9.998174e+002,2.923409e+001
1.000782e+003,3.172766e+001
1.001746e+003,3.300873e+001
1.002710e+003,3.427679e+001
1.003674e+003,3.592863e+001
1.004639e+003,3.689825e+001
1.005603e+003,3.504645e+001
1.006567e+003,2.999054e+001
1.007531e+003,2.794785e+001
1.008495e+003,3.030276e+001
1.009460e+003,3.276466e+001
1.010424e+003,3.268774e+001
1.011388e+003,3.067468e+001
1.012352e+003,2.906445e+001
1.013317e+003,2.839154e+001
1.014281e+003,2.738551e+001
1.015245e+003,2.501216e+001
1.016209e+003,2.264705e+001
1.017174e+003,2.156589e+001
1.018138e+003,2.162926e+001
1.019102e+003,2.169536e+001
1.020066e+003,2.090726e+001
1.021031e+003,1.942862e+001
1.021995e+003,1.701073e+001
1.022959e+003,1.379269e+001
1.023923e+003,1.148557e+001
1.024887e+003,1.076738e+001
1.025852e+003,1.093874e+001
1.026816e+003,1.113658e+001
1.027780e+003,1.163618e+001
1.028744e+003,1.132213e+001
1.029709e+003,9.180130e+000
1.030673e+003,7.253006e+000
1.031637e+003,6.156250e+000
1.032601e+003,5.552078e+000
1.033566e+003,5.003021e+000
1.034530e+003,4.380844e+000
1.035494e+003,3.786926e+000
1.036458e+003,3.212845e+000
1.037422e+003,2.717331e+000
1.038387e+003,2.411575e+000
1.039351e+003,2.276733e+000
1.040315e+003,2.320206e+000
1.041279e+003,2.571609e+000
1.042244e+003,3.115829e+000
1.043208e+003,4.217361e+000
1.044172e+003,6.927399e+000
1.045136e+003,7.984634e+000
1.046101e+003,6.292526e+000
1.047065e+003,4.210403e+000
1.048029e+003,3.015244e+000
1.048993e+003,2.710785e+000
1.049958e+003,2.858704e+000
1.050922e+003,3.411606e+000
1.051886e+003,4.196823e+000
1.052850e+003,5.116165e+000
1.053814e+003,6.050339e+000
1.054779e+003,6.792328e+000
1.055743e+003,7.307114e+000
1.056707e+003,7.848953e+000
1.057671e+003,8.793777e+000
1.058636e+003,1.012109e+001
1.059600e+003,1.006758e+001
1.060564e+003,7.072983e+000
1.061528e+003,5.346130e+000
1.062493e+003,6.139450e+000
1.063457e+003,7.764954e+000
1.064421e+003,8.529678e+000
1.065385e+003,8.285477e+000
1.066349e+003,7.808533e+000
1.067314e+003,7.407333e+000
1.068278e+003,6.978806e+000
1.069242e+003,6.139587e+000
1.070206e+003,5.383743e+000
1.071171e+003,5.713608e+000
1.072135e+003,7.336212e+000
1.073099e+003,9.012146e+000
1.074063e+003,8.661865e+000
1.075028e+003,6.043976e+000
1.075992e+003,5.199432e+000
1.076956e+003,7.137726e+000
1.077920e+003,8.617630e+000
1.078885e+003,8.231934e+000
1.079849e+003,6.874023e+000
1.080813e+003,6.012863e+000
1.081777e+003,5.855194e+000
1.082741e+003,6.227158e+000
1.083706e+003,7.922333e+000
1.084670e+003,9.101990e+000
1.085634e+003,8.233856e+000
1.086598e+003,6.120605e+000
1.087563e+003,4.569580e+000
1.088527e+003,4.589432e+000
1.089491e+003,5.251648e+000
1.090455e+003,4.429398e+000
1.091420e+003,1.814865e+000
1.092384e+003,6.111298e-001
1.093348e+003,1.446548e+000
1.094312e+003,2.316940e+000
1.095276e+003,1.785461e+000
1.096241e+003,5.493469e-001
1.097205e+003,7.670898e-001
1.098169e+003,3.343796e+000
1.099133e+003,5.166626e+000
1.100098e+003,4.346756e+000
1.101062e+003,3.250336e+000
1.102026e+003,3.250763e+000
1.102990e+003,4.264999e+000
1.103955e+003,5.668243e+000
1.104919e+003,7.048553e+000
1.105883e+003,8.327499e+000
1.106847e+003,9.529312e+000
1.107812e+003,1.057736e+001
1.108776e+003,1.053868e+001
1.109740e+003,9.114273e+000
1.110704e+003,7.144333e+000
1.111668e+003,4.737350e+000
1.112633e+003,2.332016e+000
1.113597e+003,1.727539e+000
1.114561e+003,3.757507e+000
1.115525e+003,5.830902e+000
1.116490e+003,7.584259e+000
1.117454e+003,8.678284e+000
1.118418e+003,8.715637e+000
1.119382e+003,8.047668e+000
1.120347e+003,7.081604e+000
1.121311e+003,5.981522e+000
1.122275e+003,5.341949e+000
1.123239e+003,7.180466e+000
1.124203e+003,1.134569e+001
1.125168e+003,1.372656e+001
1.126132e+003,1.344801e+001
1.127096e+003,1.298970e+001
1.128060e+003,1.459352e+001
1.129025e+003,1.759375e+001
1.129989e+003,1.883311e+001
1.130953e+003,1.712773e+001
1.131917e+003,1.574411e+001
1.132882e+003,1.551373e+001
1.133846e+003,1.595786e+001
1.134810e+003,1.699757e+001
1.135774e+003,1.846037e+001
1.136739e+003,2.022310e+001
1.137703e+003,2.218777e+001
1.138667e+003,2.393497e+001
1.139631e+003,2.448207e+001
1.140595e+003,2.406097e+001
1.141560e+003,2.482039e+001
1.142524e+003,2.697458e+001
1.143488e+003,3.025250e+001
1.144452e+003,3.473238e+001
1.145417e+003,4.015912e+001
1.146381e+003,4.543323e+001
1.147345e+003,4.994627e+001
1.148309e+003,5.586223e+001
1.149274e+003,6.439856e+001
1.150238e+003,7.375375e+001
1.151202e+003,8.429663e+001
1.152166e+003,9.480238e+001
1.153130e+003,1.031906e+002
1.154095e+003,1.084497e+002
1.155059e+003,1.116997e+002
1.156023e+003,1.148448e+002
1.156987e+003,1.176229e+002
1.157952e+003,1.184673e+002
1.158916e+003,1.177376e+002
1.159880e+003,1.148120e+002
1.160844e+003,1.081345e+002
1.161809e+003,9.891373e+001
1.162773e+003,9.029474e+001
1.163737e+003,8.246860e+001
1.164701e+003,7.447878e+001
1.165666e+003,6.543570e+001
1.166630e+003,5.708578e+001
1.167594e+003,4.951755e+001
1.168558e+003,4.325150e+001
1.169522e+003,3.921922e+001
1.170487e+003,3.747844e+001
1.171451e+003,3.695178e+001
1.172415e+003,3.659547e+001
1.173379e+003,3.614117e+001
1.174344e+003,3.410359e+001
1.175308e+003,3.042087e+001
1.176272e+003,2.738957e+001
1.177236e+003,2.600389e+001
1.178201e+003,2.550508e+001
1.179165e+003,2.501302e+001
1.180129e+003,2.444429e+001
1.181093e+003,2.336282e+001
1.182057e+003,2.076735e+001
1.183022e+003,1.920451e+001
1.183986e+003,2.005492e+001
1.184950e+003,2.194031e+001
1.185914e+003,2.408282e+001
1.186879e+003,2.597893e+001
1.187843e+003,2.664946e+001
1.188807e+003,2.519157e+001
1.189771e+003,2.290410e+001
1.190736e+003,2.437799e+001
1.191700e+003,3.019827e+001
1.192664e+003,3.336905e+001
1.193628e+003,3.248581e+001
1.194593e+003,3.007150e+001
1.195557e+003,2.728273e+001
1.196521e+003,2.433257e+001
1.197485e+003,2.216063e+001
1.198449e+003,2.122426e+001
1.199414e+003,2.015456e+001
1.200378e+003,1.774084e+001
1.201342e+003,1.554449e+001
1.202306e+003,1.467047e+001
1.203271e+003,1.473373e+001
1.204235e+003,1.492998e+001
1.205199e+003,1.482303e+001
1.206163e+003,1.430927e+001
1.207128e+003,1.307402e+001
1.208092e+003,1.105208e+001
1.209056e+003,1.058539e+001
1.210020e+003,1.276933e+001
1.210984e+003,1.408046e+001
1.211949e+003,1.314046e+001
1.212913e+003,1.097725e+001
1.213877e+003,8.886917e+000
1.214841e+003,6.995743e+000
1.215806e+003,4.821854e+000
1.216770e+003,1.754852e+000
1.217734e+003,-1.016724e+000
1.218698e+003,-2.730713e+000
1.219663e+003,-3.822662e+000
1.220627e+003,-4.539001e+000
1.221591e+003,-5.120697e+000
1.222555e+003,-6.144897e+000
1.223520e+003,-8.154770e+000
1.224484e+003,-1.083087e+001
1.225448e+003,-1.287909e+001
1.226412e+003,-1.427821e+001
1.227376e+003,-1.497148e+001
1.228341e+003,-1.467155e+001
1.229305e+003,-1.409459e+001
1.230269e+003,-1.384709e+001
1.231233e+003,-1.355286e+001
1.232198e+003,-1.207259e+001
1.233162e+003,-8.975403e+000
1.234126e+003,-6.273666e+000
1.235090e+003,-5.632294e+000
1.236055e+003,-6.101288e+000
1.237019e+003,-6.773972e+000
1.237983e+003,-7.618683e+000
1.238947e+003,-8.631836e+000
1.239911e+003,-9.755997e+000
1.240876e+003,-1.080034e+001
1.241840e+003,-1.158014e+001
1.242804e+003,-1.210762e+001
1.243768e+003,-1.206433e+001
1.244733e+003,-1.127338e+001
1.245697e+003,-1.004791e+001
1.246661e+003,-7.221375e+000
1.247625e+003,-5.217010e+000
1.248590e+003,-6.807709e+000
1.249554e+003,-1.068240e+001
1.250518e+003,-1.270067e+001
1.251482e+003,-1.096425e+001
1.252447e+003,-8.007416e+000
1.253411e+003,-6.467926e+000
1.254375e+003,-5.908112e+000
1.255339e+003,-5.672409e+000
1.256303e+003,-5.636917e+000
1.257268e+003,-5.105133e+000
1.258232e+003,-3.554016e+000
1.259196e+003,-1.705338e+000
1.260160e+003,-8.330994e-001
1.261125e+003,-9.295197e-001
1.262089e+003,-1.492813e+000
1.263053e+003,-3.399597e+000
1.264017e+003,-4.816116e+000
1.264982e+003,-5.182434e+000
1.265946e+003,-4.903870e+000
1.266910e+003,-4.276642e+000
1.267874e+003,-3.416885e+000
1.268839e+003,-2.153137e+000
1.269803e+003,-3.454895e-001
1.270767e+003,1.166824e+000
1.271731e+003,3.382111e-001
1.272695e+003,-2.629028e+000
1.273660e+003,-3.350616e+000
1.274624e+003,-8.358154e-001
1.275588e+003,1.096634e+000
1.276552e+003,9.327698e-002
1.277517e+003,-2.519043e+000
1.278481e+003,-4.617584e+000
1.279445e+003,-6.157425e+000
1.280409e+003,-6.682083e+000
1.281374e+003,-4.825806e+000
1.282338e+003,-3.530334e+000
1.283302e+003,-4.956131e+000
1.284266e+003,-7.346985e+000
1.285230e+003,-8.695023e+000
1.286195e+003,-8.752884e+000
1.287159e+003,-8.569626e+000
1.288123e+003,-8.962463e+000
1.289087e+003,-9.597427e+000
1.290052e+003,-9.637619e+000
1.291016e+003,-8.985168e+000
1.291980e+003,-8.304443e+000
1.292944e+003,-7.163422e+000
1.293909e+003,-6.715454e+000
1.294873e+003,-7.862961e+000
1.295837e+003,-9.543228e+000
1.296801e+003,-1.025801e+001
1.297766e+003,-9.855774e+000
1.298730e+003,-9.446564e+000
1.299694e+003,-9.740509e+000
1.300658e+003,-1.014366e+001
1.301622e+003,-1.008347e+001
1.302587e+003,-9.575043e+000
1.303551e+003,-8.320587e+000
1.304515e+003,-6.378189e+000
1.305479e+003,-4.959595e+000
1.306444e+003,-5.166458e+000
1.307408e+003,-6.597610e+000
1.308372e+003,-7.892380e+000
1.309336e+003,-9.359482e+000
1.310301e+003,-9.711914e+000
1.311265e+003,-7.147003e+000
1.312229e+003,-5.532272e+000
1.313193e+003,-6.809387e+000
1.314157e+003,-9.100494e+000
1.315122e+003,-1.050775e+001
1.316086e+003,-1.077827e+001
1.317050e+003,-1.063031e+001
1.318014e+003,-1.045531e+001
1.318979e+003,-1.036893e+001
1.319943e+003,-1.098610e+001
1.320907e+003,-1.198769e+001
1.321871e+003,-1.098630e+001
1.322836e+003,-7.324921e+000
1.323800e+003,-4.139526e+000
1.324764e+003,-3.016602e+000
1.325728e+003,-3.393707e+000
1.326693e+003,-4.703339e+000
1.327657e+003,-6.999710e+000
1.328621e+003,-8.850647e+000
1.329585e+003,-9.688553e+000
1.330549e+003,-9.754669e+000
1.331514e+003,-9.389526e+000
1.332478e+003,-8.725845e+000
1.333442e+003,-7.531921e+000
1.334406e+003,-6.017517e+000
1.335371e+003,-4.905823e+000
1.336335e+003,-4.619858e+000
1.337299e+003,-4.667984e+000
1.338263e+003,-4.092087e+000
1.339228e+003,-2.718414e+000
1.340192e+003,-2.340958e+000
1.341156e+003,-3.504364e+000
1.342120e+003,-4.790970e+000
1.343084e+003,-6.249985e+000
1.344049e+003,-7.716171e+000
1.345013e+003,-9.082184e+000
1.345977e+003,-1.019296e+001
1.346941e+003,-1.094966e+001
1.347906e+003,-1.136542e+001
1.348870e+003,-1.076559e+001
1.349834e+003,-7.494263e+000
1.350798e+003,-3.717224e+000
1.351763e+003,-3.981644e+000
1.352727e+003,-7.506485e+000
1.353691e+003,-9.671722e+000
1.354655e+003,-8.599884e+000
1.355620e+003,-6.345505e+000
1.356584e+003,-5.043655e+000
1.357548e+003,-4.624741e+000
1.358512e+003,-4.954666e+000
1.359476e+003,-6.761780e+000
1.360441e+003,-7.747787e+000
1.361405e+003,-6.025818e+000
1.362369e+003,-4.668488e+000
1.363333e+003,-5.549576e+000
1.364298e+003,-7.562775e+000
1.365262e+003,-9.292191e+000
1.366226e+003,-1.019472e+001
1.367190e+003,-1.020755e+001
1.368155e+003,-9.259598e+000
1.369119e+003,-7.604187e+000
1.370083e+003,-5.947632e+000
1.371047e+003,-3.970947e+000
1.372011e+003,-3.393494e+000
1.372976e+003,-5.719513e+000
1.373940e+003,-7.607513e+000
1.374904e+003,-7.504532e+000
1.375868e+003,-6.426132e+000
1.376833e+003,-5.405792e+000
1.377797e+003,-4.696655e+000
1.378761e+003,-4.799637e+000
1.379725e+003,-6.164291e+000
1.380690e+003,-7.542801e+000
1.381654e+003,-7.580200e+000
1.382618e+003,-6.802811e+000
1.383582e+003,-5.715408e+000
1.384547e+003,-4.446014e+000
1.385511e+003,-3.391205e+000
1.386475e+003,-2.774811e+000
1.387439e+003,-2.559387e+000
1.388403e+003,-2.862076e+000
1.389368e+003,-3.689484e+000
1.390332e+003,-3.805695e+000
1.391296e+003,-2.420822e+000
1.392260e+003,-1.741608e+000
1.393225e+003,-2.863617e+000
1.394189e+003,-4.141708e+000
1.395153e+003,-4.988327e+000
1.396117e+003,-5.213226e+000
1.397082e+003,-4.383041e+000
1.398046e+003,-2.618881e+000
1.399010e+003,-9.221191e-001
1.399974e+003,-2.721405e-001
1.400938e+003,-5.660858e-001
1.401903e+003,-1.210419e+000
1.402867e+003,-2.091919e+000
1.403831e+003,-2.557785e+000
1.404795e+003,-2.643570e+000
1.405760e+003,-2.548462e+000
1.406724e+003,-2.347565e+000
1.407688e+003,-2.326660e+000
1.408652e+003,-2.761459e+000
1.409617e+003,-3.447235e+000
1.410581e+003,-3.676453e+000
1.411545e+003,-3.053513e+000
1.412509e+003,-2.589798e+000
1.413474e+003,-3.854935e+000
1.414438e+003,-5.673508e+000
1.415402e+003,-5.724426e+000
1.416366e+003,-4.146545e+000
1.417330e+003,-2.537201e+000
1.418295e+003,-1.452408e+000
1.419259e+003,-7.642975e-001
1.420223e+003,-3.918762e-001
1.421187e+003,-3.990631e-001
1.422152e+003,-1.006104e+000
1.423116e+003,-2.621948e+000
1.424080e+003,-3.101807e+000
1.425044e+003,-2.894135e-001
1.426009e+003,1.870316e+000
1.426973e+003,1.123505e+000
1.427937e+003,-8.256226e-001
1.428901e+003,-2.021713e+000
1.429865e+003,-2.105453e+000
1.430830e+003,-1.654572e+000
1.431794e+003,-1.115936e+000
1.432758e+003,-6.331329e-001
1.433722e+003,-4.018402e-001
1.434687e+003,-3.400574e-001
1.435651e+003,3.560791e-001
1.436615e+003,2.409317e+000
1.437579e+003,3.330521e+000
1.438544e+003,1.910858e+000
1.439508e+003,3.983002e-001
1.440472e+003,4.959412e-001
1.441436e+003,1.657776e+000
1.442401e+003,2.561417e+000
1.443365e+003,2.860275e+000
1.444329e+003,3.192963e+000
1.445293e+003,4.139755e+000
1.446257e+003,5.210220e+000
1.447222e+003,5.397079e+000
1.448186e+003,4.789337e+000
1.449150e+003,3.734497e+000
1.450114e+003,1.961670e+000
1.451079e+003,8.107147e-001
1.452043e+003,1.362885e+000
1.453007e+003,2.773651e+000
1.453971e+003,4.258087e+000
1.454936e+003,5.577835e+000
1.455900e+003,5.136932e+000
1.456864e+003,1.943497e+000
1.457828e+003,-4.930115e-001
1.458792e+003,8.879242e-001
1.459757e+003,2.798676e+000
1.460721e+003,2.030334e+000
1.461685e+003,-1.340179e-001
1.462649e+003,-5.193787e-001
1.463614e+003,1.558014e+000
1.464578e+003,3.375305e+000
1.465542e+003,2.268631e+000
1.466506e+003,-4.846039e-001
1.467471e+003,-6.945343e-001
1.468435e+003,2.556458e+000
1.469399e+003,4.278046e+000
1.470363e+003,2.584290e+000
1.471328e+003,1.399567e+000
1.472292e+003,1.582840e+000
1.473256e+003,2.346359e+000
1.474220e+003,3.913162e+000
1.475184e+003,5.557434e+000
1.476149e+003,5.741928e+000
1.477113e+003,4.139313e+000
1.478077e+003,2.270203e+000
1.479041e+003,1.680634e+000
1.480006e+003,2.197128e+000
1.480970e+003,3.126968e+000
1.481934e+003,4.661636e+000
1.482898e+003,5.269455e+000
1.483863e+003,4.099655e+000
1.484827e+003,3.259888e+000
1.485791e+003,3.573044e+000
1.486755e+003,4.375824e+000
1.487719e+003,4.701141e+000
1.488684e+003,4.917496e+000
1.489648e+003,6.710861e+000
1.490612e+003,1.057288e+001
1.491576e+003,1.371313e+001
1.492541e+003,1.348868e+001
1.493505e+003,1.159544e+001
1.494469e+003,1.168285e+001
1.495433e+003,1.337550e+001
1.496398e+003,1.536613e+001
1.497362e+003,1.770595e+001
1.498326e+003,2.025406e+001
1.499290e+003,2.335265e+001
1.500255e+003,2.628233e+001
1.501219e+003,2.763794e+001
1.502183e+003,2.773409e+001
1.503147e+003,2.851616e+001
1.504111e+003,3.029865e+001
1.505076e+003,3.337767e+001
1.506040e+003,3.851868e+001
1.507004e+003,4.451941e+001
1.507968e+003,5.007628e+001
1.508933e+003,5.553867e+001
1.509897e+003,6.178882e+001
1.510861e+003,6.911600e+001
1.511825e+003,7.659741e+001
1.512790e+003,8.328253e+001
1.513754e+003,8.993791e+001
1.514718e+003,9.845236e+001
1.515682e+003,1.086992e+002
1.516646e+003,1.183488e+002
1.517611e+003,1.272599e+002
1.518575e+003,1.357933e+002
1.519539e+003,1.454478e+002
1.520503e+003,1.535378e+002
1.521468e+003,1.582878e+002
1.522432e+003,1.606532e+002
1.523396e+003,1.620714e+002
1.524360e+003,1.627100e+002
1.525325e+003,1.618535e+002
1.526289e+003,1.590601e+002
1.527253e+003,1.546668e+002
1.528217e+003,1.491461e+002
1.529182e+003,1.425891e+002
1.530146e+003,1.354197e+002
1.531110e+003,1.279376e+002
1.532074e+003,1.189584e+002
1.533039e+003,1.071983e+002
1.534003e+003,9.504266e+001
1.534967e+003,8.359184e+001
1.535931e+003,7.273285e+001
1.536896e+003,6.170026e+001
1.537860e+003,5.098026e+001
1.538824e+003,4.202615e+001
1.539788e+003,3.551759e+001
1.540752e+003,3.089888e+001
1.541717e+003,2.765874e+001
1.542681e+003,2.549324e+001
1.543645e+003,2.192267e+001
1.544609e+003,1.554582e+001
1.545573e+003,1.182201e+001
1.546538e+003,1.260791e+001
1.547502e+003,1.321278e+001
1.548466e+003,1.149821e+001
1.549430e+003,9.420700e+000
1.550395e+003,8.997406e+000
1.551359e+003,9.930222e+000
1.552323e+003,1.109798e+001
1.553287e+003,1.203198e+001
1.554252e+003,1.203419e+001
1.555216e+003,1.020294e+001
1.556180e+003,7.767807e+000
1.557144e+003,7.989243e+000
1.558109e+003,1.101053e+001
1.559073e+003,1.221582e+001
1.560037e+003,1.049359e+001
1.561001e+003,8.774673e+000
1.561966e+003,8.198654e+000
1.562930e+003,8.132904e+000
1.563894e+003,7.970749e+000
1.564858e+003,7.721512e+000
1.565823e+003,7.329498e+000
1.566787e+003,6.847916e+000
1.567751e+003,7.533020e+000
1.568715e+003,1.061429e+001
1.569679e+003,1.369861e+001
1.570644e+003,1.342137e+001
1.571608e+003,1.071872e+001
1.572572e+003,8.251144e+000
1.573536e+003,6.129929e+000
1.574500e+003,5.570282e+000
1.575465e+003,7.635254e+000
1.576429e+003,1.025134e+001
1.577393e+003,1.218507e+001
1.578357e+003,1.324280e+001
1.579322e+003,1.262512e+001
1.580286e+003,1.052377e+001
1.581250e+003,9.453018e+000
1.582214e+003,1.037578e+001
1.583179e+003,1.171509e+001
1.584143e+003,1.262737e+001
1.585107e+003,1.292616e+001
1.586071e+003,1.215456e+001
1.587036e+003,1.085706e+001
1.588000e+003,1.047708e+001
1.588964e+003,1.129091e+001
1.589928e+003,1.226332e+001
1.590893e+003,1.275444e+001
1.591857e+003,1.301707e+001
1.592821e+003,1.331412e+001
1.593785e+003,1.371597e+001
1.594750e+003,1.470674e+001
1.595714e+003,1.648672e+001
1.596678e+003,1.757333e+001
1.597642e+003,1.697244e+001
1.598606e+003,1.611488e+001
1.599571e+003,1.603600e+001
1.600535e+003,1.651753e+001
1.601499e+003,1.764912e+001
1.602463e+003,1.910837e+001
1.603427e+003,1.952548e+001
1.604392e+003,1.823361e+001
1.605356e+003,1.675072e+001
1.606320e+003,1.673828e+001
1.607284e+003,1.769058e+001
1.608249e+003,1.808575e+001
1.609213e+003,1.789577e+001
1.610177e+003,1.809700e+001
1.611141e+003,1.918686e+001
1.612106e+003,1.984013e+001
1.613070e+003,1.890703e+001
1.614034e+003,1.773737e+001
1.614998e+003,1.741324e+001
1.615963e+003,1.749466e+001
1.616927e+003,1.702032e+001
1.617891e+003,1.592494e+001
1.618855e+003,1.509468e+001
1.619820e+003,1.502679e+001
1.620784e+003,1.529671e+001
1.621748e+003,1.556657e+001
1.622712e+003,1.594279e+001
1.623677e+003,1.623160e+001
1.624641e+003,1.644939e+001
1.625605e+003,1.655516e+001
1.626569e+003,1.634045e+001
1.627533e+003,1.583064e+001
1.628498e+003,1.492902e+001
1.629462e+003,1.407738e+001
1.630426e+003,1.322401e+001
1.631390e+003,1.278218e+001
1.632354e+003,1.402510e+001
1.633319e+003,1.698195e+001
1.634283e+003,1.921700e+001
1.635247e+003,1.870955e+001
1.636211e+003,1.708217e+001
1.637176e+003,1.772458e+001
1.638140e+003,2.042615e+001
1.639104e+003,2.098752e+001
1.640068e+003,1.856023e+001
1.641033e+003,1.662126e+001
1.641997e+003,1.613637e+001
1.642961e+003,1.625888e+001
1.643925e+003,1.693823e+001
1.644890e+003,1.763554e+001
1.645854e+003,1.768526e+001
1.646818e+003,1.728421e+001
1.647782e+003,1.700664e+001
1.648747e+003,1.704778e+001
1.649711e+003,1.747176e+001
1.650675e+003,1.850908e+001
1.651639e+003,1.976744e+001
1.652604e+003,2.023889e+001
1.653568e+003,1.990247e+001
1.654532e+003,1.966856e+001
1.655496e+003,1.967429e+001
1.656460e+003,1.947389e+001
1.657425e+003,1.913252e+001
1.658389e+003,1.836325e+001
1.659353e+003,1.652431e+001
1.660317e+003,1.456152e+001
1.661281e+003,1.333369e+001
1.662246e+003,1.287639e+001
1.663210e+003,1.316475e+001
1.664174e+003,1.418587e+001
1.665138e+003,1.533128e+001
1.666103e+003,1.616908e+001
1.667067e+003,1.654941e+001
1.668031e+003,1.599846e+001
1.668995e+003,1.463824e+001
1.669960e+003,1.398631e+001
1.670924e+003,1.438916e+001
1.671888e+003,1.458560e+001
1.672852e+003,1.390262e+001
1.673817e+003,1.323111e+001
1.674781e+003,1.320773e+001
1.675745e+003,1.341913e+001
1.676709e+003,1.362935e+001
1.677674e+003,1.364851e+001
1.678638e+003,1.303055e+001
1.679602e+003,1.164645e+001
1.680566e+003,9.805695e+000
1.681531e+003,7.313812e+000
1.682495e+003,5.210373e+000
1.683459e+003,5.515274e+000
1.684423e+003,7.788986e+000
1.685387e+003,9.685699e+000
1.686352e+003,1.108333e+001
1.687316e+003,1.167484e+001
1.688280e+003,1.118013e+001
1.689244e+003,1.019456e+001
1.690208e+003,8.554245e+000
1.691173e+003,7.020996e+000
1.692137e+003,6.604126e+000
1.693101e+003,7.137604e+000
1.694065e+003,7.943237e+000
1.695030e+003,8.812119e+000
1.695994e+003,9.030945e+000
1.696958e+003,7.798096e+000
1.697922e+003,6.235703e+000
1.698887e+003,6.022202e+000
1.699851e+003,6.602020e+000
1.700815e+003,5.926453e+000
1.701779e+003,3.827927e+000
1.702744e+003,2.476028e+000
1.703708e+003,2.743942e+000
1.704672e+003,3.544510e+000
1.705636e+003,4.281754e+000
1.706601e+003,4.674973e+000
1.707565e+003,4.069000e+000
1.708529e+003,2.980392e+000
1.709493e+003,3.139496e+000
1.710458e+003,4.936646e+000
1.711422e+003,5.984741e+000
1.712386e+003,4.520096e+000
1.713350e+003,3.053009e+000
1.714314e+003,3.901855e+000
1.715279e+003,5.716248e+000
1.716243e+003,6.221756e+000
1.717207e+003,5.542786e+000
1.718171e+003,5.298111e+000
1.719135e+003,5.954880e+000
1.720100e+003,6.225876e+000
1.721064e+003,5.047287e+000
1.722028e+003,3.557083e+000
1.722992e+003,3.669586e+000
1.723957e+003,5.063690e+000
1.724921e+003,5.345078e+000
1.725885e+003,4.254440e+000
1.726849e+003,2.901596e+000
1.727814e+003,1.128799e+000
1.728778e+003,-1.088562e-001
1.729742e+003,-2.218628e-001
1.730706e+003,1.532745e-001
1.731671e+003,2.419281e-001
1.732635e+003,2.168274e-001
1.733599e+003,1.104904e+000
1.734563e+003,2.843491e+000
1.735528e+003,3.596161e+000
1.736492e+003,2.362823e+000
1.737456e+003,5.187378e-001
1.738420e+003,-3.557281e-001
1.739385e+003,-4.937134e-001
1.740349e+003,-4.983978e-001
1.741313e+003,-3.616638e-001
1.742277e+003,2.053528e-001
1.743241e+003,2.177994e+000
1.744206e+003,3.181458e+000
1.745170e+003,2.250519e+000
1.746134e+003,9.575043e-001
1.747098e+003,-8.834839e-002
1.748063e+003,-8.509369e-001
1.749027e+003,-1.166534e+000
1.749991e+003,-1.248932e+000
1.750955e+003,-1.744064e+000
1.751919e+003,-2.779968e+000
1.752884e+003,-3.677414e+000
1.753848e+003,-3.882767e+000
1.754812e+003,-3.358704e+000
1.755776e+003,-1.774048e+000
1.756741e+003,8.724823e-001
1.757705e+003,2.069199e+000
1.758669e+003,1.387131e+000
1.759633e+003,2.634430e-001
1.760598e+003,-2.337326e+000
1.761562e+003,-3.767822e+000
1.762526e+003,-2.002533e+000
1.763490e+003,5.374146e-002
1.764455e+003,1.788330e-001
1.765419e+003,-6.692200e-001
1.766383e+003,-7.316589e-001
1.767347e+003,7.888794e-003
1.768312e+003,2.093658e-001
1.769276e+003,-7.940979e-001
1.770240e+003,-2.019501e+000
1.771204e+003,-2.319260e+000
1.772168e+003,-1.992447e+000
1.773133e+003,-1.987823e+000
1.774097e+003,-2.236328e+000
1.775061e+003,-1.934433e+000
1.776025e+003,-1.013260e+000
1.776990e+003,-4.827881e-002
1.777954e+003,1.147583e+000
1.778918e+003,1.787369e+000
1.779882e+003,7.819824e-001
1.780846e+003,-8.529968e-001
1.781811e+003,-1.819962e+000
1.782775e+003,-2.137161e+000
1.783739e+003,-1.728073e+000
1.784703e+003,-4.405823e-001
1.785668e+003,2.524719e-001
1.786632e+003,-5.164337e-001
1.787596e+003,-1.917618e+000
1.788560e+003,-3.985596e+000
1.789525e+003,-5.647949e+000
1.790489e+003,-5.029709e+000
1.791453e+003,-2.859406e+000
1.792417e+003,-1.529358e+000
1.793382e+003,-1.488007e+000
1.794346e+003,-1.455383e+000
1.795310e+003,-7.505646e-001
1.796274e+003,4.876709e-002
1.797239e+003,3.652802e-001
1.798203e+003,3.432770e-001
1.799167e+003,7.678223e-002
1.800131e+003,-6.813812e-001
1.801095e+003,-1.227554e+000
1.802060e+003,-1.431946e+000
1.803024e+003,-1.326324e+000
1.803988e+003,-8.876038e-001
1.804952e+003,-2.910461e-001
1.805917e+003,9.739380e-001
1.806881e+003,1.850388e+000
1.807845e+003,9.392548e-001
1.808809e+003,-1.001709e+000
1.809773e+003,-2.584885e+000
1.810738e+003,-3.300232e+000
1.811702e+003,-2.891922e+000
1.812666e+003,-1.249588e+000
1.813630e+003,5.908813e-001
1.814595e+003,1.266754e+000
1.815559e+003,9.152832e-001
1.816523e+003,4.939270e-002
1.817487e+003,-1.379471e+000
1.818452e+003,-2.578293e+000
1.819416e+003,-3.709641e+000
1.820380e+003,-3.763229e+000
1.821344e+003,-1.916306e+000
1.822309e+003,1.274261e-001
1.823273e+003,2.367676e+000
1.824237e+003,3.665054e+000
1.825201e+003,1.626144e+000
1.826166e+003,-2.214523e+000
1.827130e+003,-3.312149e+000
1.828094e+003,-1.009262e+000
1.829058e+003,3.399506e-001
1.830022e+003,-1.899048e+000
1.830987e+003,-4.296036e+000
1.831951e+003,-3.484375e+000
1.832915e+003,-1.488510e+000
1.833879e+003,-1.466537e+000
1.834844e+003,-2.820282e+000
1.835808e+003,-3.434830e+000
1.836772e+003,-2.937317e+000
1.837736e+003,-1.590927e+000
1.838700e+003,4.962463e-001
1.839665e+003,2.258926e+000
1.840629e+003,2.735672e+000
1.841593e+003,2.362396e+000
1.842557e+003,2.011139e+000
1.843522e+003,1.670227e+000
1.844486e+003,7.025909e-001
1.845450e+003,-2.077911e+000
1.846414e+003,-2.920807e+000
1.847379e+003,-3.690338e-001
1.848343e+003,1.831421e+000
1.849307e+003,2.445877e+000
1.850271e+003,2.591400e+000
1.851236e+003,3.278351e+000
1.852200e+003,4.006683e+000
1.853164e+003,3.846115e+000
1.854128e+003,2.795807e+000
1.855093e+003,1.384003e+000
1.856057e+003,-2.854919e-002
1.857021e+003,-1.046021e+000
1.857985e+003,-1.388443e+000
1.858949e+003,-1.204300e+000
1.859914e+003,-4.549866e-001
1.860878e+003,6.808167e-001
1.861842e+003,1.025620e+000
1.862806e+003,5.319977e-001
1.863771e+003,-3.522644e-001
1.864735e+003,-1.840912e+000
1.865699e+003,-2.530884e+000
1.866663e+003,-1.427689e+000
1.867627e+003,7.179260e-002
1.868592e+003,8.240814e-001
1.869556e+003,9.492188e-001
1.870520e+003,8.085938e-001
1.871484e+003,3.967438e-001
1.872449e+003,-4.381409e-001
1.873413e+003,-1.877045e+000
1.874377e+003,-2.200714e+000
1.875341e+003,1.214294e-001
1.876306e+003,1.933884e+000
1.877270e+003,5.718231e-001
1.878234e+003,-1.254898e+000
1.879198e+003,-4.703064e-001
1.880163e+003,1.832535e+000
1.881127e+003,3.801651e+000
1.882091e+003,4.767181e+000
1.883055e+003,3.613297e+000
1.884020e+003,2.432861e-001
1.884984e+003,-2.167847e+000
1.885948e+003,-6.599121e-001
1.886912e+003,2.653366e+000
1.887876e+003,3.426178e+000
1.888841e+003,1.952469e+000
1.889805e+003,1.916245e+000
1.890769e+003,3.783295e+000
1.891733e+003,4.486847e+000
1.892698e+003,3.151688e+000
1.893662e+003,1.917755e+000
1.894626e+003,1.482071e+000
1.895590e+003,1.450989e+000
1.896554e+003,1.699493e+000
1.897519e+003,2.171066e+000
1.898483e+003,3.065689e+000
1.899447e+003,3.990738e+000
1.900411e+003,3.581955e+000
1.901376e+003,1.519897e+000
1.902340e+003,4.871063e-001
1.903304e+003,2.289597e+000
1.904268e+003,4.063705e+000
1.905233e+003,4.066177e+000
1.906197e+003,3.266251e+000
1.907161e+003,2.025909e+000
1.908125e+003,1.080215e+000
1.909090e+003,2.109985e+000
1.910054e+003,4.505280e+000
1.911018e+003,5.422226e+000
1.911982e+003,4.143921e+000
1.912947e+003,3.112442e+000
1.913911e+003,4.100067e+000
1.914875e+003,5.614761e+000
1.915839e+003,5.249100e+000
1.916803e+003,3.381119e+000
1.917768e+003,2.108231e+000
1.918732e+003,1.382645e+000
1.919696e+003,2.144547e+000
1.920660e+003,5.454102e+000
1.921625e+003,7.302338e+000
1.922589e+003,5.746170e+000
1.923553e+003,4.235168e+000
1.924517e+003,5.141022e+000
1.925481e+003,6.391937e+000
1.926446e+003,5.798477e+000
1.927410e+003,4.379013e+000
1.928374e+003,4.423309e+000
1.929338e+003,5.881958e+000
1.930303e+003,6.375168e+000
1.931267e+003,5.003189e+000
1.932231e+003,4.035202e+000
1.933195e+003,4.843246e+000
1.934160e+003,5.804459e+000
1.935124e+003,5.731277e+000
1.936088e+003,5.104324e+000
1.937052e+003,4.538223e+000
1.938017e+003,4.075180e+000
1.938981e+003,3.491196e+000
1.939945e+003,2.805786e+000
1.940909e+003,2.315277e+000
1.941874e+003,2.138412e+000
1.942838e+003,2.116287e+000
1.943802e+003,2.139191e+000
1.944766e+003,2.617447e+000
1.945730e+003,4.580795e+000
1.946695e+003,7.580078e+000
1.947659e+003,7.929077e+000
1.948623e+003,5.262604e+000
1.949587e+003,4.054443e+000
1.950552e+003,5.263657e+000
1.951516e+003,6.060059e+000
1.952480e+003,5.320847e+000
1.953444e+003,4.331436e+000
1.954408e+003,3.698914e+000
1.955373e+003,3.492126e+000
1.956337e+003,4.155060e+000
1.957301e+003,5.472610e+000
1.958265e+003,6.443649e+000
1.959230e+003,7.050491e+000
1.960194e+003,7.345581e+000
1.961158e+003,7.212723e+000
1.962122e+003,6.687180e+000
1.963087e+003,4.769775e+000
1.964051e+003,3.730408e+000
1.965015e+003,5.876404e+000
1.965979e+003,8.785919e+000
1.966944e+003,9.968826e+000
1.967908e+003,9.843170e+000
1.968872e+003,9.743683e+000
1.969836e+003,9.879715e+000
1.970801e+003,9.507355e+000
1.971765e+003,8.389404e+000
1.972729e+003,7.795654e+000
1.973693e+003,9.074692e+000
1.974657e+003,1.060352e+001
1.975622e+003,9.338837e+000
1.976586e+003,6.570068e+000
1.977550e+003,6.148788e+000
1.978514e+003,7.721619e+000
1.979479e+003,8.532715e+000
1.980443e+003,8.206665e+000
1.981407e+003,8.226242e+000
1.982371e+003,9.193024e+000
1.983335e+003,1.023375e+001
1.984300e+003,1.063736e+001
1.985264e+003,1.076186e+001
1.986228e+003,1.125191e+001
1.987192e+003,1.194095e+001
1.988157e+003,1.192975e+001
1.989121e+003,1.104225e+001
1.990085e+003,1.054094e+001
1.991049e+003,1.069580e+001
1.992014e+003,1.078590e+001
1.992978e+003,1.066083e+001
1.993942e+003,1.045920e+001
1.994906e+003,1.028659e+001
1.995871e+003,1.000513e+001
1.996835e+003,9.298828e+000
1.997799e+003,8.600342e+000
1.998763e+003,8.446945e+000
1.999728e+003,8.813110e+000
