5.003444e+002,2.971320e+001
5.013087e+002,2.949893e+001
5.022729e+002,2.767548e+001
5.032371e+002,2.527591e+001
5.042014e+002,2.524020e+001
5.051656e+002,2.722064e+001
5.061298e+002,2.936749e+001
5.070941e+002,2.995746e+001
5.080583e+002,2.855481e+001
5.090225e+002,2.736588e+001
5.099868e+002,2.607822e+001
5.109510e+002,2.520267e+001
5.119152e+002,2.528613e+001
5.128795e+002,2.643936e+001
5.138437e+002,2.713699e+001
5.148079e+002,2.697025e+001
5.157722e+002,2.625217e+001
5.167364e+002,2.487808e+001
5.177006e+002,2.287857e+001
5.186649e+002,2.039755e+001
5.196291e+002,1.698615e+001
5.205933e+002,1.404214e+001
5.215576e+002,1.310202e+001
5.225218e+002,1.409338e+001
5.234860e+002,1.618082e+001
5.244503e+002,1.812527e+001
5.254145e+002,2.020782e+001
5.263787e+002,2.105115e+001
5.273430e+002,1.978821e+001
5.283072e+002,1.787973e+001
5.292714e+002,1.747516e+001
5.302357e+002,1.969354e+001
5.311999e+002,2.034561e+001
5.321641e+002,1.789926e+001
5.331284e+002,1.514667e+001
5.340926e+002,1.458432e+001
5.350568e+002,1.720709e+001
5.360211e+002,1.945404e+001
5.369853e+002,1.723230e+001
5.379495e+002,1.393018e+001
5.389138e+002,1.223721e+001
5.398780e+002,1.315686e+001
5.408422e+002,1.573120e+001
5.418065e+002,1.797946e+001
5.427707e+002,1.979559e+001
5.437349e+002,1.959750e+001
5.446992e+002,1.625116e+001
5.456634e+002,1.096994e+001
5.466276e+002,8.104706e+000
5.475919e+002,1.031149e+001
5.485561e+002,1.212625e+001
5.495203e+002,1.332111e+001
5.504846e+002,1.387631e+001
5.514488e+002,1.387784e+001
5.524130e+002,1.342444e+001
5.533773e+002,1.238950e+001
5.543415e+002,1.010120e+001
5.553057e+002,7.662811e+000
5.562700e+002,6.251251e+000
5.572342e+002,6.556824e+000
5.581984e+002,7.825592e+000
5.591627e+002,8.535156e+000
5.601269e+002,8.927429e+000
5.610911e+002,9.262177e+000
5.620554e+002,9.639893e+000
5.630196e+002,9.927429e+000
5.639838e+002,9.464935e+000
5.649481e+002,7.366364e+000
5.659123e+002,5.824860e+000
5.668765e+002,5.674347e+000
5.678408e+002,6.582489e+000
5.688050e+002,7.356140e+000
5.697692e+002,7.489838e+000
5.707335e+002,7.198914e+000
5.716977e+002,6.478943e+000
5.726619e+002,5.569336e+000
5.736262e+002,4.566803e+000
5.745904e+002,3.405334e+000
5.755546e+002,2.956085e+000
5.765189e+002,5.085083e+000
5.774831e+002,8.370392e+000
5.784473e+002,1.045071e+001
5.794116e+002,9.791809e+000
5.803758e+002,6.777832e+000
5.813400e+002,4.824768e+000
5.823043e+002,4.125336e+000
5.832685e+002,2.964203e+000
5.842327e+002,1.386108e-001
5.851970e+002,-3.757263e+000
5.861612e+002,-5.483521e+000
5.871254e+002,-1.944275e+000
5.880897e+002,7.293091e-001
5.890539e+002,7.931213e-001
5.900181e+002,-7.679443e-001
5.909824e+002,-2.167999e+000
5.919466e+002,-2.352753e+000
5.929108e+002,-1.667053e+000
5.938751e+002,-1.949158e-001
5.948393e+002,1.516266e+000
5.958035e+002,2.558472e+000
5.967678e+002,2.309723e+000
5.977320e+002,1.062958e+000
5.986962e+002,4.244995e-001
5.996605e+002,4.980469e-002
6.006247e+002,3.573914e-001
6.015889e+002,2.377380e+000
6.025532e+002,5.870544e+000
6.035174e+002,7.087921e+000
6.044816e+002,3.463593e+000
6.054459e+002,1.640015e-001
6.064101e+002,-2.604858e+000
6.073743e+002,-4.493683e+000
6.083386e+002,-4.824554e+000
6.093028e+002,-2.375092e+000
6.102670e+002,8.959961e-002
6.112313e+002,-1.174927e-001
6.121955e+002,-1.512878e+000
6.131597e+002,-1.925110e+000
6.141240e+002,8.544922e-002
6.150882e+002,3.544128e+000
6.160524e+002,3.982849e+000
6.170167e+002,2.032562e+000
6.179809e+002,3.696289e-001
6.189451e+002,1.783447e-001
6.199094e+002,1.174957e+000
6.208736e+002,1.766174e+000
6.218378e+002,1.905823e+000
6.228021e+002,1.982758e+000
6.237663e+002,1.638733e+000
6.247305e+002,1.404236e+000
6.256948e+002,2.316650e+000
6.266590e+002,5.468781e+000
6.276232e+002,7.722961e+000
6.285875e+002,7.221771e+000
6.295517e+002,5.341187e+000
6.305159e+002,3.068268e+000
6.314802e+002,1.003052e+000
6.324444e+002,-5.947266e-001
6.334086e+002,-1.473999e-002
6.343729e+002,2.076416e+000
6.353371e+002,3.526520e+000
6.363013e+002,3.517487e+000
6.372656e+002,2.288239e+000
6.382298e+002,7.922363e-001
6.391940e+002,-2.100861e+000
6.401583e+002,-3.737518e+000
6.411225e+002,-3.132813e+000
6.420867e+002,-1.433807e+000
6.430510e+002,-2.523804e-002
6.440152e+002,6.291504e-001
6.449794e+002,7.700806e-001
6.459437e+002,5.771790e-001
6.469079e+002,5.557251e-002
6.478721e+002,-9.216614e-001
6.488364e+002,-2.278381e+000
6.498006e+002,-3.622894e+000
6.507648e+002,-4.610748e+000
6.517291e+002,-5.071289e+000
6.526933e+002,-3.998993e+000
6.536575e+002,-1.101563e+000
6.546218e+002,2.351563e+000
6.555860e+002,3.951935e+000
6.565502e+002,2.908630e+000
6.575145e+002,1.212952e+000
6.584787e+002,-2.255951e+000
6.594429e+002,-5.393280e+000
6.604072e+002,-6.306641e+000
6.613714e+002,-4.543060e+000
6.623356e+002,-2.547852e+000
6.632999e+002,-5.562439e-001
6.642641e+002,3.847961e-001
6.652283e+002,-9.790344e-001
6.661926e+002,-4.083252e+000
6.671568e+002,-7.060547e+000
6.681210e+002,-7.929016e+000
6.690853e+002,-6.803131e+000
6.700495e+002,-3.700134e+000
6.710137e+002,1.137848e+000
6.719780e+002,5.042786e+000
6.729422e+002,4.951202e+000
6.739064e+002,-2.724304e-001
6.748707e+002,-3.107025e+000
6.758349e+002,-2.934082e+000
6.767991e+002,-1.963928e+000
6.777634e+002,-4.978027e-001
6.787276e+002,1.380707e+000
6.796918e+002,2.764862e+000
6.806561e+002,3.280457e+000
6.816203e+002,2.797333e+000
6.825845e+002,3.213501e-001
6.835488e+002,-2.964417e+000
6.845130e+002,-5.261139e+000
6.854772e+002,-5.185822e+000
6.864415e+002,-3.343231e+000
6.874057e+002,-1.061829e+000
6.883699e+002,1.263123e+000
6.893342e+002,2.964966e+000
6.902984e+002,3.692413e+000
6.912626e+002,3.592865e+000
6.922269e+002,3.358521e+000
6.931911e+002,3.614471e+000
6.941553e+002,3.298676e+000
6.951196e+002,1.276855e+000
6.960838e+002,-1.308807e+000
6.970480e+002,-2.424316e+000
6.980123e+002,-1.095703e+000
6.989765e+002,6.127625e-001
6.999407e+002,2.717682e+000
7.009050e+002,4.120300e+000
7.018692e+002,3.128387e+000
7.028334e+002,-4.151001e-001
7.037977e+002,-4.021027e+000
7.047619e+002,-2.690552e+000
7.057261e+002,1.378510e+000
7.066904e+002,3.137390e+000
7.076546e+002,1.775848e+000
7.086188e+002,-5.846252e-001
7.095831e+002,-4.438171e-001
7.105473e+002,3.720673e+000
7.115115e+002,5.114441e+000
7.124758e+002,1.624054e+000
7.134400e+002,-2.042053e+000
7.144042e+002,-2.591492e+000
7.153685e+002,6.970215e-002
7.163327e+002,2.054199e+000
7.172969e+002,3.927917e-001
7.182612e+002,-1.163513e+000
7.192254e+002,-5.628052e-001
7.201896e+002,1.258545e+000
7.211539e+002,1.909210e+000
7.221181e+002,-8.379517e-001
7.230823e+002,-4.995728e+000
7.240466e+002,-4.558868e+000
7.250108e+002,-5.298462e-001
7.259750e+002,2.686768e+000
7.269393e+002,2.216949e+000
7.279035e+002,-1.534302e+000
7.288677e+002,-3.764832e+000
7.298320e+002,-2.560791e+000
7.307962e+002,-1.474945e+000
7.317604e+002,-7.190857e-001
7.327247e+002,-1.632996e-001
7.336889e+002,2.281189e-001
7.346531e+002,1.831970e-001
7.356174e+002,-1.085205e-001
7.365816e+002,-4.130249e-001
7.375458e+002,-4.254761e-001
7.385101e+002,2.695007e-001
7.394743e+002,1.636353e+000
7.404385e+002,3.090912e+000
7.414028e+002,3.666595e+000
7.423670e+002,3.158051e+000
7.433312e+002,2.473724e+000
7.442955e+002,1.915619e+000
7.452597e+002,1.353455e+000
7.462239e+002,3.021240e-001
7.471882e+002,-1.754120e+000
7.481524e+002,-2.234131e+000
7.491166e+002,-2.127380e-001
7.500809e+002,1.566864e+000
7.510451e+002,2.026215e+000
7.520093e+002,1.378113e+000
7.529736e+002,6.537476e-001
7.539378e+002,4.619141e-001
7.549020e+002,5.187988e-001
7.558663e+002,5.291443e-001
7.568306e+002,6.071777e-001
7.577948e+002,9.043884e-001
7.587590e+002,1.448303e+000
7.597233e+002,2.041992e+000
7.606875e+002,2.488251e+000
7.616517e+002,2.902740e+000
7.626160e+002,3.045807e+000
7.635802e+002,2.806519e+000
7.645444e+002,2.379242e+000
7.655087e+002,2.085327e+000
7.664729e+002,1.763885e+000
7.674371e+002,1.888214e+000
7.684014e+002,3.187225e+000
7.693656e+002,4.202606e+000
7.703298e+002,3.579315e+000
7.712941e+002,1.408447e+000
7.722583e+002,-2.003784e-001
7.732225e+002,7.443848e-001
7.741868e+002,2.490967e+000
7.751510e+002,4.290588e+000
7.761152e+002,5.699615e+000
7.770795e+002,5.810120e+000
7.780437e+002,3.764862e+000
7.790079e+002,-7.568359e-003
7.799722e+002,-1.079193e+000
7.809364e+002,6.369324e-001
7.819006e+002,2.318420e+000
7.828649e+002,2.884827e+000
7.838291e+002,2.772034e+000
7.847933e+002,3.350800e+000
7.857576e+002,5.840332e+000
7.867218e+002,6.296692e+000
7.876860e+002,2.586700e+000
7.886503e+002,-1.768127e+000
7.896145e+002,-3.721161e+000
7.905787e+002,-2.546967e+000
7.915430e+002,-5.042725e-001
7.925072e+002,-1.374512e-001
7.934714e+002,-3.904114e-001
7.944357e+002,3.052673e-001
7.953999e+002,1.975647e+000
7.963641e+002,3.560974e+000
7.973284e+002,3.780273e+000
7.982926e+002,2.519592e+000
7.992568e+002,2.079407e+000
8.002211e+002,2.682587e+000
8.011853e+002,2.795197e+000
8.021495e+002,1.715637e+000
8.031138e+002,9.356689e-002
8.040780e+002,-4.034424e-001
8.050422e+002,9.707336e-001
8.060065e+002,2.328461e+000
8.069707e+002,2.736664e+000
8.079349e+002,2.822571e+000
8.088992e+002,3.551178e+000
8.098634e+002,5.204651e+000
8.108276e+002,6.679871e+000
8.117919e+002,5.579102e+000
8.127561e+002,3.044098e+000
8.137203e+002,2.102570e+000
8.146846e+002,3.249298e+000
8.156488e+002,5.253662e+000
8.166130e+002,6.586121e+000
8.175773e+002,7.228058e+000
8.185415e+002,6.950043e+000
8.195057e+002,4.293152e+000
8.204700e+002,2.354889e+000
8.214342e+002,2.926605e+000
8.223984e+002,5.016266e+000
8.233627e+002,5.841736e+000
8.243269e+002,3.934265e+000
8.252911e+002,1.797241e+000
8.262554e+002,5.819702e-001
8.272196e+002,7.183838e-002
8.281838e+002,7.321167e-002
8.291481e+002,4.825439e-001
8.301123e+002,1.337463e+000
8.310765e+002,2.866699e+000
8.320408e+002,4.907410e+000
8.330050e+002,6.179230e+000
8.339692e+002,6.569977e+000
8.349335e+002,6.447968e+000
8.358977e+002,6.020966e+000
8.368619e+002,5.245636e+000
8.378262e+002,5.199371e+000
8.387904e+002,6.774506e+000
8.397546e+002,7.812988e+000
8.407189e+002,7.589478e+000
8.416831e+002,6.542297e+000
8.426473e+002,5.284760e+000
8.436116e+002,3.910370e+000
8.445758e+002,3.288086e+000
8.455400e+002,4.602966e+000
8.465043e+002,6.626007e+000
8.474685e+002,8.725616e+000
8.484327e+002,1.057166e+001
8.493970e+002,1.129172e+001
8.503612e+002,9.033722e+000
8.513254e+002,2.858215e+000
8.522897e+002,5.736694e-001
8.532539e+002,4.279785e+000
8.542181e+002,8.389893e+000
8.551824e+002,9.544891e+000
8.561466e+002,8.297974e+000
8.571108e+002,8.047943e+000
8.580751e+002,1.002002e+001
8.590393e+002,1.154865e+001
8.600035e+002,1.168234e+001
8.609678e+002,1.128125e+001
8.619320e+002,1.137552e+001
8.628962e+002,1.233078e+001
8.638605e+002,1.343857e+001
8.648247e+002,1.353259e+001
8.657889e+002,1.299396e+001
8.667532e+002,1.260010e+001
8.677174e+002,1.245514e+001
8.686816e+002,1.270953e+001
8.696459e+002,1.363113e+001
8.706101e+002,1.539609e+001
8.715743e+002,1.713794e+001
8.725386e+002,2.025385e+001
8.735028e+002,2.168311e+001
8.744670e+002,1.873834e+001
8.754313e+002,1.377853e+001
8.763955e+002,1.151703e+001
8.773597e+002,1.408963e+001
8.783240e+002,1.773087e+001
8.792882e+002,2.052609e+001
8.802524e+002,2.235355e+001
8.812167e+002,2.282446e+001
8.821809e+002,2.203906e+001
8.831451e+002,2.046735e+001
8.841094e+002,1.863782e+001
8.850736e+002,1.680594e+001
8.860378e+002,1.696655e+001
8.870021e+002,1.953281e+001
8.879663e+002,2.196738e+001
8.889305e+002,2.244049e+001
8.898948e+002,2.140207e+001
8.908590e+002,2.153418e+001
8.918232e+002,2.437161e+001
8.927875e+002,2.637830e+001
8.937517e+002,2.600943e+001
8.947159e+002,2.520227e+001
8.956802e+002,2.599454e+001
8.966444e+002,2.841644e+001
8.976086e+002,2.991287e+001
8.985729e+002,2.724954e+001
8.995371e+002,2.300940e+001
9.005013e+002,2.134421e+001
9.014656e+002,2.216370e+001
9.024298e+002,2.414948e+001
9.033940e+002,2.636130e+001
9.043583e+002,2.852740e+001
9.053225e+002,2.950726e+001
9.062867e+002,2.788058e+001
9.072510e+002,2.659647e+001
9.082152e+002,2.593451e+001
9.091794e+002,2.586102e+001
9.101437e+002,2.655942e+001
9.111079e+002,2.805707e+001
9.120721e+002,2.915952e+001
9.130364e+002,2.898297e+001
9.140006e+002,2.798557e+001
9.149648e+002,2.566943e+001
9.159291e+002,2.302911e+001
9.168933e+002,2.175970e+001
9.178575e+002,2.295700e+001
9.188218e+002,2.592050e+001
9.197860e+002,2.891687e+001
9.207502e+002,3.198431e+001
9.217145e+002,3.303439e+001
9.226787e+002,3.098529e+001
9.236429e+002,2.776862e+001
9.246072e+002,2.575638e+001
9.255714e+002,2.498648e+001
9.265356e+002,2.454257e+001
9.274999e+002,2.462283e+001
9.284641e+002,2.448538e+001
9.294283e+002,2.400687e+001
9.303926e+002,2.321478e+001
9.313568e+002,2.198700e+001
9.323210e+002,2.019266e+001
9.332853e+002,1.850281e+001
9.342495e+002,1.826501e+001
9.352137e+002,1.878842e+001
9.361780e+002,1.931378e+001
9.371422e+002,1.978275e+001
9.381064e+002,2.040027e+001
9.390707e+002,2.139465e+001
9.400349e+002,2.284622e+001
9.409991e+002,2.291638e+001
9.419634e+002,2.001846e+001
9.429276e+002,1.787680e+001
9.438918e+002,1.782040e+001
9.448561e+002,1.907516e+001
9.458203e+002,2.042609e+001
9.467845e+002,2.168344e+001
9.477488e+002,2.259955e+001
9.487130e+002,2.251404e+001
9.496772e+002,2.227789e+001
9.506415e+002,2.274081e+001
9.516057e+002,2.379248e+001
9.525699e+002,2.456979e+001
9.535342e+002,2.419278e+001
9.544984e+002,2.280011e+001
9.554626e+002,2.219418e+001
9.564269e+002,2.268085e+001
9.573911e+002,2.333810e+001
9.583553e+002,2.436493e+001
9.593196e+002,2.513385e+001
9.602838e+002,2.429016e+001
9.612480e+002,2.113821e+001
9.622123e+002,1.888916e+001
9.631765e+002,1.936639e+001
9.641407e+002,2.013092e+001
9.651050e+002,1.994012e+001
9.660692e+002,1.903018e+001
9.670334e+002,1.838474e+001
9.679977e+002,1.871481e+001
9.689619e+002,1.953119e+001
9.699261e+002,1.913757e+001
9.708904e+002,1.794824e+001
9.718546e+002,1.770844e+001
9.728188e+002,1.885995e+001
9.737831e+002,2.050284e+001
9.747473e+002,2.154630e+001
9.757115e+002,2.195038e+001
9.766758e+002,2.224768e+001
9.776400e+002,2.211511e+001
9.786042e+002,2.253540e+001
9.795685e+002,2.424597e+001
9.805327e+002,2.621243e+001
9.814969e+002,2.708167e+001
9.824612e+002,2.649677e+001
9.834254e+002,2.569382e+001
9.843896e+002,2.629404e+001
9.853539e+002,2.672971e+001
9.863181e+002,2.458115e+001
9.872823e+002,2.024176e+001
9.882466e+002,1.649762e+001
9.892108e+002,1.590018e+001
9.901750e+002,1.818182e+001
9.911393e+002,1.981937e+001
9.921035e+002,1.989984e+001
9.930677e+002,1.985547e+001
9.940320e+002,1.990970e+001
9.949962e+002,2.003876e+001
9.959604e+002,2.000668e+001
9.969247e+002,1.987781e+001
9.978889e+002,2.050113e+001
9.988531e+002,2.229285e+001
9.998174e+002,2.453107e+001
1.000782e+003,2.733502e+001
1.001746e+003,3.030856e+001
1.002710e+003,3.308231e+001
1.003674e+003,3.535703e+001
1.004639e+003,3.669156e+001
1.005603e+003,3.620407e+001
1.006567e+003,3.361148e+001
1.007531e+003,3.154474e+001
1.008495e+003,3.011935e+001
1.009460e+003,2.898404e+001
1.010424e+003,2.767117e+001
1.011388e+003,2.649741e+001
1.012352e+003,2.690247e+001
1.013317e+003,3.037698e+001
1.014281e+003,3.247424e+001
1.015245e+003,3.114630e+001
1.016209e+003,2.872714e+001
1.017174e+003,2.689844e+001
1.018138e+003,2.580530e+001
1.019102e+003,2.450992e+001
1.020066e+003,2.223807e+001
1.021031e+003,1.950891e+001
1.021995e+003,1.732813e+001
1.022959e+003,1.549643e+001
1.023923e+003,1.442603e+001
1.024887e+003,1.447345e+001
1.025852e+003,1.488489e+001
1.026816e+003,1.454224e+001
1.027780e+003,1.345016e+001
1.028744e+003,1.216693e+001
1.029709e+003,9.862640e+000
1.030673e+003,8.316223e+000
1.031637e+003,8.876343e+000
1.032601e+003,1.008481e+001
1.033566e+003,9.804016e+000
1.034530e+003,7.364746e+000
1.035494e+003,4.448975e+000
1.036458e+003,2.236450e+000
1.037422e+003,1.127899e+000
1.038387e+003,2.549805e+000
1.039351e+003,6.083374e+000
1.040315e+003,8.653442e+000
1.041279e+003,7.846130e+000
1.042244e+003,4.571014e+000
1.043208e+003,3.069000e+000
1.044172e+003,4.769409e+000
1.045136e+003,5.559784e+000
1.046101e+003,4.539490e+000
1.047065e+003,3.592590e+000
1.048029e+003,4.183624e+000
1.048993e+003,5.906281e+000
1.049958e+003,6.997864e+000
1.050922e+003,6.487854e+000
1.051886e+003,5.790955e+000
1.052850e+003,6.752441e+000
1.053814e+003,8.187408e+000
1.054779e+003,8.201172e+000
1.055743e+003,6.560486e+000
1.056707e+003,4.986237e+000
1.057671e+003,5.642609e+000
1.058636e+003,8.517639e+000
1.059600e+003,9.825043e+000
1.060564e+003,8.581848e+000
1.061528e+003,7.691742e+000
1.062493e+003,7.626465e+000
1.063457e+003,7.721344e+000
1.064421e+003,7.183411e+000
1.065385e+003,6.013031e+000
1.066349e+003,5.367920e+000
1.067314e+003,6.026764e+000
1.068278e+003,7.238708e+000
1.069242e+003,9.190308e+000
1.070206e+003,1.112778e+001
1.071171e+003,1.141766e+001
1.072135e+003,9.550720e+000
1.073099e+003,7.234528e+000
1.074063e+003,7.565613e+000
1.075028e+003,1.096573e+001
1.075992e+003,1.247214e+001
1.076956e+003,1.110031e+001
1.077920e+003,9.626923e+000
1.078885e+003,9.769043e+000
1.079849e+003,1.044385e+001
1.080813e+003,9.082123e+000
1.081777e+003,4.818298e+000
1.082741e+003,1.620392e+000
1.083706e+003,2.277893e+000
1.084670e+003,3.623413e+000
1.085634e+003,4.264496e+000
1.086598e+003,4.202881e+000
1.087563e+003,3.863098e+000
1.088527e+003,3.562042e+000
1.089491e+003,3.296326e+000
1.090455e+003,2.739746e+000
1.091420e+003,1.723969e+000
1.092384e+003,1.891205e+000
1.093348e+003,3.763184e+000
1.094312e+003,5.609650e+000
1.095276e+003,6.862213e+000
1.096241e+003,7.494080e+000
1.097205e+003,6.832550e+000
1.098169e+003,3.937866e+000
1.099133e+003,1.904968e+000
1.100098e+003,2.573120e+000
1.101062e+003,3.889435e+000
1.102026e+003,4.815094e+000
1.102990e+003,5.295959e+000
1.103955e+003,5.594971e+000
1.104919e+003,5.853180e+000
1.105883e+003,6.065399e+000
1.106847e+003,6.275299e+000
1.107812e+003,6.471558e+000
1.108776e+003,7.005920e+000
1.109740e+003,8.281342e+000
1.110704e+003,9.099518e+000
1.111668e+003,8.349365e+000
1.112633e+003,6.549683e+000
1.113597e+003,5.557068e+000
1.114561e+003,5.577789e+000
1.115525e+003,6.060913e+000
1.116490e+003,7.031311e+000
1.117454e+003,8.092682e+000
1.118418e+003,9.279266e+000
1.119382e+003,1.048648e+001
1.120347e+003,1.143732e+001
1.121311e+003,1.184119e+001
1.122275e+003,1.151852e+001
1.123239e+003,1.010635e+001
1.124203e+003,8.032379e+000
1.125168e+003,7.983643e+000
1.126132e+003,1.086331e+001
1.127096e+003,1.407211e+001
1.128060e+003,1.567087e+001
1.129025e+003,1.583829e+001
1.129989e+003,1.554285e+001
1.130953e+003,1.438370e+001
1.131917e+003,1.366864e+001
1.132882e+003,1.357617e+001
1.133846e+003,1.422531e+001
1.134810e+003,1.627853e+001
1.135774e+003,1.909329e+001
1.136739e+003,2.106781e+001
1.137703e+003,2.132419e+001
1.138667e+003,2.132672e+001
1.139631e+003,2.400699e+001
1.140595e+003,2.896375e+001
1.141560e+003,3.251407e+001
1.142524e+003,3.419550e+001
1.143488e+003,3.600122e+001
1.144452e+003,3.929147e+001
1.145417e+003,4.372147e+001
1.146381e+003,4.770370e+001
1.147345e+003,4.998404e+001
1.148309e+003,5.511008e+001
1.149274e+003,6.691254e+001
1.150238e+003,7.896097e+001
1.151202e+003,8.844937e+001
1.152166e+003,9.573694e+001
1.153130e+003,1.019068e+002
1.154095e+003,1.074085e+002
1.155059e+003,1.122498e+002
1.156023e+003,1.170930e+002
1.156987e+003,1.214431e+002
1.157952e+003,1.220959e+002
1.158916e+003,1.189457e+002
1.159880e+003,1.146389e+002
1.160844e+003,1.102112e+002
1.161809e+003,1.051178e+002
1.162773e+003,9.843909e+001
1.163737e+003,8.983698e+001
1.164701e+003,8.125119e+001
1.165666e+003,7.279083e+001
1.166630e+003,6.507437e+001
1.167594e+003,5.835107e+001
1.168558e+003,5.246246e+001
1.169522e+003,4.683057e+001
1.170487e+003,4.152310e+001
1.171451e+003,3.797739e+001
1.172415e+003,3.798871e+001
1.173379e+003,4.082394e+001
1.174344e+003,4.310809e+001
1.175308e+003,4.508328e+001
1.176272e+003,4.542877e+001
1.177236e+003,4.303226e+001
1.178201e+003,3.943237e+001
1.179165e+003,3.629605e+001
1.180129e+003,3.349951e+001
1.181093e+003,3.099484e+001
1.182057e+003,2.838065e+001
1.183022e+003,2.692050e+001
1.183986e+003,2.812692e+001
1.184950e+003,2.983533e+001
1.185914e+003,2.958960e+001
1.186879e+003,2.759619e+001
1.187843e+003,2.618253e+001
1.188807e+003,2.721039e+001
1.189771e+003,2.988397e+001
1.190736e+003,3.218695e+001
1.191700e+003,3.412271e+001
1.192664e+003,3.523529e+001
1.193628e+003,3.555466e+001
1.194593e+003,3.514810e+001
1.195557e+003,3.403146e+001
1.196521e+003,3.217416e+001
1.197485e+003,2.926025e+001
1.198449e+003,2.467374e+001
1.199414e+003,2.096027e+001
1.200378e+003,1.979883e+001
1.201342e+003,1.941995e+001
1.202306e+003,1.876581e+001
1.203271e+003,1.793561e+001
1.204235e+003,1.763882e+001
1.205199e+003,1.817276e+001
1.206163e+003,1.885278e+001
1.207128e+003,1.847769e+001
1.208092e+003,1.700189e+001
1.209056e+003,1.539792e+001
1.210020e+003,1.327649e+001
1.210984e+003,1.180209e+001
1.211949e+003,1.208185e+001
1.212913e+003,1.263879e+001
1.213877e+003,1.153439e+001
1.214841e+003,8.709076e+000
1.215806e+003,5.505585e+000
1.216770e+003,1.551422e+000
1.217734e+003,-1.252289e+000
1.218698e+003,-7.587585e-001
1.219663e+003,7.816467e-001
1.220627e+003,3.473511e-001
1.221591e+003,-2.312866e+000
1.222555e+003,-5.054718e+000
1.223520e+003,-5.865814e+000
1.224484e+003,-5.059418e+000
1.225448e+003,-4.423492e+000
1.226412e+003,-4.166595e+000
1.227376e+003,-3.685455e+000
1.228341e+003,-2.451691e+000
1.229305e+003,-1.686798e+000
1.230269e+003,-2.241119e+000
1.231233e+003,-3.699005e+000
1.232198e+003,-5.504974e+000
1.233162e+003,-7.545563e+000
1.234126e+003,-8.232208e+000
1.235090e+003,-5.124939e+000
1.236055e+003,-1.522675e+000
1.237019e+003,-1.430176e+000
1.237983e+003,-3.773224e+000
1.238947e+003,-5.157440e+000
1.239911e+003,-4.117126e+000
1.240876e+003,-2.689056e+000
1.241840e+003,-4.307220e+000
1.242804e+003,-9.284241e+000
1.243768e+003,-1.140742e+001
1.244733e+003,-7.741577e+000
1.245697e+003,-4.939392e+000
1.246661e+003,-3.691254e+000
1.247625e+003,-3.523560e+000
1.248590e+003,-4.626648e+000
1.249554e+003,-6.278656e+000
1.250518e+003,-6.854462e+000
1.251482e+003,-5.641541e+000
1.252447e+003,-3.884644e+000
1.253411e+003,-2.944153e+000
1.254375e+003,-2.364288e+000
1.255339e+003,-1.087738e+000
1.256303e+003,9.285583e-001
1.257268e+003,2.413879e+000
1.258232e+003,2.375427e+000
1.259196e+003,1.425415e+000
1.260160e+003,9.611511e-001
1.261125e+003,1.140747e+000
1.262089e+003,1.653778e+000
1.263053e+003,3.396393e+000
1.264017e+003,3.968201e+000
1.264982e+003,1.439056e+000
1.265946e+003,-1.390625e+000
1.266910e+003,-1.518646e+000
1.267874e+003,7.722473e-001
1.268839e+003,2.962433e+000
1.269803e+003,3.397522e+000
1.270767e+003,2.726166e+000
1.271731e+003,2.157715e+000
1.272695e+003,1.718353e+000
1.273660e+003,6.743469e-001
1.274624e+003,-1.791321e+000
1.275588e+003,-3.297241e+000
1.276552e+003,-1.027557e+000
1.277517e+003,2.635345e+000
1.278481e+003,2.614197e+000
1.279445e+003,-1.685486e+000
1.280409e+003,-5.601837e+000
1.281374e+003,-8.150513e+000
1.282338e+003,-9.155884e+000
1.283302e+003,-7.472076e+000
1.284266e+003,-5.047668e+000
1.285230e+003,-4.233612e+000
1.286195e+003,-5.191132e+000
1.287159e+003,-6.278473e+000
1.288123e+003,-6.092438e+000
1.289087e+003,-5.013306e+000
1.290052e+003,-4.464996e+000
1.291016e+003,-4.748810e+000
1.291980e+003,-4.883698e+000
1.292944e+003,-5.171478e+000
1.293909e+003,-5.183868e+000
1.294873e+003,-4.098450e+000
1.295837e+003,-2.798859e+000
1.296801e+003,-2.637329e+000
1.297766e+003,-3.743134e+000
1.298730e+003,-5.233948e+000
1.299694e+003,-7.010040e+000
1.300658e+003,-8.534576e+000
1.301622e+003,-9.089676e+000
1.302587e+003,-8.974136e+000
1.303551e+003,-8.510529e+000
1.304515e+003,-7.780701e+000
1.305479e+003,-7.235962e+000
1.306444e+003,-7.439270e+000
1.307408e+003,-8.013580e+000
1.308372e+003,-7.223297e+000
1.309336e+003,-4.055634e+000
1.310301e+003,-2.732941e+000
1.311265e+003,-4.789978e+000
1.312229e+003,-6.872894e+000
1.313193e+003,-8.597076e+000
1.314157e+003,-9.542847e+000
1.315122e+003,-8.925049e+000
1.316086e+003,-7.101471e+000
1.317050e+003,-5.514771e+000
1.318014e+003,-5.041138e+000
1.318979e+003,-5.346466e+000
1.319943e+003,-6.267944e+000
1.320907e+003,-7.544189e+000
1.321871e+003,-7.433502e+000
1.322836e+003,-5.641998e+000
1.323800e+003,-3.899445e+000
1.324764e+003,-2.921692e+000
1.325728e+003,-2.608154e+000
1.326693e+003,-3.045593e+000
1.327657e+003,-4.320129e+000
1.328621e+003,-5.450043e+000
1.329585e+003,-6.181335e+000
1.330549e+003,-5.937225e+000
1.331514e+003,-4.054382e+000
1.332478e+003,-2.058960e+000
1.333442e+003,-1.323792e+000
1.334406e+003,-1.748901e+000
1.335371e+003,-2.590912e+000
1.336335e+003,-3.367249e+000
1.337299e+003,-3.845032e+000
1.338263e+003,-3.530151e+000
1.339228e+003,-2.187347e+000
1.340192e+003,-2.260193e+000
1.341156e+003,-5.433563e+000
1.342120e+003,-7.466553e+000
1.343084e+003,-6.967102e+000
1.344049e+003,-6.055725e+000
1.345013e+003,-6.529602e+000
1.345977e+003,-7.935822e+000
1.346941e+003,-8.853333e+000
1.347906e+003,-8.823456e+000
1.348870e+003,-7.524170e+000
1.349834e+003,-3.357971e+000
1.350798e+003,1.098846e+000
1.351763e+003,5.257568e-001
1.352727e+003,-4.143982e+000
1.353691e+003,-7.468414e+000
1.354655e+003,-7.315826e+000
1.355620e+003,-5.748199e+000
1.356584e+003,-5.052399e+000
1.357548e+003,-5.074341e+000
1.358512e+003,-4.773041e+000
1.359476e+003,-4.051941e+000
1.360441e+003,-3.641541e+000
1.361405e+003,-3.497498e+000
1.362369e+003,-3.794342e+000
1.363333e+003,-4.805023e+000
1.364298e+003,-6.218262e+000
1.365262e+003,-8.018738e+000
1.366226e+003,-9.872101e+000
1.367190e+003,-1.059946e+001
1.368155e+003,-9.117584e+000
1.369119e+003,-6.180359e+000
1.370083e+003,-4.064209e+000
1.371047e+003,-2.617737e+000
1.372011e+003,-2.754303e+000
1.372976e+003,-6.991730e+000
1.373940e+003,-9.718399e+000
1.374904e+003,-7.608810e+000
1.375868e+003,-3.577087e+000
1.376833e+003,-1.040771e+000
1.377797e+003,-3.838196e-001
1.378761e+003,-9.124146e-001
1.379725e+003,-2.646393e+000
1.380690e+003,-4.367615e+000
1.381654e+003,-4.692810e+000
1.382618e+003,-4.212280e+000
1.383582e+003,-3.794525e+000
1.384547e+003,-3.422211e+000
1.385511e+003,-2.371826e+000
1.386475e+003,-1.110229e-001
1.387439e+003,2.176025e+000
1.388403e+003,2.715698e+000
1.389368e+003,1.496368e+000
1.390332e+003,-5.509033e-001
1.391296e+003,-4.403900e+000
1.392260e+003,-6.836304e+000
1.393225e+003,-6.779053e+000
1.394189e+003,-5.754974e+000
1.395153e+003,-4.173584e+000
1.396117e+003,-2.376099e+000
1.397082e+003,-4.560242e-001
1.398046e+003,1.411621e+000
1.399010e+003,2.643097e+000
1.399974e+003,2.588959e+000
1.400938e+003,1.552399e+000
1.401903e+003,9.531860e-001
1.402867e+003,1.394257e+000
1.403831e+003,1.199341e+000
1.404795e+003,-9.248352e-001
1.405760e+003,-2.270294e+000
1.406724e+003,-1.443939e+000
1.407688e+003,-1.223145e-001
1.408652e+003,-2.336731e-001
1.409617e+003,-1.484528e+000
1.410581e+003,-2.046875e+000
1.411545e+003,-1.140991e+000
1.412509e+003,2.553101e-001
1.413474e+003,1.431152e+000
1.414438e+003,2.101532e+000
1.415402e+003,1.837494e+000
1.416366e+003,9.331665e-001
1.417330e+003,5.890198e-001
1.418295e+003,1.485901e+000
1.419259e+003,2.297699e+000
1.420223e+003,7.582397e-001
1.421187e+003,-2.578857e+000
1.422152e+003,-3.431488e+000
1.423116e+003,-7.384949e-001
1.424080e+003,1.732117e+000
1.425044e+003,3.143311e+000
1.426009e+003,3.623627e+000
1.426973e+003,2.243622e+000
1.427937e+003,5.099182e-001
1.428901e+003,6.836243e-001
1.429865e+003,2.553009e+000
1.430830e+003,3.562866e+000
1.431794e+003,2.001556e+000
1.432758e+003,-4.920959e-001
1.433722e+003,-3.913879e-001
1.434687e+003,2.807465e+000
1.435651e+003,4.584290e+000
1.436615e+003,2.986481e+000
1.437579e+003,1.981049e+000
1.438544e+003,2.430084e+000
1.439508e+003,3.153656e+000
1.440472e+003,3.476624e+000
1.441436e+003,3.619202e+000
1.442401e+003,3.844055e+000
1.443365e+003,4.246948e+000
1.444329e+003,5.393005e+000
1.445293e+003,8.058624e+000
1.446257e+003,1.087070e+001
1.447222e+003,1.079688e+001
1.448186e+003,8.331116e+000
1.449150e+003,6.134460e+000
1.450114e+003,4.358704e+000
1.451079e+003,2.939148e+000
1.452043e+003,2.088867e+000
1.453007e+003,1.593414e+000
1.453971e+003,1.074585e+000
1.454936e+003,4.911499e-001
1.455900e+003,-1.719971e-001
1.456864e+003,-1.181183e+000
1.457828e+003,-1.056335e+000
1.458792e+003,2.577209e+000
1.459757e+003,6.151337e+000
1.460721e+003,6.150696e+000
1.461685e+003,4.005127e+000
1.462649e+003,2.926392e+000
1.463614e+003,3.761322e+000
1.464578e+003,4.860809e+000
1.465542e+003,4.646942e+000
1.466506e+003,3.686188e+000
1.467471e+003,4.076752e+000
1.468435e+003,6.554535e+000
1.469399e+003,7.426849e+000
1.470363e+003,4.054504e+000
1.471328e+003,2.259064e+000
1.472292e+003,4.799530e+000
1.473256e+003,7.623016e+000
1.474220e+003,7.857788e+000
1.475184e+003,6.357849e+000
1.476149e+003,4.864685e+000
1.477113e+003,4.095520e+000
1.478077e+003,4.300262e+000
1.479041e+003,5.896240e+000
1.480006e+003,8.303558e+000
1.480970e+003,9.241608e+000
1.481934e+003,8.111389e+000
1.482898e+003,7.370117e+000
1.483863e+003,7.330383e+000
1.484827e+003,7.138153e+000
1.485791e+003,6.208130e+000
1.486755e+003,5.574738e+000
1.487719e+003,6.254486e+000
1.488684e+003,7.885345e+000
1.489648e+003,9.571503e+000
1.490612e+003,1.107281e+001
1.491576e+003,1.240259e+001
1.492541e+003,1.350854e+001
1.493505e+003,1.439261e+001
1.494469e+003,1.485040e+001
1.495433e+003,1.488852e+001
1.496398e+003,1.562811e+001
1.497362e+003,1.754694e+001
1.498326e+003,1.979581e+001
1.499290e+003,2.199225e+001
1.500255e+003,2.418060e+001
1.501219e+003,2.618091e+001
1.502183e+003,2.809018e+001
1.503147e+003,3.073172e+001
1.504111e+003,3.439157e+001
1.505076e+003,3.820013e+001
1.506040e+003,4.134457e+001
1.507004e+003,4.484750e+001
1.507968e+003,5.003494e+001
1.508933e+003,5.619788e+001
1.509897e+003,6.157910e+001
1.510861e+003,6.615671e+001
1.511825e+003,7.208743e+001
1.512790e+003,8.088889e+001
1.513754e+003,9.144867e+001
1.514718e+003,1.022697e+002
1.515682e+003,1.132065e+002
1.516646e+003,1.225895e+002
1.517611e+003,1.294347e+002
1.518575e+003,1.371773e+002
1.519539e+003,1.498582e+002
1.520503e+003,1.608885e+002
1.521468e+003,1.668378e+002
1.522432e+003,1.688045e+002
1.523396e+003,1.674980e+002
1.524360e+003,1.640385e+002
1.525325e+003,1.613254e+002
1.526289e+003,1.613299e+002
1.527253e+003,1.616897e+002
1.528217e+003,1.579413e+002
1.529182e+003,1.501423e+002
1.530146e+003,1.428593e+002
1.531110e+003,1.376144e+002
1.532074e+003,1.296689e+002
1.533039e+003,1.175067e+002
1.534003e+003,1.036576e+002
1.534967e+003,8.749680e+001
1.535931e+003,7.201953e+001
1.536896e+003,6.076202e+001
1.537860e+003,5.337805e+001
1.538824e+003,4.686124e+001
1.539788e+003,3.957861e+001
1.540752e+003,3.251184e+001
1.541717e+003,2.700900e+001
1.542681e+003,2.299573e+001
1.543645e+003,1.932941e+001
1.544609e+003,1.569223e+001
1.545573e+003,1.381277e+001
1.546538e+003,1.470444e+001
1.547502e+003,1.555707e+001
1.548466e+003,1.581342e+001
1.549430e+003,1.554333e+001
1.550395e+003,1.418457e+001
1.551359e+003,1.228528e+001
1.552323e+003,1.156219e+001
1.553287e+003,1.256644e+001
1.554252e+003,1.395020e+001
1.555216e+003,1.463239e+001
1.556180e+003,1.455325e+001
1.557144e+003,1.331046e+001
1.558109e+003,1.091690e+001
1.559073e+003,9.652222e+000
1.560037e+003,1.038373e+001
1.561001e+003,1.004712e+001
1.561966e+003,6.156219e+000
1.562930e+003,2.531219e+000
1.563894e+003,3.389191e+000
1.564858e+003,6.982880e+000
1.565823e+003,8.757202e+000
1.566787e+003,7.878082e+000
1.567751e+003,6.951111e+000
1.568715e+003,7.568542e+000
1.569679e+003,8.478424e+000
1.570644e+003,7.845032e+000
1.571608e+003,6.180725e+000
1.572572e+003,5.136261e+000
1.573536e+003,4.842926e+000
1.574500e+003,5.365936e+000
1.575465e+003,7.112396e+000
1.576429e+003,8.966125e+000
1.577393e+003,1.013928e+001
1.578357e+003,1.064148e+001
1.579322e+003,1.036755e+001
1.580286e+003,9.444946e+000
1.581250e+003,8.957306e+000
1.582214e+003,9.396393e+000
1.583179e+003,9.647766e+000
1.584143e+003,8.362366e+000
1.585107e+003,6.792542e+000
1.586071e+003,6.946228e+000
1.587036e+003,8.463654e+000
1.588000e+003,9.786438e+000
1.588964e+003,1.048721e+001
1.589928e+003,1.095895e+001
1.590893e+003,1.153952e+001
1.591857e+003,1.200674e+001
1.592821e+003,1.188196e+001
1.593785e+003,1.132507e+001
1.594750e+003,1.113620e+001
1.595714e+003,1.138257e+001
1.596678e+003,1.177429e+001
1.597642e+003,1.230634e+001
1.598606e+003,1.282394e+001
1.599571e+003,1.324225e+001
1.600535e+003,1.363760e+001
1.601499e+003,1.428830e+001
1.602463e+003,1.498865e+001
1.603427e+003,1.469312e+001
1.604392e+003,1.282999e+001
1.605356e+003,1.114050e+001
1.606320e+003,1.170041e+001
1.607284e+003,1.370322e+001
1.608249e+003,1.478357e+001
1.609213e+003,1.490228e+001
1.610177e+003,1.531635e+001
1.611141e+003,1.667981e+001
1.612106e+003,1.724146e+001
1.613070e+003,1.543036e+001
1.614034e+003,1.311057e+001
1.614998e+003,1.133762e+001
1.615963e+003,1.011981e+001
1.616927e+003,9.077881e+000
1.617891e+003,8.300629e+000
1.618855e+003,9.135223e+000
1.619820e+003,1.268967e+001
1.620784e+003,1.621698e+001
1.621748e+003,1.530551e+001
1.622712e+003,1.105002e+001
1.623677e+003,9.383728e+000
1.624641e+003,1.085461e+001
1.625605e+003,1.204160e+001
1.626569e+003,1.192603e+001
1.627533e+003,1.124527e+001
1.628498e+003,1.027377e+001
1.629462e+003,9.307587e+000
1.630426e+003,8.263702e+000
1.631390e+003,7.442108e+000
1.632354e+003,7.467987e+000
1.633319e+003,8.458221e+000
1.634283e+003,1.016483e+001
1.635247e+003,1.264410e+001
1.636211e+003,1.490948e+001
1.637176e+003,1.501987e+001
1.638140e+003,1.318631e+001
1.639104e+003,1.183994e+001
1.640068e+003,1.127881e+001
1.641033e+003,9.940613e+000
1.641997e+003,5.839233e+000
1.642961e+003,3.354431e+000
1.643925e+003,5.793427e+000
1.644890e+003,9.754059e+000
1.645854e+003,1.204150e+001
1.646818e+003,1.285349e+001
1.647782e+003,1.379147e+001
1.648747e+003,1.529199e+001
1.649711e+003,1.609265e+001
1.650675e+003,1.505316e+001
1.651639e+003,1.315323e+001
1.652604e+003,1.226346e+001
1.653568e+003,1.227222e+001
1.654532e+003,1.215256e+001
1.655496e+003,1.181815e+001
1.656460e+003,1.150946e+001
1.657425e+003,1.150705e+001
1.658389e+003,1.136035e+001
1.659353e+003,1.049026e+001
1.660317e+003,9.589996e+000
1.661281e+003,9.533173e+000
1.662246e+003,1.006122e+001
1.663210e+003,1.019748e+001
1.664174e+003,9.701294e+000
1.665138e+003,9.686768e+000
1.666103e+003,1.151193e+001
1.667067e+003,1.357651e+001
1.668031e+003,1.191888e+001
1.668995e+003,6.980835e+000
1.669960e+003,5.064819e+000
1.670924e+003,7.407288e+000
1.671888e+003,9.595703e+000
1.672852e+003,1.032709e+001
1.673817e+003,1.036954e+001
1.674781e+003,9.752380e+000
1.675745e+003,9.068451e+000
1.676709e+003,9.295746e+000
1.677674e+003,1.002066e+001
1.678638e+003,9.800537e+000
1.679602e+003,8.199219e+000
1.680566e+003,6.097534e+000
1.681531e+003,3.746429e+000
1.682495e+003,2.041534e+000
1.683459e+003,2.981628e+000
1.684423e+003,5.947083e+000
1.685387e+003,7.338257e+000
1.686352e+003,6.732361e+000
1.687316e+003,5.764008e+000
1.688280e+003,4.715973e+000
1.689244e+003,3.852600e+000
1.690208e+003,3.207794e+000
1.691173e+003,2.912354e+000
1.692137e+003,3.469940e+000
1.693101e+003,4.652740e+000
1.694065e+003,5.505951e+000
1.695030e+003,5.692596e+000
1.695994e+003,5.272858e+000
1.696958e+003,3.976166e+000
1.697922e+003,2.609222e+000
1.698887e+003,2.253555e+000
1.699851e+003,2.664490e+000
1.700815e+003,3.336914e+000
1.701779e+003,4.113892e+000
1.702744e+003,3.012390e+000
1.703708e+003,-1.226624e+000
1.704672e+003,-4.235413e+000
1.705636e+003,-2.089020e+000
1.706601e+003,1.933228e+000
1.707565e+003,3.114120e+000
1.708529e+003,2.321564e+000
1.709493e+003,1.922348e+000
1.710458e+003,2.199982e+000
1.711422e+003,2.530991e+000
1.712386e+003,2.886902e+000
1.713350e+003,3.135483e+000
1.714314e+003,2.741150e+000
1.715279e+003,2.185623e+000
1.716243e+003,2.712677e+000
1.717207e+003,4.060150e+000
1.718171e+003,4.393555e+000
1.719135e+003,3.235474e+000
1.720100e+003,2.313080e+000
1.721064e+003,2.896118e+000
1.722028e+003,3.696915e+000
1.722992e+003,2.741394e+000
1.723957e+003,5.987091e-001
1.724921e+003,2.316284e-002
1.725885e+003,1.195694e+000
1.726849e+003,1.301971e+000
1.727814e+003,-1.223633e+000
1.728778e+003,-2.897247e+000
1.729742e+003,-1.622009e+000
1.730706e+003,5.358887e-001
1.731671e+003,1.671432e+000
1.732635e+003,1.812988e+000
1.733599e+003,1.501480e+000
1.734563e+003,1.095520e+000
1.735528e+003,1.098389e+000
1.736492e+003,1.714111e+000
1.737456e+003,2.159088e+000
1.738420e+003,1.428223e+000
1.739385e+003,-1.237030e-001
1.740349e+003,-8.242340e-001
1.741313e+003,-4.714355e-001
1.742277e+003,1.969299e-001
1.743241e+003,1.971619e+000
1.744206e+003,3.016891e+000
1.745170e+003,2.474976e+000
1.746134e+003,1.740616e+000
1.747098e+003,1.520325e+000
1.748063e+003,1.548264e+000
1.749027e+003,1.663544e+000
1.749991e+003,1.681686e+000
1.750955e+003,1.061707e+000
1.751919e+003,-2.267914e-001
1.752884e+003,-1.109741e+000
1.753848e+003,-6.816101e-001
1.754812e+003,3.168335e-001
1.755776e+003,5.064850e-001
1.756741e+003,1.008606e-002
1.757705e+003,-8.398132e-001
1.758669e+003,-2.540848e+000
1.759633e+003,-3.430954e+000
1.760598e+003,-3.393066e+000
1.761562e+003,-2.595062e+000
1.762526e+003,1.406403e-001
1.763490e+003,2.568146e+000
1.764455e+003,2.865067e+000
1.765419e+003,1.965973e+000
1.766383e+003,1.336700e+000
1.767347e+003,1.106293e+000
1.768312e+003,6.692963e-001
1.769276e+003,-2.954254e-001
1.770240e+003,-1.623688e+000
1.771204e+003,-3.298981e+000
1.772168e+003,-4.707886e+000
1.773133e+003,-4.446747e+000
1.774097e+003,-2.710632e+000
1.775061e+003,-1.368027e+000
1.776025e+003,-7.034454e-001
1.776990e+003,-7.089233e-001
1.777954e+003,-1.784821e+000
1.778918e+003,-2.169891e+000
1.779882e+003,5.580597e-001
1.780846e+003,3.518265e+000
1.781811e+003,1.947723e+000
1.782775e+003,-2.456039e+000
1.783739e+003,-3.713745e+000
1.784703e+003,-6.301727e-001
1.785668e+003,1.740311e+000
1.786632e+003,4.372101e-001
1.787596e+003,-1.319031e+000
1.788560e+003,-5.005951e-001
1.789525e+003,1.129913e+000
1.790489e+003,6.913757e-001
1.791453e+003,-1.341431e+000
1.792417e+003,-2.771805e+000
1.793382e+003,-3.144714e+000
1.794346e+003,-3.603073e+000
1.795310e+003,-4.848801e+000
1.796274e+003,-5.289703e+000
1.797239e+003,-2.626297e+000
1.798203e+003,1.721954e+000
1.799167e+003,2.497604e+000
1.800131e+003,-1.385605e+000
1.801095e+003,-3.255219e+000
1.802060e+003,-1.450119e+000
1.803024e+003,-9.567261e-003
1.803988e+003,7.597809e-001
1.804952e+003,8.223877e-001
1.805917e+003,-7.718658e-001
1.806881e+003,-2.298035e+000
1.807845e+003,-1.430725e+000
1.808809e+003,7.319946e-001
1.809773e+003,1.419373e+000
1.810738e+003,2.503204e-001
1.811702e+003,-6.977997e-001
1.812666e+003,-1.412354e-001
1.813630e+003,1.090271e+000
1.814595e+003,2.058594e+000
1.815559e+003,2.508072e+000
1.816523e+003,1.142960e+000
1.817487e+003,-2.286026e+000
1.818452e+003,-4.222885e+000
1.819416e+003,-3.972961e+000
1.820380e+003,-3.439560e+000
1.821344e+003,-3.283661e+000
1.822309e+003,-2.992920e+000
1.823273e+003,-1.768051e+000
1.824237e+003,-4.793396e-001
1.825201e+003,-4.025116e-001
1.826166e+003,-1.056366e+000
1.827130e+003,-7.842865e-001
1.828094e+003,6.110229e-001
1.829058e+003,1.237137e+000
1.830022e+003,-8.952332e-002
1.830987e+003,-1.613052e+000
1.831951e+003,-1.600906e+000
1.832915e+003,-1.101242e+000
1.833879e+003,-2.047089e+000
1.834844e+003,-3.797546e+000
1.835808e+003,-3.916504e+000
1.836772e+003,-2.229553e+000
1.837736e+003,-1.132614e+000
1.838700e+003,-1.732330e+000
1.839665e+003,-3.083954e+000
1.840629e+003,-4.531097e+000
1.841593e+003,-5.309586e+000
1.842557e+003,-3.538879e+000
1.843522e+003,7.113190e-001
1.844486e+003,2.575546e+000
1.845450e+003,6.262817e-001
1.846414e+003,-7.109985e-001
1.847379e+003,-1.445313e+000
1.848343e+003,-1.951981e+000
1.849307e+003,-2.195084e+000
1.850271e+003,-2.260910e+000
1.851236e+003,-1.993210e+000
1.852200e+003,-1.609009e+000
1.853164e+003,-1.516235e+000
1.854128e+003,-1.810242e+000
1.855093e+003,-2.414948e+000
1.856057e+003,-3.107224e+000
1.857021e+003,-3.208130e+000
1.857985e+003,-2.125961e+000
1.858949e+003,-6.675873e-001
1.859914e+003,-1.970825e-001
1.860878e+003,-5.277710e-001
1.861842e+003,-8.612823e-001
1.862806e+003,-1.238388e+000
1.863771e+003,-1.286942e+000
1.864735e+003,-8.092041e-001
1.865699e+003,-1.000977e+000
1.866663e+003,-2.894806e+000
1.867627e+003,-4.384705e+000
1.868592e+003,-3.009567e+000
1.869556e+003,-6.150360e-001
1.870520e+003,-6.042633e-001
1.871484e+003,-2.654999e+000
1.872449e+003,-4.826935e+000
1.873413e+003,-7.198456e+000
1.874377e+003,-7.380768e+000
1.875341e+003,-2.928848e+000
1.876306e+003,1.019882e+000
1.877270e+003,9.451294e-001
1.878234e+003,-2.946472e-001
1.879198e+003,3.265533e-001
1.880163e+003,2.021088e+000
1.881127e+003,3.053482e+000
1.882091e+003,3.143829e+000
1.883055e+003,2.661972e+000
1.884020e+003,1.820572e+000
1.884984e+003,8.783569e-001
1.885948e+003,6.671143e-002
1.886912e+003,-5.674591e-001
1.887876e+003,-9.193420e-001
1.888841e+003,-9.786377e-001
1.889805e+003,-7.066956e-001
1.890769e+003,-3.723145e-003
1.891733e+003,4.181671e-001
1.892698e+003,1.890564e-002
1.893662e+003,3.451843e-001
1.894626e+003,3.406219e+000
1.895590e+003,5.464706e+000
1.896554e+003,2.117004e+000
1.897519e+003,-2.208069e+000
1.898483e+003,-1.384369e+000
1.899447e+003,2.919159e+000
1.900411e+003,4.474182e+000
1.901376e+003,2.167068e+000
1.902340e+003,-8.422852e-003
1.903304e+003,-6.622467e-001
1.904268e+003,-7.088928e-001
1.905233e+003,-3.776093e-001
1.906197e+003,7.191467e-002
1.907161e+003,3.850250e-001
1.908125e+003,6.608734e-001
1.909090e+003,1.076401e+000
1.910054e+003,1.501999e+000
1.911018e+003,1.652588e+000
1.911982e+003,1.484818e+000
1.912947e+003,9.597931e-001
1.913911e+003,9.353638e-003
1.914875e+003,-5.686340e-001
1.915839e+003,5.481873e-001
1.916803e+003,2.825165e+000
1.917768e+003,4.075958e+000
1.918732e+003,4.368515e+000
1.919696e+003,3.541824e+000
1.920660e+003,7.351379e-001
1.921625e+003,-4.269104e-001
1.922589e+003,1.807846e+000
1.923553e+003,4.059174e+000
1.924517e+003,4.467148e+000
1.925481e+003,4.228806e+000
1.926446e+003,4.536545e+000
1.927410e+003,4.920380e+000
1.928374e+003,4.095474e+000
1.929338e+003,2.062759e+000
1.930303e+003,7.135468e-001
1.931267e+003,7.678223e-001
1.932231e+003,1.306152e+000
1.933195e+003,1.912888e+000
1.934160e+003,2.608261e+000
1.935124e+003,3.685455e+000
1.936088e+003,4.567734e+000
1.937052e+003,4.509369e+000
1.938017e+003,3.902771e+000
1.938981e+003,3.611069e+000
1.939945e+003,3.677292e+000
1.940909e+003,3.406372e+000
1.941874e+003,2.505432e+000
1.942838e+003,1.706421e+000
1.943802e+003,1.814972e+000
1.944766e+003,2.327774e+000
1.945730e+003,1.821182e+000
1.946695e+003,4.642029e-001
1.947659e+003,4.974365e-001
1.948623e+003,2.045258e+000
1.949587e+003,3.252441e+000
1.950552e+003,4.010986e+000
1.951516e+003,4.318527e+000
1.952480e+003,3.995575e+000
1.953444e+003,3.556931e+000
1.954408e+003,3.004349e+000
1.955373e+003,2.740250e+000
1.956337e+003,3.947617e+000
1.957301e+003,6.139404e+000
1.958265e+003,7.173035e+000
1.959230e+003,6.946442e+000
1.960194e+003,6.143005e+000
1.961158e+003,3.566742e+000
1.962122e+003,1.989578e+000
1.963087e+003,2.583817e+000
1.964051e+003,3.864731e+000
1.965015e+003,6.207230e+000
1.965979e+003,7.969452e+000
1.966944e+003,6.480453e+000
1.967908e+003,3.481720e+000
1.968872e+003,2.418381e+000
1.969836e+003,3.632675e+000
1.970801e+003,5.579193e+000
1.971765e+003,7.456573e+000
1.972729e+003,8.046066e+000
1.973693e+003,5.904205e+000
1.974657e+003,3.129578e+000
1.975622e+003,2.840881e+000
1.976586e+003,4.318939e+000
1.977550e+003,6.302917e+000
1.978514e+003,8.457642e+000
1.979479e+003,8.609055e+000
1.980443e+003,6.581207e+000
1.981407e+003,5.614044e+000
1.982371e+003,7.023163e+000
1.983335e+003,8.345078e+000
1.984300e+003,7.588196e+000
1.985264e+003,6.040863e+000
1.986228e+003,5.821503e+000
1.987192e+003,6.558395e+000
1.988157e+003,6.280029e+000
1.989121e+003,4.703735e+000
1.990085e+003,3.837631e+000
1.991049e+003,4.107346e+000
1.992014e+003,4.361710e+000
1.992978e+003,4.129150e+000
1.993942e+003,4.197510e+000
1.994906e+003,5.498962e+000
1.995871e+003,6.526993e+000
1.996835e+003,5.395096e+000
1.997799e+003,3.829178e+000
1.998763e+003,5.267410e+000
1.999728e+003,8.666763e+000
