5.003444e+002,4.488498e+001
5.013087e+002,4.648163e+001
5.022729e+002,4.660919e+001
5.032371e+002,4.550679e+001
5.042014e+002,4.366975e+001
5.051656e+002,4.128241e+001
5.061298e+002,3.914403e+001
5.070941e+002,3.794241e+001
5.080583e+002,3.772816e+001
5.090225e+002,3.789819e+001
5.099868e+002,3.869086e+001
5.109510e+002,3.947623e+001
5.119152e+002,4.014273e+001
5.128795e+002,4.072641e+001
5.138437e+002,4.053198e+001
5.148079e+002,3.792926e+001
5.157722e+002,3.583705e+001
5.167364e+002,3.609070e+001
5.177006e+002,3.842149e+001
5.186649e+002,4.050974e+001
5.196291e+002,3.909468e+001
5.205933e+002,3.638133e+001
5.215576e+002,3.451183e+001
5.225218e+002,3.366545e+001
5.234860e+002,3.335965e+001
5.244503e+002,3.286255e+001
5.254145e+002,3.225014e+001
5.263787e+002,3.206955e+001
5.273430e+002,3.259036e+001
5.283072e+002,3.336009e+001
5.292714e+002,3.365685e+001
5.302357e+002,3.292451e+001
5.311999e+002,3.248344e+001
5.321641e+002,3.341750e+001
5.331284e+002,3.431996e+001
5.340926e+002,3.374884e+001
5.350568e+002,3.099908e+001
5.360211e+002,2.809770e+001
5.369853e+002,2.703096e+001
5.379495e+002,2.690192e+001
5.389138e+002,2.707994e+001
5.398780e+002,2.725703e+001
5.408422e+002,2.753378e+001
5.418065e+002,2.854488e+001
5.427707e+002,3.010593e+001
5.437349e+002,3.064803e+001
5.446992e+002,2.949452e+001
5.456634e+002,2.715761e+001
5.466276e+002,2.548608e+001
5.475919e+002,2.505258e+001
5.485561e+002,2.482535e+001
5.495203e+002,2.485838e+001
5.504846e+002,2.493178e+001
5.514488e+002,2.476184e+001
5.524130e+002,2.418700e+001
5.533773e+002,2.372813e+001
5.543415e+002,2.393936e+001
5.553057e+002,2.424834e+001
5.562700e+002,2.397815e+001
5.572342e+002,2.270050e+001
5.581984e+002,2.085634e+001
5.591627e+002,1.947968e+001
5.601269e+002,1.853453e+001
5.610911e+002,1.790672e+001
5.620554e+002,1.752344e+001
5.630196e+002,1.729628e+001
5.639838e+002,1.687360e+001
5.649481e+002,1.605350e+001
5.659123e+002,1.534772e+001
5.668765e+002,1.501134e+001
5.678408e+002,1.502774e+001
5.688050e+002,1.512027e+001
5.697692e+002,1.482376e+001
5.707335e+002,1.481648e+001
5.716977e+002,1.577823e+001
5.726619e+002,1.707306e+001
5.736262e+002,1.788762e+001
5.745904e+002,1.767825e+001
5.755546e+002,1.683464e+001
5.765189e+002,1.550388e+001
5.774831e+002,1.399272e+001
5.784473e+002,1.326265e+001
5.794116e+002,1.401363e+001
5.803758e+002,1.605832e+001
5.813400e+002,1.563881e+001
5.823043e+002,1.156262e+001
5.832685e+002,8.381393e+000
5.842327e+002,8.344620e+000
5.851970e+002,1.098546e+001
5.861612e+002,1.269595e+001
5.871254e+002,1.142599e+001
5.880897e+002,1.078165e+001
5.890539e+002,1.194524e+001
5.900181e+002,1.402472e+001
5.909824e+002,1.561215e+001
5.919466e+002,1.602760e+001
5.929108e+002,1.521008e+001
5.938751e+002,1.253920e+001
5.948393e+002,9.143875e+000
5.958035e+002,6.894363e+000
5.967678e+002,7.146545e+000
5.977320e+002,9.527878e+000
5.986962e+002,1.096266e+001
5.996605e+002,1.147469e+001
6.006247e+002,1.121906e+001
6.015889e+002,9.685547e+000
6.025532e+002,7.061859e+000
6.035174e+002,5.853806e+000
6.044816e+002,7.623276e+000
6.054459e+002,9.319305e+000
6.064101e+002,1.065979e+001
6.073743e+002,1.160446e+001
6.083386e+002,1.228134e+001
6.093028e+002,1.294153e+001
6.102670e+002,1.290698e+001
6.112313e+002,1.094287e+001
6.121955e+002,8.363663e+000
6.131597e+002,7.022522e+000
6.141240e+002,8.155975e+000
6.150882e+002,1.098146e+001
6.160524e+002,1.224959e+001
6.170167e+002,1.229857e+001
6.179809e+002,1.221060e+001
6.189451e+002,1.247890e+001
6.199094e+002,1.292526e+001
6.208736e+002,1.263632e+001
6.218378e+002,1.067223e+001
6.228021e+002,9.285965e+000
6.237663e+002,9.108261e+000
6.247305e+002,9.553757e+000
6.256948e+002,9.600067e+000
6.266590e+002,8.643509e+000
6.276232e+002,7.406525e+000
6.285875e+002,6.113113e+000
6.295517e+002,5.135498e+000
6.305159e+002,5.089584e+000
6.314802e+002,6.194687e+000
6.324444e+002,7.647018e+000
6.334086e+002,6.881531e+000
6.343729e+002,4.757675e+000
6.353371e+002,3.343582e+000
6.363013e+002,3.416397e+000
6.372656e+002,4.529709e+000
6.382298e+002,5.204285e+000
6.391940e+002,5.466370e+000
6.401583e+002,4.991806e+000
6.411225e+002,3.307785e+000
6.420867e+002,1.381699e+000
6.430510e+002,2.101440e-001
6.440152e+002,-2.363586e-002
6.449794e+002,3.847046e-001
6.459437e+002,1.890213e+000
6.469079e+002,3.416885e+000
6.478721e+002,4.140945e+000
6.488364e+002,3.815369e+000
6.498006e+002,2.905640e+000
6.507648e+002,1.924194e+000
6.517291e+002,9.403229e-001
6.526933e+002,2.346649e-001
6.536575e+002,-1.485291e-001
6.546218e+002,-2.354736e-001
6.555860e+002,-4.214478e-002
6.565502e+002,7.204742e-001
6.575145e+002,1.072418e+000
6.584787e+002,5.834808e-001
6.594429e+002,9.681702e-002
6.604072e+002,3.605804e-001
6.613714e+002,1.554810e+000
6.623356e+002,2.743088e+000
6.632999e+002,3.815292e+000
6.642641e+002,4.339828e+000
6.652283e+002,3.806992e+000
6.661926e+002,2.487488e+000
6.671568e+002,1.262878e+000
6.681210e+002,1.242676e+000
6.690853e+002,1.885071e+000
6.700495e+002,1.708725e+000
6.710137e+002,7.512970e-001
6.719780e+002,-9.544373e-002
6.729422e+002,1.756439e-001
6.739064e+002,1.881195e+000
6.748707e+002,2.496582e+000
6.758349e+002,1.410492e+000
6.767991e+002,2.404785e-001
6.777634e+002,-5.072174e-001
6.787276e+002,-6.889954e-001
6.796918e+002,1.319885e-002
6.806561e+002,2.908737e+000
6.816203e+002,5.166718e+000
6.825845e+002,5.352661e+000
6.835488e+002,4.230850e+000
6.845130e+002,3.128311e+000
6.854772e+002,3.051987e+000
6.864415e+002,3.587891e+000
6.874057e+002,3.753357e+000
6.883699e+002,3.461151e+000
6.893342e+002,2.458298e+000
6.902984e+002,5.107117e-001
6.912626e+002,-1.980347e+000
6.922269e+002,-2.488449e+000
6.931911e+002,1.930939e+000
6.941553e+002,4.626617e+000
6.951196e+002,3.677429e+000
6.960838e+002,9.984436e-001
6.970480e+002,-1.434021e-001
6.980123e+002,1.693176e+000
6.989765e+002,3.268143e+000
6.999407e+002,3.092545e+000
7.009050e+002,2.235168e+000
7.018692e+002,1.288223e+000
7.028334e+002,5.609589e-001
7.037977e+002,2.625580e-001
7.047619e+002,1.425858e+000
7.057261e+002,3.155212e+000
7.066904e+002,2.949371e+000
7.076546e+002,4.077606e-001
7.086188e+002,-2.546417e+000
7.095831e+002,-2.744812e+000
7.105473e+002,1.136612e+000
7.115115e+002,3.471069e+000
7.124758e+002,4.012894e+000
7.134400e+002,3.577103e+000
7.144042e+002,2.338852e+000
7.153685e+002,4.208984e-001
7.163327e+002,-1.189514e+000
7.172969e+002,-1.996765e+000
7.182612e+002,-2.364365e+000
7.192254e+002,-2.345474e+000
7.201896e+002,-2.048965e+000
7.211539e+002,-1.532379e+000
7.221181e+002,-7.823486e-001
7.230823e+002,-8.392334e-004
7.240466e+002,1.095428e-001
7.250108e+002,-1.635132e-001
7.259750e+002,9.820557e-002
7.269393e+002,1.459473e+000
7.279035e+002,3.572540e+000
7.288677e+002,4.521393e+000
7.298320e+002,3.562485e+000
7.307962e+002,2.761520e+000
7.317604e+002,2.161530e+000
7.327247e+002,1.849518e+000
7.336889e+002,1.921066e+000
7.346531e+002,2.359146e+000
7.356174e+002,2.595367e+000
7.365816e+002,2.563843e+000
7.375458e+002,2.469681e+000
7.385101e+002,2.464417e+000
7.394743e+002,2.566406e+000
7.404385e+002,2.602417e+000
7.414028e+002,2.097260e+000
7.423670e+002,1.114700e+000
7.433312e+002,1.064896e+000
7.442955e+002,2.298843e+000
7.452597e+002,3.922363e+000
7.462239e+002,4.841965e+000
7.471882e+002,4.824417e+000
7.481524e+002,4.806122e+000
7.491166e+002,4.596054e+000
7.500809e+002,4.272461e+000
7.510451e+002,3.822571e+000
7.520093e+002,3.289474e+000
7.529736e+002,2.734055e+000
7.539378e+002,1.969284e+000
7.549020e+002,1.925049e+000
7.558663e+002,3.733917e+000
7.568306e+002,6.278519e+000
7.577948e+002,7.952194e+000
7.587590e+002,7.781448e+000
7.597233e+002,6.363632e+000
7.606875e+002,5.746368e+000
7.616517e+002,5.893997e+000
7.626160e+002,5.572220e+000
7.635802e+002,4.311386e+000
7.645444e+002,2.638351e+000
7.655087e+002,1.611862e+000
7.664729e+002,1.357224e+000
7.674371e+002,1.512604e+000
7.684014e+002,2.347168e+000
7.693656e+002,3.197784e+000
7.703298e+002,3.793640e+000
7.712941e+002,4.059326e+000
7.722583e+002,3.818817e+000
7.732225e+002,2.203979e+000
7.741868e+002,7.333527e-001
7.751510e+002,1.045029e+000
7.761152e+002,2.560333e+000
7.770795e+002,3.572342e+000
7.780437e+002,2.539734e+000
7.790079e+002,-1.307068e-001
7.799722e+002,-2.846069e-001
7.809364e+002,2.165009e+000
7.819006e+002,4.539261e+000
7.828649e+002,5.983978e+000
7.838291e+002,6.713501e+000
7.847933e+002,7.275467e+000
7.857576e+002,7.714630e+000
7.867218e+002,7.469437e+000
7.876860e+002,5.992981e+000
7.886503e+002,4.445374e+000
7.896145e+002,3.970444e+000
7.905787e+002,4.786148e+000
7.915430e+002,5.652771e+000
7.925072e+002,4.786591e+000
7.934714e+002,3.319336e+000
7.944357e+002,2.767670e+000
7.953999e+002,3.187195e+000
7.963641e+002,3.631592e+000
7.973284e+002,2.933884e+000
7.982926e+002,9.466400e-001
7.992568e+002,9.962616e-001
8.002211e+002,4.141251e+000
8.011853e+002,6.458176e+000
8.021495e+002,6.109589e+000
8.031138e+002,4.041580e+000
8.040780e+002,3.233109e+000
8.050422e+002,4.929718e+000
8.060065e+002,6.430862e+000
8.069707e+002,6.412506e+000
8.079349e+002,5.923370e+000
8.088992e+002,6.377609e+000
8.098634e+002,8.170715e+000
8.108276e+002,9.843719e+000
8.117919e+002,8.757645e+000
8.127561e+002,5.882065e+000
8.137203e+002,3.365173e+000
8.146846e+002,1.606613e+000
8.156488e+002,7.396545e-001
8.166130e+002,9.039307e-001
8.175773e+002,2.212006e+000
8.185415e+002,3.744354e+000
8.195057e+002,5.659210e+000
8.204700e+002,7.350708e+000
8.214342e+002,8.980881e+000
8.223984e+002,1.022667e+001
8.233627e+002,1.014185e+001
8.243269e+002,7.772934e+000
8.252911e+002,5.340134e+000
8.262554e+002,3.687836e+000
8.272196e+002,2.844864e+000
8.281838e+002,2.966736e+000
8.291481e+002,4.020721e+000
8.301123e+002,5.766205e+000
8.310765e+002,8.090012e+000
8.320408e+002,1.068410e+001
8.330050e+002,1.121106e+001
8.339692e+002,9.115494e+000
8.349335e+002,6.370026e+000
8.358977e+002,5.197952e+000
8.368619e+002,6.003601e+000
8.378262e+002,5.815643e+000
8.387904e+002,2.824326e+000
8.397546e+002,6.436462e-001
8.407189e+002,1.169434e-001
8.416831e+002,1.045166e+000
8.426473e+002,3.296326e+000
8.436116e+002,7.224167e+000
8.445758e+002,1.077936e+001
8.455400e+002,1.125317e+001
8.465043e+002,1.021049e+001
8.474685e+002,9.372070e+000
8.484327e+002,9.356506e+000
8.493970e+002,9.844101e+000
8.503612e+002,1.019038e+001
8.513254e+002,1.037595e+001
8.522897e+002,9.705170e+000
8.532539e+002,6.871338e+000
8.542181e+002,4.784149e+000
8.551824e+002,6.027374e+000
8.561466e+002,1.020137e+001
8.571108e+002,1.293150e+001
8.580751e+002,1.172462e+001
8.590393e+002,1.043126e+001
8.600035e+002,1.051288e+001
8.609678e+002,1.125914e+001
8.619320e+002,1.163022e+001
8.628962e+002,1.123697e+001
8.638605e+002,1.090752e+001
8.648247e+002,1.226030e+001
8.657889e+002,1.450281e+001
8.667532e+002,1.612520e+001
8.677174e+002,1.692120e+001
8.686816e+002,1.684918e+001
8.696459e+002,1.561052e+001
8.706101e+002,1.286978e+001
8.715743e+002,1.211501e+001
8.725386e+002,1.459160e+001
8.735028e+002,1.726054e+001
8.744670e+002,1.970572e+001
8.754313e+002,2.160548e+001
8.763955e+002,2.246309e+001
8.773597e+002,2.191545e+001
8.783240e+002,2.122189e+001
8.792882e+002,2.145654e+001
8.802524e+002,2.178346e+001
8.812167e+002,2.112843e+001
8.821809e+002,1.956831e+001
8.831451e+002,1.839432e+001
8.841094e+002,1.939009e+001
8.850736e+002,2.252216e+001
8.860378e+002,2.436418e+001
8.870021e+002,2.460431e+001
8.879663e+002,2.464102e+001
8.889305e+002,2.550662e+001
8.898948e+002,2.682709e+001
8.908590e+002,2.667984e+001
8.918232e+002,2.333800e+001
8.927875e+002,2.145200e+001
8.937517e+002,2.261972e+001
8.947159e+002,2.498468e+001
8.956802e+002,2.743930e+001
8.966444e+002,2.938760e+001
8.976086e+002,3.010789e+001
8.985729e+002,2.830733e+001
8.995371e+002,2.554099e+001
9.005013e+002,2.417361e+001
9.014656e+002,2.423502e+001
9.024298e+002,2.523485e+001
9.033940e+002,2.680914e+001
9.043583e+002,2.879085e+001
9.053225e+002,3.059903e+001
9.062867e+002,3.269463e+001
9.072510e+002,3.369923e+001
9.082152e+002,3.314406e+001
9.091794e+002,3.202933e+001
9.101437e+002,3.105621e+001
9.111079e+002,3.031285e+001
9.120721e+002,3.026865e+001
9.130364e+002,3.193648e+001
9.140006e+002,3.357780e+001
9.149648e+002,3.453413e+001
9.159291e+002,3.477242e+001
9.168933e+002,3.411662e+001
9.178575e+002,3.242505e+001
9.188218e+002,3.020088e+001
9.197860e+002,2.962260e+001
9.207502e+002,3.068253e+001
9.217145e+002,3.111607e+001
9.226787e+002,3.022337e+001
9.236429e+002,2.907472e+001
9.246072e+002,2.939441e+001
9.255714e+002,3.170154e+001
9.265356e+002,3.220142e+001
9.274999e+002,2.768097e+001
9.284641e+002,2.399347e+001
9.294283e+002,2.403561e+001
9.303926e+002,2.625516e+001
9.313568e+002,2.750768e+001
9.323210e+002,2.612444e+001
9.332853e+002,2.374887e+001
9.342495e+002,2.264757e+001
9.352137e+002,2.241498e+001
9.361780e+002,2.319321e+001
9.371422e+002,2.503226e+001
9.381064e+002,2.652200e+001
9.390707e+002,2.538802e+001
9.400349e+002,2.076239e+001
9.409991e+002,1.864302e+001
9.419634e+002,2.078992e+001
9.429276e+002,2.275063e+001
9.438918e+002,2.376332e+001
9.448561e+002,2.378770e+001
9.458203e+002,2.252391e+001
9.467845e+002,1.957002e+001
9.477488e+002,1.711014e+001
9.487130e+002,1.739522e+001
9.496772e+002,1.836632e+001
9.506415e+002,1.812885e+001
9.516057e+002,1.684598e+001
9.525699e+002,1.628355e+001
9.535342e+002,1.820952e+001
9.544984e+002,2.206987e+001
9.554626e+002,2.310631e+001
9.564269e+002,2.093431e+001
9.573911e+002,1.935191e+001
9.583553e+002,1.967313e+001
9.593196e+002,2.094617e+001
9.602838e+002,2.169533e+001
9.612480e+002,2.177394e+001
9.622123e+002,2.151752e+001
9.631765e+002,2.110539e+001
9.641407e+002,2.039583e+001
9.651050e+002,1.894582e+001
9.660692e+002,1.710220e+001
9.670334e+002,1.558360e+001
9.679977e+002,1.489662e+001
9.689619e+002,1.487990e+001
9.699261e+002,1.498167e+001
9.708904e+002,1.521147e+001
9.718546e+002,1.601945e+001
9.728188e+002,1.748021e+001
9.737831e+002,1.946832e+001
9.747473e+002,2.207643e+001
9.757115e+002,2.559459e+001
9.766758e+002,2.834302e+001
9.776400e+002,3.123624e+001
9.786042e+002,3.242665e+001
9.795685e+002,3.016917e+001
9.805327e+002,2.631747e+001
9.814969e+002,2.349396e+001
9.824612e+002,2.265305e+001
9.834254e+002,2.214864e+001
9.843896e+002,1.986374e+001
9.853539e+002,1.714282e+001
9.863181e+002,1.544037e+001
9.872823e+002,1.474773e+001
9.882466e+002,1.464438e+001
9.892108e+002,1.492853e+001
9.901750e+002,1.558789e+001
9.911393e+002,1.539635e+001
9.921035e+002,1.289227e+001
9.930677e+002,1.131557e+001
9.940320e+002,1.154385e+001
9.949962e+002,1.237912e+001
9.959604e+002,1.267456e+001
9.969247e+002,1.239000e+001
9.978889e+002,1.248758e+001
9.988531e+002,1.377087e+001
9.998174e+002,1.476779e+001
1.000782e+003,1.470273e+001
1.001746e+003,1.393567e+001
1.002710e+003,1.277779e+001
1.003674e+003,1.145631e+001
1.004639e+003,1.033746e+001
1.005603e+003,1.014572e+001
1.006567e+003,1.095021e+001
1.007531e+003,1.106992e+001
1.008495e+003,9.961990e+000
1.009460e+003,9.295120e+000
1.010424e+003,1.086780e+001
1.011388e+003,1.386375e+001
1.012352e+003,1.463773e+001
1.013317e+003,1.145882e+001
1.014281e+003,8.503708e+000
1.015245e+003,6.845856e+000
1.016209e+003,5.918411e+000
1.017174e+003,5.475937e+000
1.018138e+003,5.401077e+000
1.019102e+003,5.708755e+000
1.020066e+003,6.522751e+000
1.021031e+003,7.509705e+000
1.021995e+003,7.201080e+000
1.022959e+003,5.809509e+000
1.023923e+003,4.983444e+000
1.024887e+003,5.522964e+000
1.025852e+003,6.364899e+000
1.026816e+003,5.634491e+000
1.027780e+003,2.875534e+000
1.028744e+003,1.113876e+000
1.029709e+003,1.714569e+000
1.030673e+003,1.938644e+000
1.031637e+003,-8.773804e-003
1.032601e+003,-2.474915e+000
1.033566e+003,-2.490250e+000
1.034530e+003,9.030609e-001
1.035494e+003,4.164993e+000
1.036458e+003,2.243195e+000
1.037422e+003,-1.694916e+000
1.038387e+003,-1.849518e+000
1.039351e+003,1.599869e+000
1.040315e+003,5.078506e+000
1.041279e+003,5.953842e+000
1.042244e+003,4.807938e+000
1.043208e+003,4.303207e+000
1.044172e+003,5.063995e+000
1.045136e+003,5.173721e+000
1.046101e+003,4.189865e+000
1.047065e+003,3.097977e+000
1.048029e+003,2.392761e+000
1.048993e+003,2.088608e+000
1.049958e+003,2.106628e+000
1.050922e+003,2.542923e+000
1.051886e+003,3.141632e+000
1.052850e+003,3.885239e+000
1.053814e+003,4.474335e+000
1.054779e+003,4.299515e+000
1.055743e+003,3.319794e+000
1.056707e+003,2.255997e+000
1.057671e+003,1.997650e+000
1.058636e+003,2.530167e+000
1.059600e+003,2.746506e+000
1.060564e+003,2.931931e+000
1.061528e+003,2.677032e+000
1.062493e+003,1.042282e+000
1.063457e+003,-6.848907e-001
1.064421e+003,-6.491089e-001
1.065385e+003,1.338058e+000
1.066349e+003,2.776382e+000
1.067314e+003,1.806030e+000
1.068278e+003,6.240234e-001
1.069242e+003,6.852875e-001
1.070206e+003,1.685516e+000
1.071171e+003,3.347565e+000
1.072135e+003,5.332932e+000
1.073099e+003,6.856049e+000
1.074063e+003,6.631042e+000
1.075028e+003,4.513824e+000
1.075992e+003,2.541061e+000
1.076956e+003,-9.948730e-002
1.077920e+003,-1.550369e+000
1.078885e+003,-2.483368e-001
1.079849e+003,2.503342e+000
1.080813e+003,4.160324e+000
1.081777e+003,4.186951e+000
1.082741e+003,4.319290e+000
1.083706e+003,6.083755e+000
1.084670e+003,7.377655e+000
1.085634e+003,6.552612e+000
1.086598e+003,4.408173e+000
1.087563e+003,2.592270e+000
1.088527e+003,2.085297e+000
1.089491e+003,2.533020e+000
1.090455e+003,3.180145e+000
1.091420e+003,3.973984e+000
1.092384e+003,4.255127e+000
1.093348e+003,3.812241e+000
1.094312e+003,3.113617e+000
1.095276e+003,2.476990e+000
1.096241e+003,1.913925e+000
1.097205e+003,1.242157e+000
1.098169e+003,2.510071e-001
1.099133e+003,-5.339966e-001
1.100098e+003,-9.697876e-001
1.101062e+003,-1.029160e+000
1.102026e+003,-5.509033e-001
1.102990e+003,3.267365e-001
1.103955e+003,1.399796e+000
1.104919e+003,2.514969e+000
1.105883e+003,3.426636e+000
1.106847e+003,3.670364e+000
1.107812e+003,3.182114e+000
1.108776e+003,2.160355e+000
1.109740e+003,1.736603e-001
1.110704e+003,-1.437790e+000
1.111668e+003,-1.497604e+000
1.112633e+003,-2.394867e-001
1.113597e+003,1.178284e+000
1.114561e+003,2.961456e+000
1.115525e+003,3.930237e+000
1.116490e+003,3.135651e+000
1.117454e+003,2.070786e+000
1.118418e+003,1.685776e+000
1.119382e+003,1.993332e+000
1.120347e+003,2.566208e+000
1.121311e+003,3.061127e+000
1.122275e+003,3.352814e+000
1.123239e+003,3.488342e+000
1.124203e+003,3.558914e+000
1.125168e+003,3.173553e+000
1.126132e+003,2.056503e+000
1.127096e+003,1.206543e+000
1.128060e+003,1.553299e+000
1.129025e+003,2.776367e+000
1.129989e+003,3.409286e+000
1.130953e+003,2.795685e+000
1.131917e+003,2.811157e+000
1.132882e+003,4.940903e+000
1.133846e+003,6.899231e+000
1.134810e+003,7.061630e+000
1.135774e+003,5.903198e+000
1.136739e+003,4.719971e+000
1.137703e+003,4.251205e+000
1.138667e+003,4.420090e+000
1.139631e+003,5.372116e+000
1.140595e+003,6.916000e+000
1.141560e+003,7.529282e+000
1.142524e+003,6.935013e+000
1.143488e+003,6.444000e+000
1.144452e+003,6.244659e+000
1.145417e+003,6.789520e+000
1.146381e+003,1.029207e+001
1.147345e+003,1.856970e+001
1.148309e+003,2.487770e+001
1.149274e+003,2.657721e+001
1.150238e+003,2.719469e+001
1.151202e+003,2.773756e+001
1.152166e+003,2.883398e+001
1.153130e+003,3.144077e+001
1.154095e+003,3.575934e+001
1.155059e+003,3.997357e+001
1.156023e+003,4.155345e+001
1.156987e+003,4.073398e+001
1.157952e+003,4.016634e+001
1.158916e+003,4.031706e+001
1.159880e+003,3.920912e+001
1.160844e+003,3.447842e+001
1.161809e+003,2.785558e+001
1.162773e+003,2.381610e+001
1.163737e+003,2.310526e+001
1.164701e+003,2.173357e+001
1.165666e+003,1.800723e+001
1.166630e+003,1.427043e+001
1.167594e+003,1.107794e+001
1.168558e+003,8.509964e+000
1.169522e+003,6.445374e+000
1.170487e+003,4.922104e+000
1.171451e+003,4.427124e+000
1.172415e+003,5.654999e+000
1.173379e+003,8.143402e+000
1.174344e+003,9.695602e+000
1.175308e+003,1.043437e+001
1.176272e+003,1.027623e+001
1.177236e+003,8.643753e+000
1.178201e+003,6.583115e+000
1.179165e+003,5.380783e+000
1.180129e+003,4.974747e+000
1.181093e+003,4.609146e+000
1.182057e+003,4.392853e+000
1.183022e+003,3.891205e+000
1.183986e+003,2.709534e+000
1.184950e+003,1.384079e+000
1.185914e+003,2.095947e-001
1.186879e+003,-5.700073e-001
1.187843e+003,-5.130157e-001
1.188807e+003,7.368927e-001
1.189771e+003,2.688507e+000
1.190736e+003,4.109619e+000
1.191700e+003,5.019440e+000
1.192664e+003,4.742203e+000
1.193628e+003,2.433594e+000
1.194593e+003,6.341553e-002
1.195557e+003,-1.036148e+000
1.196521e+003,-1.101532e+000
1.197485e+003,-7.954407e-001
1.198449e+003,1.405334e-002
1.199414e+003,5.213928e-001
1.200378e+003,4.520264e-001
1.201342e+003,-9.764099e-002
1.202306e+003,-1.469681e+000
1.203271e+003,-3.284744e+000
1.204235e+003,-4.967117e+000
1.205199e+003,-6.144791e+000
1.206163e+003,-6.535767e+000
1.207128e+003,-5.553146e+000
1.208092e+003,-3.074493e+000
1.209056e+003,-2.080536e+000
1.210020e+003,-3.157776e+000
1.210984e+003,-4.229858e+000
1.211949e+003,-4.223022e+000
1.212913e+003,-4.237000e+000
1.213877e+003,-6.275803e+000
1.214841e+003,-1.030820e+001
1.215806e+003,-1.256999e+001
1.216770e+003,-1.047543e+001
1.217734e+003,-8.072281e+000
1.218698e+003,-8.515610e+000
1.219663e+003,-1.018280e+001
1.220627e+003,-1.113370e+001
1.221591e+003,-1.099304e+001
1.222555e+003,-1.046350e+001
1.223520e+003,-1.016341e+001
1.224484e+003,-1.005565e+001
1.225448e+003,-1.012029e+001
1.226412e+003,-1.018217e+001
1.227376e+003,-1.097260e+001
1.228341e+003,-1.373457e+001
1.229305e+003,-1.587207e+001
1.230269e+003,-1.549513e+001
1.231233e+003,-1.363463e+001
1.232198e+003,-1.243002e+001
1.233162e+003,-1.241139e+001
1.234126e+003,-1.248068e+001
1.235090e+003,-1.161899e+001
1.236055e+003,-1.084491e+001
1.237019e+003,-1.162714e+001
1.237983e+003,-1.337140e+001
1.238947e+003,-1.442441e+001
1.239911e+003,-1.405511e+001
1.240876e+003,-1.271648e+001
1.241840e+003,-1.086595e+001
1.242804e+003,-8.360291e+000
1.243768e+003,-7.822067e+000
1.244733e+003,-1.149417e+001
1.245697e+003,-1.423425e+001
1.246661e+003,-1.556950e+001
1.247625e+003,-1.610631e+001
1.248590e+003,-1.597957e+001
1.249554e+003,-1.538417e+001
1.250518e+003,-1.477959e+001
1.251482e+003,-1.442360e+001
1.252447e+003,-1.406708e+001
1.253411e+003,-1.312808e+001
1.254375e+003,-1.199442e+001
1.255339e+003,-1.170879e+001
1.256303e+003,-1.223239e+001
1.257268e+003,-1.252908e+001
1.258232e+003,-1.199283e+001
1.259196e+003,-1.111211e+001
1.260160e+003,-1.089958e+001
1.261125e+003,-1.151996e+001
1.262089e+003,-1.129506e+001
1.263053e+003,-8.808823e+000
1.264017e+003,-7.210251e+000
1.264982e+003,-8.038712e+000
1.265946e+003,-9.415024e+000
1.266910e+003,-9.325592e+000
1.267874e+003,-7.932587e+000
1.268839e+003,-7.071487e+000
1.269803e+003,-7.971329e+000
1.270767e+003,-9.443802e+000
1.271731e+003,-9.023544e+000
1.272695e+003,-6.734650e+000
1.273660e+003,-5.241745e+000
1.274624e+003,-4.777267e+000
1.275588e+003,-5.029541e+000
1.276552e+003,-6.141098e+000
1.277517e+003,-7.591248e+000
1.278481e+003,-8.474213e+000
1.279445e+003,-8.733231e+000
1.280409e+003,-8.972702e+000
1.281374e+003,-9.475769e+000
1.282338e+003,-9.826141e+000
1.283302e+003,-9.822861e+000
1.284266e+003,-9.582977e+000
1.285230e+003,-8.947266e+000
1.286195e+003,-8.163254e+000
1.287159e+003,-8.126846e+000
1.288123e+003,-9.549835e+000
1.289087e+003,-1.168362e+001
1.290052e+003,-1.233719e+001
1.291016e+003,-1.087468e+001
1.291980e+003,-1.046994e+001
1.292944e+003,-1.225513e+001
1.293909e+003,-1.368329e+001
1.294873e+003,-1.352985e+001
1.295837e+003,-1.247495e+001
1.296801e+003,-1.115465e+001
1.297766e+003,-9.792999e+000
1.298730e+003,-9.483383e+000
1.299694e+003,-1.146323e+001
1.300658e+003,-1.360057e+001
1.301622e+003,-1.312056e+001
1.302587e+003,-1.131470e+001
1.303551e+003,-1.027104e+001
1.304515e+003,-1.028876e+001
1.305479e+003,-1.027713e+001
1.306444e+003,-9.324753e+000
1.307408e+003,-7.867172e+000
1.308372e+003,-7.287766e+000
1.309336e+003,-7.810837e+000
1.310301e+003,-8.567047e+000
1.311265e+003,-9.461731e+000
1.312229e+003,-1.054637e+001
1.313193e+003,-1.262332e+001
1.314157e+003,-1.440350e+001
1.315122e+003,-1.422192e+001
1.316086e+003,-1.225383e+001
1.317050e+003,-1.003827e+001
1.318014e+003,-8.471695e+000
1.318979e+003,-7.818344e+000
1.319943e+003,-9.016403e+000
1.320907e+003,-1.175192e+001
1.321871e+003,-1.337764e+001
1.322836e+003,-1.371657e+001
1.323800e+003,-1.361673e+001
1.324764e+003,-1.347281e+001
1.325728e+003,-1.316489e+001
1.326693e+003,-1.234261e+001
1.327657e+003,-1.102660e+001
1.328621e+003,-1.036424e+001
1.329585e+003,-1.117796e+001
1.330549e+003,-1.132918e+001
1.331514e+003,-8.758972e+000
1.332478e+003,-6.155182e+000
1.333442e+003,-6.621017e+000
1.334406e+003,-9.525818e+000
1.335371e+003,-1.175011e+001
1.336335e+003,-1.142719e+001
1.337299e+003,-9.931458e+000
1.338263e+003,-9.974304e+000
1.339228e+003,-1.186073e+001
1.340192e+003,-1.235223e+001
1.341156e+003,-1.070084e+001
1.342120e+003,-8.877014e+000
1.343084e+003,-6.226990e+000
1.344049e+003,-4.471252e+000
1.345013e+003,-5.911301e+000
1.345977e+003,-9.333191e+000
1.346941e+003,-1.084792e+001
1.347906e+003,-8.969040e+000
1.348870e+003,-6.718643e+000
1.349834e+003,-7.115707e+000
1.350798e+003,-8.857269e+000
1.351763e+003,-9.135544e+000
1.352727e+003,-8.195175e+000
1.353691e+003,-7.758179e+000
1.354655e+003,-8.559967e+000
1.355620e+003,-9.625397e+000
1.356584e+003,-9.694321e+000
1.357548e+003,-8.881210e+000
1.358512e+003,-8.515747e+000
1.359476e+003,-9.009857e+000
1.360441e+003,-9.260239e+000
1.361405e+003,-8.287552e+000
1.362369e+003,-7.676178e+000
1.363333e+003,-8.992859e+000
1.364298e+003,-1.077965e+001
1.365262e+003,-1.062943e+001
1.366226e+003,-8.282135e+000
1.367190e+003,-5.745544e+000
1.368155e+003,-4.791611e+000
1.369119e+003,-5.223206e+000
1.370083e+003,-6.537140e+000
1.371047e+003,-9.198837e+000
1.372011e+003,-1.043777e+001
1.372976e+003,-9.456604e+000
1.373940e+003,-8.360962e+000
1.374904e+003,-7.884781e+000
1.375868e+003,-7.666656e+000
1.376833e+003,-7.276031e+000
1.377797e+003,-6.712662e+000
1.378761e+003,-6.266373e+000
1.379725e+003,-6.125229e+000
1.380690e+003,-5.836914e+000
1.381654e+003,-4.218338e+000
1.382618e+003,-2.500778e+000
1.383582e+003,-2.960648e+000
1.384547e+003,-5.337997e+000
1.385511e+003,-6.924438e+000
1.386475e+003,-6.279587e+000
1.387439e+003,-4.636642e+000
1.388403e+003,-3.742203e+000
1.389368e+003,-3.603958e+000
1.390332e+003,-3.662521e+000
1.391296e+003,-3.718018e+000
1.392260e+003,-4.267838e+000
1.393225e+003,-6.340424e+000
1.394189e+003,-7.953217e+000
1.395153e+003,-7.694595e+000
1.396117e+003,-6.339432e+000
1.397082e+003,-4.867874e+000
1.398046e+003,-3.767349e+000
1.399010e+003,-3.502869e+000
1.399974e+003,-4.595139e+000
1.400938e+003,-6.562561e+000
1.401903e+003,-7.618774e+000
1.402867e+003,-7.346222e+000
1.403831e+003,-6.820679e+000
1.404795e+003,-6.676559e+000
1.405760e+003,-5.658829e+000
1.406724e+003,-1.874603e+000
1.407688e+003,1.720261e+000
1.408652e+003,1.281204e+000
1.409617e+003,-2.686279e+000
1.410581e+003,-6.598724e+000
1.411545e+003,-9.277618e+000
1.412509e+003,-1.036998e+001
1.413474e+003,-8.658554e+000
1.414438e+003,-5.735107e+000
1.415402e+003,-3.779236e+000
1.416366e+003,-2.828094e+000
1.417330e+003,-3.257294e+000
1.418295e+003,-5.583282e+000
1.419259e+003,-7.938629e+000
1.420223e+003,-7.813354e+000
1.421187e+003,-5.745605e+000
1.422152e+003,-5.000214e+000
1.423116e+003,-6.161057e+000
1.424080e+003,-6.630295e+000
1.425044e+003,-5.065796e+000
1.426009e+003,-3.511444e+000
1.426973e+003,-2.653351e+000
1.427937e+003,-2.374756e+000
1.428901e+003,-2.485245e+000
1.429865e+003,-2.902374e+000
1.430830e+003,-3.765915e+000
1.431794e+003,-5.184265e+000
1.432758e+003,-6.711319e+000
1.433722e+003,-7.353897e+000
1.434687e+003,-6.956619e+000
1.435651e+003,-6.199631e+000
1.436615e+003,-5.074020e+000
1.437579e+003,-4.144882e+000
1.438544e+003,-3.250290e+000
1.439508e+003,-2.712875e+000
1.440472e+003,-2.822769e+000
1.441436e+003,-3.315216e+000
1.442401e+003,-3.973770e+000
1.443365e+003,-4.668259e+000
1.444329e+003,-4.592819e+000
1.445293e+003,-2.830673e+000
1.446257e+003,-7.623749e-001
1.447222e+003,-1.599472e+000
1.448186e+003,-4.679947e+000
1.449150e+003,-6.194412e+000
1.450114e+003,-5.552063e+000
1.451079e+003,-4.577988e+000
1.452043e+003,-4.239975e+000
1.453007e+003,-3.946930e+000
1.453971e+003,-2.494034e+000
1.454936e+003,-2.180328e-001
1.455900e+003,3.041687e-001
1.456864e+003,-1.996780e+000
1.457828e+003,-4.031403e+000
1.458792e+003,-3.574860e+000
1.459757e+003,-2.624954e+000
1.460721e+003,-3.325943e+000
1.461685e+003,-4.652039e+000
1.462649e+003,-3.849854e+000
1.463614e+003,-4.467926e-001
1.464578e+003,2.340256e+000
1.465542e+003,1.423248e+000
1.466506e+003,-1.818100e+000
1.467471e+003,-3.131363e+000
1.468435e+003,-1.955292e+000
1.469399e+003,-1.230515e+000
1.470363e+003,-1.620270e+000
1.471328e+003,-1.945496e+000
1.472292e+003,-2.229294e+000
1.473256e+003,-2.260376e+000
1.474220e+003,-1.331680e+000
1.475184e+003,-3.750610e-002
1.476149e+003,1.971283e-001
1.477113e+003,-9.509125e-001
1.478077e+003,-2.077179e+000
1.479041e+003,-1.732971e+000
1.480006e+003,-3.965759e-001
1.480970e+003,1.725006e-001
1.481934e+003,-3.086853e-001
1.482898e+003,-7.827454e-001
1.483863e+003,-1.746338e+000
1.484827e+003,-2.048309e+000
1.485791e+003,-5.393372e-001
1.486755e+003,1.163559e+000
1.487719e+003,1.447250e+000
1.488684e+003,5.738983e-001
1.489648e+003,-4.313354e-001
1.490612e+003,-1.173737e+000
1.491576e+003,-1.486084e+000
1.492541e+003,-1.309967e+000
1.493505e+003,-5.999908e-001
1.494469e+003,1.280151e+000
1.495433e+003,3.926315e+000
1.496398e+003,4.959717e+000
1.497362e+003,3.538193e+000
1.498326e+003,2.742371e+000
1.499290e+003,4.653442e+000
1.500255e+003,7.710861e+000
1.501219e+003,9.951553e+000
1.502183e+003,1.137387e+001
1.503147e+003,1.235486e+001
1.504111e+003,1.281290e+001
1.505076e+003,1.369601e+001
1.506040e+003,1.586978e+001
1.507004e+003,1.842281e+001
1.507968e+003,2.054460e+001
1.508933e+003,2.230563e+001
1.509897e+003,2.369676e+001
1.510861e+003,2.488402e+001
1.511825e+003,2.669925e+001
1.512790e+003,2.965968e+001
1.513754e+003,3.340559e+001
1.514718e+003,3.760179e+001
1.515682e+003,4.217598e+001
1.516646e+003,4.600937e+001
1.517611e+003,4.894171e+001
1.518575e+003,5.155740e+001
1.519539e+003,5.466235e+001
1.520503e+003,5.699059e+001
1.521468e+003,5.763855e+001
1.522432e+003,5.710912e+001
1.523396e+003,5.586143e+001
1.524360e+003,5.421445e+001
1.525325e+003,5.277350e+001
1.526289e+003,5.196777e+001
1.527253e+003,5.119002e+001
1.528217e+003,4.930255e+001
1.529182e+003,4.635234e+001
1.530146e+003,4.306133e+001
1.531110e+003,3.918231e+001
1.532074e+003,3.528873e+001
1.533039e+003,3.084171e+001
1.534003e+003,2.674174e+001
1.534967e+003,2.362975e+001
1.535931e+003,2.119200e+001
1.536896e+003,1.939774e+001
1.537860e+003,1.784993e+001
1.538824e+003,1.539384e+001
1.539788e+003,1.149831e+001
1.540752e+003,7.564499e+000
1.541717e+003,5.475037e+000
1.542681e+003,5.045349e+000
1.543645e+003,4.775711e+000
1.544609e+003,4.709259e+000
1.545573e+003,4.951859e+000
1.546538e+003,5.954086e+000
1.547502e+003,6.428589e+000
1.548466e+003,5.248520e+000
1.549430e+003,4.066315e+000
1.550395e+003,4.991653e+000
1.551359e+003,7.282440e+000
1.552323e+003,8.414993e+000
1.553287e+003,7.564148e+000
1.554252e+003,6.195969e+000
1.555216e+003,5.522598e+000
1.556180e+003,5.334000e+000
1.557144e+003,5.145325e+000
1.558109e+003,4.992752e+000
1.559073e+003,5.404678e+000
1.560037e+003,7.341553e+000
1.561001e+003,7.535034e+000
1.561966e+003,2.949265e+000
1.562930e+003,-1.763809e+000
1.563894e+003,-2.041931e+000
1.564858e+003,8.032532e-001
1.565823e+003,3.699677e+000
1.566787e+003,5.895462e+000
1.567751e+003,6.543594e+000
1.568715e+003,4.758469e+000
1.569679e+003,2.559479e+000
1.570644e+003,2.711075e+000
1.571608e+003,4.291550e+000
1.572572e+003,4.627502e+000
1.573536e+003,3.671204e+000
1.574500e+003,3.029160e+000
1.575465e+003,3.389862e+000
1.576429e+003,3.883560e+000
1.577393e+003,3.297058e+000
1.578357e+003,2.522812e+000
1.579322e+003,3.818512e+000
1.580286e+003,7.136536e+000
1.581250e+003,9.593582e+000
1.582214e+003,1.021185e+001
1.583179e+003,1.019688e+001
1.584143e+003,1.010265e+001
1.585107e+003,1.004964e+001
1.586071e+003,1.060457e+001
1.587036e+003,1.149008e+001
1.588000e+003,1.139737e+001
1.588964e+003,9.924454e+000
1.589928e+003,8.401367e+000
1.590893e+003,7.543259e+000
1.591857e+003,7.319077e+000
1.592821e+003,7.934967e+000
1.593785e+003,9.231918e+000
1.594750e+003,1.016098e+001
1.595714e+003,1.050374e+001
1.596678e+003,1.085861e+001
1.597642e+003,1.175008e+001
1.598606e+003,1.231012e+001
1.599571e+003,1.133846e+001
1.600535e+003,1.000188e+001
1.601499e+003,9.837738e+000
1.602463e+003,1.079185e+001
1.603427e+003,1.212978e+001
1.604392e+003,1.368578e+001
1.605356e+003,1.456145e+001
1.606320e+003,1.302849e+001
1.607284e+003,1.038611e+001
1.608249e+003,1.085652e+001
1.609213e+003,1.458208e+001
1.610177e+003,1.688226e+001
1.611141e+003,1.660141e+001
1.612106e+003,1.583237e+001
1.613070e+003,1.510028e+001
1.614034e+003,1.467119e+001
1.614998e+003,1.497827e+001
1.615963e+003,1.564108e+001
1.616927e+003,1.588567e+001
1.617891e+003,1.566293e+001
1.618855e+003,1.564992e+001
1.619820e+003,1.617747e+001
1.620784e+003,1.716798e+001
1.621748e+003,1.925357e+001
1.622712e+003,2.210199e+001
1.623677e+003,2.237596e+001
1.624641e+003,1.942029e+001
1.625605e+003,1.778438e+001
1.626569e+003,1.916205e+001
1.627533e+003,2.032579e+001
1.628498e+003,1.968353e+001
1.629462e+003,1.840593e+001
1.630426e+003,1.690689e+001
1.631390e+003,1.567084e+001
1.632354e+003,1.586948e+001
1.633319e+003,1.757062e+001
1.634283e+003,1.888438e+001
1.635247e+003,1.829356e+001
1.636211e+003,1.684061e+001
1.637176e+003,1.653593e+001
1.638140e+003,1.731679e+001
1.639104e+003,1.758458e+001
1.640068e+003,1.714806e+001
1.641033e+003,1.656523e+001
1.641997e+003,1.538161e+001
1.642961e+003,1.502928e+001
1.643925e+003,1.730263e+001
1.644890e+003,1.978149e+001
1.645854e+003,1.951024e+001
1.646818e+003,1.743358e+001
1.647782e+003,1.677496e+001
1.648747e+003,1.839482e+001
1.649711e+003,1.960481e+001
1.650675e+003,1.798109e+001
1.651639e+003,1.515172e+001
1.652604e+003,1.437668e+001
1.653568e+003,1.554663e+001
1.654532e+003,1.723036e+001
1.655496e+003,1.987579e+001
1.656460e+003,2.112534e+001
1.657425e+003,1.916499e+001
1.658389e+003,1.725429e+001
1.659353e+003,1.784235e+001
1.660317e+003,1.885225e+001
1.661281e+003,1.762254e+001
1.662246e+003,1.479912e+001
1.663210e+003,1.297366e+001
1.664174e+003,1.300069e+001
1.665138e+003,1.336938e+001
1.666103e+003,1.241164e+001
1.667067e+003,1.148433e+001
1.668031e+003,1.468332e+001
1.668995e+003,2.145578e+001
1.669960e+003,2.269276e+001
1.670924e+003,1.612643e+001
1.671888e+003,1.102788e+001
1.672852e+003,1.060498e+001
1.673817e+003,1.171820e+001
1.674781e+003,1.310918e+001
1.675745e+003,1.432294e+001
1.676709e+003,1.489090e+001
1.677674e+003,1.481903e+001
1.678638e+003,1.419832e+001
1.679602e+003,1.306699e+001
1.680566e+003,1.170526e+001
1.681531e+003,1.001923e+001
1.682495e+003,8.752762e+000
1.683459e+003,9.763351e+000
1.684423e+003,1.242999e+001
1.685387e+003,1.262767e+001
1.686352e+003,9.601318e+000
1.687316e+003,7.713669e+000
1.688280e+003,9.111725e+000
1.689244e+003,1.051288e+001
1.690208e+003,8.971069e+000
1.691173e+003,6.459259e+000
1.692137e+003,4.755524e+000
1.693101e+003,4.044510e+000
1.694065e+003,4.714859e+000
1.695030e+003,6.871323e+000
1.695994e+003,8.485657e+000
1.696958e+003,8.104111e+000
1.697922e+003,6.874710e+000
1.698887e+003,6.057373e+000
1.699851e+003,5.612701e+000
1.700815e+003,5.506851e+000
1.701779e+003,5.678574e+000
1.702744e+003,5.307129e+000
1.703708e+003,4.060699e+000
1.704672e+003,2.844894e+000
1.705636e+003,1.936371e+000
1.706601e+003,1.618805e+000
1.707565e+003,3.160141e+000
1.708529e+003,5.754593e+000
1.709493e+003,6.327194e+000
1.710458e+003,4.258270e+000
1.711422e+003,2.632416e+000
1.712386e+003,2.921539e+000
1.713350e+003,3.955246e+000
1.714314e+003,5.281738e+000
1.715279e+003,6.335434e+000
1.716243e+003,6.035858e+000
1.717207e+003,4.585999e+000
1.718171e+003,3.147797e+000
1.719135e+003,2.061798e+000
1.720100e+003,1.336731e+000
1.721064e+003,9.261627e-001
1.722028e+003,9.805603e-001
1.722992e+003,2.050873e+000
1.723957e+003,3.903931e+000
1.724921e+003,4.699738e+000
1.725885e+003,4.183472e+000
1.726849e+003,3.570038e+000
1.727814e+003,3.043869e+000
1.728778e+003,2.729462e+000
1.729742e+003,2.600449e+000
1.730706e+003,2.723511e+000
1.731671e+003,3.206924e+000
1.732635e+003,3.837891e+000
1.733599e+003,4.432755e+000
1.734563e+003,4.970642e+000
1.735528e+003,5.448181e+000
1.736492e+003,5.826004e+000
1.737456e+003,5.335281e+000
1.738420e+003,2.828125e+000
1.739385e+003,-7.828522e-001
1.740349e+003,-1.801880e+000
1.741313e+003,5.091858e-001
1.742277e+003,1.948364e+000
1.743241e+003,2.416748e+000
1.744206e+003,2.369202e+000
1.745170e+003,1.650467e+000
1.746134e+003,5.855865e-001
1.747098e+003,-1.381744e+000
1.748063e+003,-3.070068e+000
1.749027e+003,-2.741272e+000
1.749991e+003,-9.786072e-001
1.750955e+003,3.522186e-001
1.751919e+003,5.643768e-001
1.752884e+003,1.980438e-001
1.753848e+003,-3.112030e-001
1.754812e+003,-8.314362e-001
1.755776e+003,-1.009644e+000
1.756741e+003,-8.014984e-001
1.757705e+003,-9.133301e-001
1.758669e+003,-1.829224e+000
1.759633e+003,-1.786072e+000
1.760598e+003,4.113617e-001
1.761562e+003,1.996414e+000
1.762526e+003,2.097427e+000
1.763490e+003,1.523346e+000
1.764455e+003,3.700104e-001
1.765419e+003,-8.049164e-001
1.766383e+003,-1.369431e+000
1.767347e+003,-1.242279e+000
1.768312e+003,-3.455353e-001
1.769276e+003,1.368011e+000
1.770240e+003,2.612579e+000
1.771204e+003,1.850128e+000
1.772168e+003,9.159851e-002
1.773133e+003,-4.679413e-001
1.774097e+003,5.447388e-002
1.775061e+003,5.932922e-001
1.776025e+003,1.024200e+000
1.776990e+003,1.024200e+000
1.777954e+003,2.670746e-001
1.778918e+003,-2.048492e-001
1.779882e+003,6.198730e-001
1.780846e+003,1.812180e+000
1.781811e+003,2.460815e+000
1.782775e+003,2.494888e+000
1.783739e+003,1.310059e+000
1.784703e+003,-1.331802e+000
1.785668e+003,-3.101974e+000
1.786632e+003,-2.686981e+000
1.787596e+003,-1.761444e+000
1.788560e+003,-1.305786e+000
1.789525e+003,-1.065155e+000
1.790489e+003,-1.029739e+000
1.791453e+003,-9.822540e-001
1.792417e+003,1.903076e-001
1.793382e+003,2.472137e+000
1.794346e+003,3.236877e+000
1.795310e+003,9.367218e-001
1.796274e+003,-1.448318e+000
1.797239e+003,-1.936035e-001
1.798203e+003,3.241531e+000
1.799167e+003,3.754593e+000
1.800131e+003,5.350037e-001
1.801095e+003,-1.157440e+000
1.802060e+003,-3.801727e-001
1.803024e+003,5.410309e-001
1.803988e+003,1.539032e+000
1.804952e+003,2.348862e+000
1.805917e+003,2.867874e+000
1.806881e+003,3.115936e+000
1.807845e+003,3.414154e+000
1.808809e+003,3.411301e+000
1.809773e+003,1.815094e+000
1.810738e+003,-1.102921e+000
1.811702e+003,-2.664093e+000
1.812666e+003,-1.245285e+000
1.813630e+003,1.072311e+000
1.814595e+003,1.429016e+000
1.815559e+003,4.044189e-001
1.816523e+003,6.773529e-001
1.817487e+003,2.493683e+000
1.818452e+003,2.875671e+000
1.819416e+003,1.100830e+000
1.820380e+003,-2.289886e-001
1.821344e+003,-5.392151e-001
1.822309e+003,-1.990662e-001
1.823273e+003,1.321823e+000
1.824237e+003,2.871979e+000
1.825201e+003,3.103317e+000
1.826166e+003,2.338989e+000
1.827130e+003,1.418106e+000
1.828094e+003,5.000763e-001
1.829058e+003,2.530670e-001
1.830022e+003,1.420319e+000
1.830987e+003,2.562317e+000
1.831951e+003,2.253860e+000
1.832915e+003,1.369522e+000
1.833879e+003,1.162918e+000
1.834844e+003,1.489426e+000
1.835808e+003,1.855804e+000
1.836772e+003,2.124954e+000
1.837736e+003,1.774307e+000
1.838700e+003,5.009613e-001
1.839665e+003,-3.575592e-001
1.840629e+003,5.836792e-001
1.841593e+003,2.437408e+000
1.842557e+003,3.332458e+000
1.843522e+003,3.271622e+000
1.844486e+003,2.690689e+000
1.845450e+003,1.200623e+000
1.846414e+003,1.161194e-001
1.847379e+003,-8.694916e-001
1.848343e+003,-1.248917e+000
1.849307e+003,-3.504486e-001
1.850271e+003,7.359924e-001
1.851236e+003,1.105942e+000
1.852200e+003,1.315369e+000
1.853164e+003,2.589844e+000
1.854128e+003,4.386597e+000
1.855093e+003,4.574234e+000
1.856057e+003,2.613770e+000
1.857021e+003,7.675476e-001
1.857985e+003,9.106750e-001
1.858949e+003,2.044235e+000
1.859914e+003,2.407318e+000
1.860878e+003,2.247711e+000
1.861842e+003,3.196777e+000
1.862806e+003,5.288315e+000
1.863771e+003,5.759979e+000
1.864735e+003,3.660461e+000
1.865699e+003,2.122543e+000
1.866663e+003,2.872818e+000
1.867627e+003,4.014526e+000
1.868592e+003,3.824921e+000
1.869556e+003,2.814575e+000
1.870520e+003,1.714447e+000
1.871484e+003,6.838379e-001
1.872449e+003,1.151093e+000
1.873413e+003,4.135239e+000
1.874377e+003,6.008713e+000
1.875341e+003,4.409851e+000
1.876306e+003,2.833115e+000
1.877270e+003,3.648438e+000
1.878234e+003,4.859390e+000
1.879198e+003,4.042511e+000
1.880163e+003,2.319290e+000
1.881127e+003,2.135635e+000
1.882091e+003,3.530304e+000
1.883055e+003,4.973282e+000
1.884020e+003,5.708786e+000
1.884984e+003,5.468002e+000
1.885948e+003,3.954422e+000
1.886912e+003,2.130127e+000
1.887876e+003,2.061127e+000
1.888841e+003,3.563980e+000
1.889805e+003,4.191696e+000
1.890769e+003,3.701767e+000
1.891733e+003,3.764252e+000
1.892698e+003,5.099777e+000
1.893662e+003,5.411743e+000
1.894626e+003,2.802429e+000
1.895590e+003,4.772949e-001
1.896554e+003,1.084869e+000
1.897519e+003,2.927689e+000
1.898483e+003,4.051285e+000
1.899447e+003,4.529358e+000
1.900411e+003,5.252762e+000
1.901376e+003,6.430283e+000
1.902340e+003,7.068695e+000
1.903304e+003,6.893402e+000
1.904268e+003,5.911911e+000
1.905233e+003,3.079132e+000
1.906197e+003,4.834137e-001
1.907161e+003,6.510162e-001
1.908125e+003,2.481049e+000
1.909090e+003,4.040253e+000
1.910054e+003,4.943939e+000
1.911018e+003,5.276047e+000
1.911982e+003,5.186630e+000
1.912947e+003,5.163254e+000
1.913911e+003,5.545090e+000
1.914875e+003,6.089798e+000
1.915839e+003,6.434799e+000
1.916803e+003,6.481308e+000
1.917768e+003,5.877151e+000
1.918732e+003,4.480484e+000
1.919696e+003,3.689758e+000
1.920660e+003,3.712128e+000
1.921625e+003,3.921799e+000
1.922589e+003,4.089844e+000
1.923553e+003,4.480362e+000
1.924517e+003,5.409012e+000
1.925481e+003,6.482574e+000
1.926446e+003,7.716400e+000
1.927410e+003,8.718597e+000
1.928374e+003,8.464050e+000
1.929338e+003,6.982712e+000
1.930303e+003,5.984634e+000
1.931267e+003,6.171555e+000
1.932231e+003,6.311935e+000
1.933195e+003,5.428101e+000
1.934160e+003,4.654892e+000
1.935124e+003,4.973785e+000
1.936088e+003,5.705032e+000
1.937052e+003,6.322479e+000
1.938017e+003,6.640991e+000
1.938981e+003,6.063095e+000
1.939945e+003,4.838684e+000
1.940909e+003,4.312897e+000
1.941874e+003,5.067108e+000
1.942838e+003,6.583221e+000
1.943802e+003,8.531418e+000
1.944766e+003,1.019907e+001
1.945730e+003,9.740952e+000
1.946695e+003,7.494385e+000
1.947659e+003,6.776794e+000
1.948623e+003,7.724930e+000
1.949587e+003,8.487152e+000
1.950552e+003,9.003433e+000
1.951516e+003,8.890121e+000
1.952480e+003,7.698929e+000
1.953444e+003,6.516281e+000
1.954408e+003,6.033722e+000
1.955373e+003,5.952042e+000
1.956337e+003,5.812439e+000
1.957301e+003,5.858215e+000
1.958265e+003,6.998215e+000
1.959230e+003,9.511520e+000
1.960194e+003,1.092140e+001
1.961158e+003,1.032544e+001
1.962122e+003,9.230942e+000
1.963087e+003,7.076462e+000
1.964051e+003,5.705002e+000
1.965015e+003,6.850983e+000
1.965979e+003,8.814636e+000
1.966944e+003,1.026897e+001
1.967908e+003,1.085179e+001
1.968872e+003,1.011652e+001
1.969836e+003,8.384033e+000
1.970801e+003,6.763824e+000
1.971765e+003,5.762482e+000
1.972729e+003,5.301239e+000
1.973693e+003,5.276520e+000
1.974657e+003,5.819168e+000
1.975622e+003,7.542633e+000
1.976586e+003,9.796402e+000
1.977550e+003,1.070892e+001
1.978514e+003,1.053979e+001
1.979479e+003,1.110176e+001
1.980443e+003,1.254865e+001
1.981407e+003,1.284860e+001
1.982371e+003,1.121667e+001
1.983335e+003,9.420639e+000
1.984300e+003,8.751511e+000
1.985264e+003,8.502731e+000
1.986228e+003,7.494156e+000
1.987192e+003,6.182419e+000
1.988157e+003,7.154221e+000
1.989121e+003,1.131425e+001
1.990085e+003,1.310950e+001
1.991049e+003,1.088873e+001
1.992014e+003,9.731033e+000
1.992978e+003,1.105156e+001
1.993942e+003,1.231653e+001
1.994906e+003,1.279787e+001
1.995871e+003,1.279312e+001
1.996835e+003,1.240639e+001
1.997799e+003,1.178384e+001
1.998763e+003,1.095340e+001
1.999728e+003,9.992706e+000
