5.003444e+002,1.833368e+002
5.013087e+002,1.821300e+002
5.022729e+002,1.778154e+002
5.032371e+002,1.717632e+002
5.042014e+002,1.663373e+002
5.051656e+002,1.616182e+002
5.061298e+002,1.570706e+002
5.070941e+002,1.518199e+002
5.080583e+002,1.447646e+002
5.090225e+002,1.417823e+002
5.099868e+002,1.449921e+002
5.109510e+002,1.485753e+002
5.119152e+002,1.497626e+002
5.128795e+002,1.483765e+002
5.138437e+002,1.463285e+002
5.148079e+002,1.434816e+002
5.157722e+002,1.411721e+002
5.167364e+002,1.404064e+002
5.177006e+002,1.406753e+002
5.186649e+002,1.400023e+002
5.196291e+002,1.358450e+002
5.205933e+002,1.307770e+002
5.215576e+002,1.260135e+002
5.225218e+002,1.215493e+002
5.234860e+002,1.180017e+002
5.244503e+002,1.172756e+002
5.254145e+002,1.214592e+002
5.263787e+002,1.237236e+002
5.273430e+002,1.233190e+002
5.283072e+002,1.215421e+002
5.292714e+002,1.197440e+002
5.302357e+002,1.167136e+002
5.311999e+002,1.142772e+002
5.321641e+002,1.146398e+002
5.331284e+002,1.156144e+002
5.340926e+002,1.150704e+002
5.350568e+002,1.118177e+002
5.360211e+002,1.073657e+002
5.369853e+002,1.035079e+002
5.379495e+002,1.003574e+002
5.389138e+002,9.789221e+001
5.398780e+002,9.593481e+001
5.408422e+002,9.420898e+001
5.418065e+002,9.206921e+001
5.427707e+002,8.963635e+001
5.437349e+002,8.814026e+001
5.446992e+002,8.813513e+001
5.456634e+002,8.895093e+001
5.466276e+002,8.843823e+001
5.475919e+002,8.507910e+001
5.485561e+002,8.270105e+001
5.495203e+002,8.171741e+001
5.504846e+002,8.117676e+001
5.514488e+002,7.998523e+001
5.524130e+002,7.805139e+001
5.533773e+002,7.577148e+001
5.543415e+002,7.285486e+001
5.553057e+002,7.004443e+001
5.562700e+002,6.806494e+001
5.572342e+002,6.726526e+001
5.581984e+002,6.700452e+001
5.591627e+002,6.619409e+001
5.601269e+002,6.541541e+001
5.610911e+002,6.529590e+001
5.620554e+002,6.606311e+001
5.630196e+002,6.720532e+001
5.639838e+002,6.621082e+001
5.649481e+002,6.177698e+001
5.659123e+002,5.722607e+001
5.668765e+002,5.284180e+001
5.678408e+002,4.952148e+001
5.688050e+002,4.906665e+001
5.697692e+002,5.378101e+001
5.707335e+002,5.694446e+001
5.716977e+002,5.673877e+001
5.726619e+002,5.431848e+001
5.736262e+002,5.114246e+001
5.745904e+002,4.812500e+001
5.755546e+002,4.554822e+001
5.765189e+002,4.287622e+001
5.774831e+002,3.999683e+001
5.784473e+002,3.758655e+001
5.794116e+002,3.637744e+001
5.803758e+002,3.667188e+001
5.813400e+002,3.719336e+001
5.823043e+002,3.747925e+001
5.832685e+002,3.675317e+001
5.842327e+002,3.500537e+001
5.851970e+002,3.278223e+001
5.861612e+002,3.098120e+001
5.871254e+002,2.708203e+001
5.880897e+002,2.595715e+001
5.890539e+002,3.089490e+001
5.900181e+002,3.844177e+001
5.909824e+002,4.317041e+001
5.919466e+002,4.154492e+001
5.929108e+002,3.669946e+001
5.938751e+002,3.152966e+001
5.948393e+002,2.651794e+001
5.958035e+002,2.238904e+001
5.967678e+002,1.974719e+001
5.977320e+002,1.884875e+001
5.986962e+002,2.045483e+001
5.996605e+002,2.383984e+001
6.006247e+002,2.689990e+001
6.015889e+002,2.902380e+001
6.025532e+002,3.026111e+001
6.035174e+002,3.042468e+001
6.044816e+002,2.790173e+001
6.054459e+002,2.623376e+001
6.064101e+002,2.674109e+001
6.073743e+002,2.825098e+001
6.083386e+002,2.863123e+001
6.093028e+002,2.656836e+001
6.102670e+002,2.388977e+001
6.112313e+002,2.158435e+001
6.121955e+002,1.968188e+001
6.131597e+002,1.811377e+001
6.141240e+002,1.682751e+001
6.150882e+002,1.589368e+001
6.160524e+002,1.655334e+001
6.170167e+002,1.879797e+001
6.179809e+002,2.050281e+001
6.189451e+002,2.023218e+001
6.199094e+002,1.798010e+001
6.208736e+002,1.595776e+001
6.218378e+002,1.408618e+001
6.228021e+002,1.400598e+001
6.237663e+002,1.776404e+001
6.247305e+002,2.313379e+001
6.256948e+002,2.616650e+001
6.266590e+002,2.407532e+001
6.276232e+002,2.073755e+001
6.285875e+002,1.912695e+001
6.295517e+002,1.852271e+001
6.305159e+002,1.787354e+001
6.314802e+002,1.646545e+001
6.324444e+002,1.459302e+001
6.334086e+002,1.520642e+001
6.343729e+002,1.748755e+001
6.353371e+002,1.619885e+001
6.363013e+002,8.360352e+000
6.372656e+002,-3.292358e+000
6.382298e+002,-8.325989e+000
6.391940e+002,1.721375e+000
6.401583e+002,7.221619e+000
6.411225e+002,6.565918e+000
6.420867e+002,3.247925e+000
6.430510e+002,8.035889e-001
6.440152e+002,-2.772827e-001
6.449794e+002,-1.375732e+000
6.459437e+002,-4.487549e+000
6.469079e+002,-7.075500e+000
6.478721e+002,-5.669922e+000
6.488364e+002,3.414307e-001
6.498006e+002,6.911926e+000
6.507648e+002,5.177734e+000
6.517291e+002,-1.912659e+000
6.526933e+002,-6.832153e+000
6.536575e+002,-8.191528e+000
6.546218e+002,-7.309265e+000
6.555860e+002,-6.636841e+000
6.565502e+002,-6.226013e+000
6.575145e+002,-6.203918e+000
6.584787e+002,-7.281982e+000
6.594429e+002,-8.057434e+000
6.604072e+002,-7.163208e+000
6.613714e+002,-4.214600e+000
6.623356e+002,-1.355469e+000
6.632999e+002,5.594482e-001
6.642641e+002,1.242676e+000
6.652283e+002,6.077271e-001
6.661926e+002,-9.088135e-001
6.671568e+002,-2.697510e+000
6.681210e+002,-4.599609e+000
6.690853e+002,-6.455566e+000
6.700495e+002,-7.358521e+000
6.710137e+002,-7.276855e+000
6.719780e+002,-6.349854e+000
6.729422e+002,-4.661987e+000
6.739064e+002,-2.072388e+000
6.748707e+002,-1.077454e+000
6.758349e+002,-3.612366e+000
6.767991e+002,-5.330017e+000
6.777634e+002,-2.690613e+000
6.787276e+002,3.851624e+000
6.796918e+002,8.259155e+000
6.806561e+002,5.062317e+000
6.816203e+002,1.641418e+000
6.825845e+002,8.936157e-001
6.835488e+002,1.955017e+000
6.845130e+002,3.087036e+000
6.854772e+002,3.097900e+000
6.864415e+002,3.012695e+000
6.874057e+002,4.674500e+000
6.883699e+002,6.805908e+000
6.893342e+002,7.305420e+000
6.902984e+002,5.008423e+000
6.912626e+002,7.068481e-001
6.922269e+002,-1.365723e+000
6.931911e+002,3.258423e+000
6.941553e+002,5.624023e+000
6.951196e+002,2.087524e+000
6.960838e+002,-4.129333e+000
6.970480e+002,-7.316833e+000
6.980123e+002,-5.040283e+000
6.989765e+002,-1.941772e+000
6.999407e+002,5.387573e-001
7.009050e+002,2.258057e+000
7.018692e+002,2.998169e+000
7.028334e+002,2.649414e+000
7.037977e+002,1.219666e+000
7.047619e+002,-1.908691e+000
7.057261e+002,-5.088440e+000
7.066904e+002,-5.040344e+000
7.076546e+002,-1.284180e+000
7.086188e+002,3.049744e+000
7.095831e+002,2.678284e+000
7.105473e+002,-5.534973e+000
7.115115e+002,-9.344910e+000
7.124758e+002,-6.340820e+000
7.134400e+002,-2.696106e+000
7.144042e+002,-2.293518e+000
7.153685e+002,-4.982300e+000
7.163327e+002,-6.253174e+000
7.172969e+002,-1.669800e+000
7.182612e+002,2.707703e+000
7.192254e+002,4.232483e+000
7.201896e+002,3.235352e+000
7.211539e+002,9.992065e-001
7.221181e+002,-1.497925e+000
7.230823e+002,-3.915588e+000
7.240466e+002,-5.296326e+000
7.250108e+002,-5.423584e+000
7.259750e+002,-5.284607e+000
7.269393e+002,-6.126404e+000
7.279035e+002,-8.202209e+000
7.288677e+002,-8.686646e+000
7.298320e+002,-3.151672e+000
7.307962e+002,8.042603e-001
7.317604e+002,1.316528e+000
7.327247e+002,6.791382e-001
7.336889e+002,2.269287e+000
7.346531e+002,7.350220e+000
7.356174e+002,9.267456e+000
7.365816e+002,3.368469e+000
7.375458e+002,-3.805054e+000
7.385101e+002,-7.500183e+000
7.394743e+002,-6.507568e+000
7.404385e+002,-3.100891e+000
7.414028e+002,-6.968994e-001
7.423670e+002,-7.769775e-002
7.433312e+002,1.333923e+000
7.442955e+002,4.827759e+000
7.452597e+002,7.905151e+000
7.462239e+002,6.311707e+000
7.471882e+002,-2.754089e+000
7.481524e+002,-5.087891e+000
7.491166e+002,3.423584e+000
7.500809e+002,1.100385e+001
7.510451e+002,1.351013e+001
7.520093e+002,1.143622e+001
7.529736e+002,7.686584e+000
7.539378e+002,2.969299e+000
7.549020e+002,-6.299438e-001
7.558663e+002,-2.762817e+000
7.568306e+002,-3.091614e+000
7.577948e+002,-4.971924e-001
7.587590e+002,5.229919e+000
7.597233e+002,1.172046e+001
7.606875e+002,1.189905e+001
7.616517e+002,7.074585e+000
7.626160e+002,4.926392e+000
7.635802e+002,8.831482e+000
7.645444e+002,1.521118e+001
7.655087e+002,1.590497e+001
7.664729e+002,6.527832e+000
7.674371e+002,5.913696e-001
7.684014e+002,-6.165771e-001
7.693656e+002,5.562744e-001
7.703298e+002,3.918762e+000
7.712941e+002,8.942200e+000
7.722583e+002,1.270337e+001
7.732225e+002,1.163904e+001
7.741868e+002,9.655151e+000
7.751510e+002,1.010236e+001
7.761152e+002,1.238580e+001
7.770795e+002,1.415485e+001
7.780437e+002,1.323022e+001
7.790079e+002,1.007111e+001
7.799722e+002,1.090784e+001
7.809364e+002,1.615259e+001
7.819006e+002,2.002460e+001
7.828649e+002,2.012506e+001
7.838291e+002,1.778058e+001
7.847933e+002,1.648230e+001
7.857576e+002,1.626917e+001
7.867218e+002,1.546411e+001
7.876860e+002,1.429742e+001
7.886503e+002,1.324823e+001
7.896145e+002,1.241840e+001
7.905787e+002,1.190759e+001
7.915430e+002,1.226410e+001
7.925072e+002,1.440088e+001
7.934714e+002,1.654095e+001
7.944357e+002,1.749274e+001
7.953999e+002,1.754034e+001
7.963641e+002,1.728284e+001
7.973284e+002,1.713782e+001
7.982926e+002,1.711310e+001
7.992568e+002,1.732959e+001
8.002211e+002,1.702197e+001
8.011853e+002,1.562238e+001
8.021495e+002,1.302789e+001
8.031138e+002,1.068970e+001
8.040780e+002,1.148492e+001
8.050422e+002,1.781989e+001
8.060065e+002,2.236530e+001
8.069707e+002,2.143738e+001
8.079349e+002,1.796716e+001
8.088992e+002,1.462244e+001
8.098634e+002,1.278680e+001
8.108276e+002,1.261609e+001
8.117919e+002,1.474316e+001
8.127561e+002,1.709534e+001
8.137203e+002,1.712988e+001
8.146846e+002,1.521277e+001
8.156488e+002,1.336993e+001
8.166130e+002,1.381726e+001
8.175773e+002,1.705896e+001
8.185415e+002,1.847321e+001
8.195057e+002,1.523792e+001
8.204700e+002,1.287323e+001
8.214342e+002,1.457538e+001
8.223984e+002,1.857977e+001
8.233627e+002,1.978943e+001
8.243269e+002,1.506091e+001
8.252911e+002,1.065405e+001
8.262554e+002,9.575195e+000
8.272196e+002,1.074084e+001
8.281838e+002,1.422058e+001
8.291481e+002,1.927344e+001
8.301123e+002,2.308105e+001
8.310765e+002,1.939600e+001
8.320408e+002,9.272888e+000
8.330050e+002,7.289978e+000
8.339692e+002,1.643005e+001
8.349335e+002,2.731482e+001
8.358977e+002,2.980743e+001
8.368619e+002,2.269781e+001
8.378262e+002,1.881946e+001
8.387904e+002,2.102338e+001
8.397546e+002,2.269031e+001
8.407189e+002,2.115521e+001
8.416831e+002,1.835480e+001
8.426473e+002,1.800940e+001
8.436116e+002,2.217401e+001
8.445758e+002,2.784662e+001
8.455400e+002,3.230554e+001
8.465043e+002,3.490948e+001
8.474685e+002,3.514545e+001
8.484327e+002,3.352979e+001
8.493970e+002,3.126880e+001
8.503612e+002,2.954462e+001
8.513254e+002,2.797394e+001
8.522897e+002,2.887787e+001
8.532539e+002,3.360999e+001
8.542181e+002,3.796655e+001
8.551824e+002,3.943555e+001
8.561466e+002,3.907184e+001
8.571108e+002,4.110004e+001
8.580751e+002,4.734875e+001
8.590393e+002,5.181152e+001
8.600035e+002,5.194556e+001
8.609678e+002,5.073126e+001
8.619320e+002,5.167609e+001
8.628962e+002,5.600220e+001
8.638605e+002,6.121912e+001
8.648247e+002,6.367737e+001
8.657889e+002,6.408636e+001
8.667532e+002,6.377740e+001
8.677174e+002,6.292761e+001
8.686816e+002,6.268152e+001
8.696459e+002,6.482971e+001
8.706101e+002,7.030890e+001
8.715743e+002,7.334784e+001
8.725386e+002,7.149573e+001
8.735028e+002,7.068958e+001
8.744670e+002,7.207031e+001
8.754313e+002,7.473041e+001
8.763955e+002,7.756342e+001
8.773597e+002,8.071082e+001
8.783240e+002,8.349622e+001
8.792882e+002,8.423242e+001
8.802524e+002,8.468414e+001
8.812167e+002,8.719086e+001
8.821809e+002,9.170923e+001
8.831451e+002,9.593237e+001
8.841094e+002,9.689294e+001
8.850736e+002,9.510016e+001
8.860378e+002,9.431555e+001
8.870021e+002,9.403479e+001
8.879663e+002,9.484351e+001
8.889305e+002,9.768280e+001
8.898948e+002,1.017654e+002
8.908590e+002,1.036594e+002
8.918232e+002,1.008126e+002
8.927875e+002,1.008599e+002
8.937517e+002,1.073924e+002
8.947159e+002,1.156736e+002
8.956802e+002,1.215330e+002
8.966444e+002,1.237371e+002
8.976086e+002,1.242571e+002
8.985729e+002,1.261400e+002
8.995371e+002,1.275605e+002
9.005013e+002,1.235089e+002
9.014656e+002,1.154845e+002
9.024298e+002,1.094308e+002
9.033940e+002,1.094998e+002
9.043583e+002,1.147513e+002
9.053225e+002,1.213105e+002
9.062867e+002,1.331693e+002
9.072510e+002,1.398254e+002
9.082152e+002,1.392859e+002
9.091794e+002,1.358907e+002
9.101437e+002,1.329713e+002
9.111079e+002,1.309603e+002
9.120721e+002,1.304891e+002
9.130364e+002,1.329338e+002
9.140006e+002,1.352004e+002
9.149648e+002,1.367875e+002
9.159291e+002,1.374512e+002
9.168933e+002,1.360052e+002
9.178575e+002,1.314300e+002
9.188218e+002,1.249047e+002
9.197860e+002,1.218258e+002
9.207502e+002,1.219581e+002
9.217145e+002,1.218453e+002
9.226787e+002,1.214476e+002
9.236429e+002,1.213967e+002
9.246072e+002,1.223647e+002
9.255714e+002,1.244261e+002
9.265356e+002,1.246980e+002
9.274999e+002,1.213406e+002
9.284641e+002,1.171180e+002
9.294283e+002,1.123868e+002
9.303926e+002,1.080392e+002
9.313568e+002,1.053469e+002
9.323210e+002,1.050103e+002
9.332853e+002,1.053090e+002
9.342495e+002,1.033671e+002
9.352137e+002,1.000729e+002
9.361780e+002,9.707538e+001
9.371422e+002,9.517010e+001
9.381064e+002,9.425366e+001
9.390707e+002,9.362817e+001
9.400349e+002,9.262964e+001
9.409991e+002,9.225800e+001
9.419634e+002,9.298651e+001
9.429276e+002,9.334937e+001
9.438918e+002,9.232666e+001
9.448561e+002,9.113525e+001
9.458203e+002,9.262115e+001
9.467845e+002,9.860724e+001
9.477488e+002,1.030010e+002
9.487130e+002,9.875464e+001
9.496772e+002,9.252454e+001
9.506415e+002,8.885699e+001
9.516057e+002,8.842084e+001
9.525699e+002,9.026746e+001
9.535342e+002,9.347449e+001
9.544984e+002,9.737622e+001
9.554626e+002,9.767743e+001
9.564269e+002,9.456268e+001
9.573911e+002,9.220386e+001
9.583553e+002,9.160571e+001
9.593196e+002,9.206335e+001
9.602838e+002,9.262360e+001
9.612480e+002,9.312872e+001
9.622123e+002,9.336951e+001
9.631765e+002,9.380176e+001
9.641407e+002,9.387451e+001
9.651050e+002,9.339728e+001
9.660692e+002,9.191766e+001
9.670334e+002,8.845911e+001
9.679977e+002,8.263538e+001
9.689619e+002,7.719629e+001
9.699261e+002,7.809955e+001
9.708904e+002,8.299847e+001
9.718546e+002,8.671680e+001
9.728188e+002,8.754590e+001
9.737831e+002,8.831458e+001
9.747473e+002,9.378729e+001
9.757115e+002,1.056331e+002
9.766758e+002,1.141442e+002
9.776400e+002,1.186538e+002
9.786042e+002,1.215816e+002
9.795685e+002,1.234128e+002
9.805327e+002,1.231174e+002
9.814969e+002,1.194435e+002
9.824612e+002,1.123391e+002
9.834254e+002,1.037878e+002
9.843896e+002,9.279474e+001
9.853539e+002,8.212817e+001
9.863181e+002,7.508984e+001
9.872823e+002,7.141003e+001
9.882466e+002,6.998358e+001
9.892108e+002,7.056940e+001
9.901750e+002,7.342749e+001
9.911393e+002,7.466943e+001
9.921035e+002,7.042468e+001
9.930677e+002,6.765802e+001
9.940320e+002,6.711066e+001
9.949962e+002,6.887915e+001
9.959604e+002,7.352612e+001
9.969247e+002,8.105017e+001
9.978889e+002,8.952460e+001
9.988531e+002,9.820941e+001
9.998174e+002,1.056411e+002
1.000782e+003,1.121099e+002
1.001746e+003,1.174325e+002
1.002710e+003,1.210419e+002
1.003674e+003,1.226579e+002
1.004639e+003,1.225121e+002
1.005603e+003,1.208607e+002
1.006567e+003,1.173085e+002
1.007531e+003,1.154455e+002
1.008495e+003,1.168924e+002
1.009460e+003,1.170000e+002
1.010424e+003,1.116167e+002
1.011388e+003,1.026373e+002
1.012352e+003,9.761224e+001
1.013317e+003,9.929999e+001
1.014281e+003,1.005092e+002
1.015245e+003,9.977112e+001
1.016209e+003,9.673291e+001
1.017174e+003,9.034564e+001
1.018138e+003,8.148865e+001
1.019102e+003,7.272913e+001
1.020066e+003,6.635315e+001
1.021031e+003,6.168140e+001
1.021995e+003,5.536249e+001
1.022959e+003,4.729047e+001
1.023923e+003,4.005682e+001
1.024887e+003,3.454449e+001
1.025852e+003,2.992731e+001
1.026816e+003,2.472638e+001
1.027780e+003,1.866766e+001
1.028744e+003,1.548773e+001
1.029709e+003,1.826611e+001
1.030673e+003,2.039478e+001
1.031637e+003,1.899377e+001
1.032601e+003,1.581665e+001
1.033566e+003,1.388190e+001
1.034530e+003,1.436853e+001
1.035494e+003,1.532391e+001
1.036458e+003,1.406055e+001
1.037422e+003,1.174457e+001
1.038387e+003,1.048395e+001
1.039351e+003,1.020441e+001
1.040315e+003,1.029718e+001
1.041279e+003,1.047394e+001
1.042244e+003,1.107837e+001
1.043208e+003,1.280304e+001
1.044172e+003,1.631805e+001
1.045136e+003,1.866571e+001
1.046101e+003,1.979529e+001
1.047065e+003,2.036346e+001
1.048029e+003,2.086371e+001
1.048993e+003,2.095251e+001
1.049958e+003,1.942639e+001
1.050922e+003,1.520300e+001
1.051886e+003,1.151331e+001
1.052850e+003,1.189569e+001
1.053814e+003,1.435400e+001
1.054779e+003,1.693097e+001
1.055743e+003,1.883942e+001
1.056707e+003,1.934326e+001
1.057671e+003,1.739703e+001
1.058636e+003,1.286633e+001
1.059600e+003,1.141406e+001
1.060564e+003,1.735065e+001
1.061528e+003,2.132880e+001
1.062493e+003,2.032526e+001
1.063457e+003,1.692657e+001
1.064421e+003,1.383185e+001
1.065385e+003,1.163794e+001
1.066349e+003,1.074255e+001
1.067314e+003,1.198584e+001
1.068278e+003,1.400677e+001
1.069242e+003,1.692224e+001
1.070206e+003,1.981720e+001
1.071171e+003,2.051532e+001
1.072135e+003,1.819653e+001
1.073099e+003,1.490479e+001
1.074063e+003,1.457770e+001
1.075028e+003,1.778375e+001
1.075992e+003,1.987396e+001
1.076956e+003,2.043481e+001
1.077920e+003,1.998663e+001
1.078885e+003,1.856342e+001
1.079849e+003,1.705170e+001
1.080813e+003,1.687518e+001
1.081777e+003,1.853131e+001
1.082741e+003,2.029938e+001
1.083706e+003,2.093805e+001
1.084670e+003,2.063666e+001
1.085634e+003,1.881946e+001
1.086598e+003,1.625372e+001
1.087563e+003,1.459210e+001
1.088527e+003,1.491797e+001
1.089491e+003,1.653253e+001
1.090455e+003,1.736798e+001
1.091420e+003,1.689032e+001
1.092384e+003,1.538214e+001
1.093348e+003,1.189532e+001
1.094312e+003,8.310242e+000
1.095276e+003,5.753418e+000
1.096241e+003,4.569153e+000
1.097205e+003,5.156677e+000
1.098169e+003,7.887573e+000
1.099133e+003,1.022400e+001
1.100098e+003,1.197089e+001
1.101062e+003,1.288403e+001
1.102026e+003,1.182910e+001
1.102990e+003,9.941772e+000
1.103955e+003,9.481079e+000
1.104919e+003,1.171069e+001
1.105883e+003,1.559296e+001
1.106847e+003,1.969934e+001
1.107812e+003,2.381451e+001
1.108776e+003,2.504315e+001
1.109740e+003,2.227045e+001
1.110704e+003,1.869482e+001
1.111668e+003,1.670996e+001
1.112633e+003,1.643341e+001
1.113597e+003,1.716547e+001
1.114561e+003,1.929425e+001
1.115525e+003,2.026288e+001
1.116490e+003,1.681525e+001
1.117454e+003,1.424493e+001
1.118418e+003,1.813721e+001
1.119382e+003,2.638550e+001
1.120347e+003,3.188818e+001
1.121311e+003,2.990436e+001
1.122275e+003,2.431952e+001
1.123239e+003,2.453577e+001
1.124203e+003,3.086554e+001
1.125168e+003,3.728229e+001
1.126132e+003,4.419330e+001
1.127096e+003,4.948743e+001
1.128060e+003,5.052618e+001
1.129025e+003,4.799744e+001
1.129989e+003,4.576343e+001
1.130953e+003,4.285571e+001
1.131917e+003,4.267725e+001
1.132882e+003,4.822247e+001
1.133846e+003,5.471167e+001
1.134810e+003,5.858112e+001
1.135774e+003,6.108630e+001
1.136739e+003,6.611853e+001
1.137703e+003,7.576416e+001
1.138667e+003,8.700940e+001
1.139631e+003,9.444366e+001
1.140595e+003,9.846619e+001
1.141560e+003,1.043501e+002
1.142524e+003,1.126106e+002
1.143488e+003,1.232912e+002
1.144452e+003,1.361591e+002
1.145417e+003,1.512606e+002
1.146381e+003,1.686948e+002
1.147345e+003,1.879877e+002
1.148309e+003,2.106306e+002
1.149274e+003,2.376771e+002
1.150238e+003,2.676179e+002
1.151202e+003,3.034955e+002
1.152166e+003,3.413859e+002
1.153130e+003,3.753096e+002
1.154095e+003,4.017370e+002
1.155059e+003,4.198643e+002
1.156023e+003,4.293575e+002
1.156987e+003,4.299321e+002
1.157952e+003,4.230891e+002
1.158916e+003,4.094590e+002
1.159880e+003,3.916433e+002
1.160844e+003,3.685826e+002
1.161809e+003,3.410122e+002
1.162773e+003,3.118030e+002
1.163737e+003,2.803415e+002
1.164701e+003,2.503278e+002
1.165666e+003,2.226719e+002
1.166630e+003,1.975662e+002
1.167594e+003,1.733732e+002
1.168558e+003,1.524296e+002
1.169522e+003,1.388391e+002
1.170487e+003,1.331617e+002
1.171451e+003,1.312632e+002
1.172415e+003,1.286561e+002
1.173379e+003,1.253549e+002
1.174344e+003,1.221775e+002
1.175308e+003,1.192284e+002
1.176272e+003,1.170315e+002
1.177236e+003,1.167717e+002
1.178201e+003,1.169238e+002
1.179165e+003,1.152302e+002
1.180129e+003,1.112955e+002
1.181093e+003,1.060660e+002
1.182057e+003,9.862946e+001
1.183022e+003,9.214160e+001
1.183986e+003,8.811365e+001
1.184950e+003,8.527271e+001
1.185914e+003,8.208093e+001
1.186879e+003,7.885864e+001
1.187843e+003,7.771332e+001
1.188807e+003,8.026947e+001
1.189771e+003,8.479712e+001
1.190736e+003,8.657025e+001
1.191700e+003,8.517548e+001
1.192664e+003,8.465344e+001
1.193628e+003,8.662854e+001
1.194593e+003,8.851929e+001
1.195557e+003,8.891412e+001
1.196521e+003,8.758942e+001
1.197485e+003,8.347552e+001
1.198449e+003,7.532837e+001
1.199414e+003,6.816315e+001
1.200378e+003,6.521301e+001
1.201342e+003,6.318506e+001
1.202306e+003,6.001056e+001
1.203271e+003,5.580432e+001
1.204235e+003,5.148444e+001
1.205199e+003,4.764221e+001
1.206163e+003,4.420050e+001
1.207128e+003,4.086969e+001
1.208092e+003,3.769153e+001
1.209056e+003,3.550452e+001
1.210020e+003,3.654968e+001
1.210984e+003,3.427002e+001
1.211949e+003,2.399695e+001
1.212913e+003,1.089441e+001
1.213877e+003,1.871155e+000
1.214841e+003,-2.533325e+000
1.215806e+003,-6.317444e+000
1.216770e+003,-1.085199e+001
1.217734e+003,-1.564539e+001
1.218698e+003,-2.094690e+001
1.219663e+003,-2.632996e+001
1.220627e+003,-3.148279e+001
1.221591e+003,-3.608557e+001
1.222555e+003,-3.943512e+001
1.223520e+003,-4.075531e+001
1.224484e+003,-4.021460e+001
1.225448e+003,-3.953052e+001
1.226412e+003,-3.783667e+001
1.227376e+003,-3.851672e+001
1.228341e+003,-4.468188e+001
1.229305e+003,-4.998407e+001
1.230269e+003,-5.014648e+001
1.231233e+003,-4.728369e+001
1.232198e+003,-4.562585e+001
1.233162e+003,-4.605585e+001
1.234126e+003,-4.696814e+001
1.235090e+003,-4.785376e+001
1.236055e+003,-4.873669e+001
1.237019e+003,-5.011566e+001
1.237983e+003,-5.154376e+001
1.238947e+003,-5.103668e+001
1.239911e+003,-4.758624e+001
1.240876e+003,-4.352136e+001
1.241840e+003,-4.273883e+001
1.242804e+003,-4.545990e+001
1.243768e+003,-4.682764e+001
1.244733e+003,-4.589417e+001
1.245697e+003,-4.468445e+001
1.246661e+003,-4.384821e+001
1.247625e+003,-4.320319e+001
1.248590e+003,-4.235083e+001
1.249554e+003,-4.097333e+001
1.250518e+003,-3.890375e+001
1.251482e+003,-3.625494e+001
1.252447e+003,-3.380505e+001
1.253411e+003,-3.169733e+001
1.254375e+003,-3.017432e+001
1.255339e+003,-3.079663e+001
1.256303e+003,-3.324432e+001
1.257268e+003,-3.417871e+001
1.258232e+003,-3.175659e+001
1.259196e+003,-2.776752e+001
1.260160e+003,-2.521472e+001
1.261125e+003,-2.407294e+001
1.262089e+003,-2.194189e+001
1.263053e+003,-1.774091e+001
1.264017e+003,-1.453241e+001
1.264982e+003,-1.405920e+001
1.265946e+003,-1.377332e+001
1.266910e+003,-1.070801e+001
1.267874e+003,-5.336487e+000
1.268839e+003,-1.640015e-001
1.269803e+003,3.214783e+000
1.270767e+003,4.090698e+000
1.271731e+003,2.713623e-001
1.272695e+003,-7.850403e+000
1.273660e+003,-1.342163e+001
1.274624e+003,-1.626050e+001
1.275588e+003,-1.859253e+001
1.276552e+003,-2.075513e+001
1.277517e+003,-2.272107e+001
1.278481e+003,-2.499042e+001
1.279445e+003,-2.773767e+001
1.280409e+003,-3.100653e+001
1.281374e+003,-3.704266e+001
1.282338e+003,-4.019891e+001
1.283302e+003,-3.513098e+001
1.284266e+003,-2.751459e+001
1.285230e+003,-2.354901e+001
1.286195e+003,-2.428064e+001
1.287159e+003,-2.736493e+001
1.288123e+003,-3.071423e+001
1.289087e+003,-3.345258e+001
1.290052e+003,-3.362946e+001
1.291016e+003,-3.023151e+001
1.291980e+003,-2.933704e+001
1.292944e+003,-3.298651e+001
1.293909e+003,-3.705096e+001
1.294873e+003,-3.987347e+001
1.295837e+003,-4.153442e+001
1.296801e+003,-4.203723e+001
1.297766e+003,-4.152014e+001
1.298730e+003,-4.139001e+001
1.299694e+003,-4.303802e+001
1.300658e+003,-4.480804e+001
1.301622e+003,-4.418994e+001
1.302587e+003,-4.233167e+001
1.303551e+003,-4.116205e+001
1.304515e+003,-4.087781e+001
1.305479e+003,-4.083240e+001
1.306444e+003,-4.081073e+001
1.307408e+003,-4.090198e+001
1.308372e+003,-4.079645e+001
1.309336e+003,-4.065576e+001
1.310301e+003,-3.990503e+001
1.311265e+003,-3.711267e+001
1.312229e+003,-3.494641e+001
1.313193e+003,-3.443903e+001
1.314157e+003,-3.498621e+001
1.315122e+003,-3.624664e+001
1.316086e+003,-3.801727e+001
1.317050e+003,-3.994202e+001
1.318014e+003,-4.164703e+001
1.318979e+003,-4.263428e+001
1.319943e+003,-4.230957e+001
1.320907e+003,-4.047021e+001
1.321871e+003,-3.728723e+001
1.322836e+003,-3.253564e+001
1.323800e+003,-2.938580e+001
1.324764e+003,-3.030615e+001
1.325728e+003,-3.328735e+001
1.326693e+003,-3.536053e+001
1.327657e+003,-3.667773e+001
1.328621e+003,-3.727429e+001
1.329585e+003,-3.566052e+001
1.330549e+003,-3.328162e+001
1.331514e+003,-3.161560e+001
1.332478e+003,-3.095575e+001
1.333442e+003,-3.130554e+001
1.334406e+003,-3.233972e+001
1.335371e+003,-3.400525e+001
1.336335e+003,-3.620111e+001
1.337299e+003,-3.778619e+001
1.338263e+003,-3.658063e+001
1.339228e+003,-3.210400e+001
1.340192e+003,-2.916211e+001
1.341156e+003,-2.837714e+001
1.342120e+003,-2.810864e+001
1.343084e+003,-2.948840e+001
1.344049e+003,-3.090186e+001
1.345013e+003,-3.012537e+001
1.345977e+003,-2.763525e+001
1.346941e+003,-2.596478e+001
1.347906e+003,-2.611261e+001
1.348870e+003,-2.624432e+001
1.349834e+003,-2.398132e+001
1.350798e+003,-2.158929e+001
1.351763e+003,-2.357098e+001
1.352727e+003,-2.894757e+001
1.353691e+003,-3.251788e+001
1.354655e+003,-3.213666e+001
1.355620e+003,-3.012158e+001
1.356584e+003,-2.915631e+001
1.357548e+003,-2.889587e+001
1.358512e+003,-2.718805e+001
1.359476e+003,-2.306512e+001
1.360441e+003,-2.145868e+001
1.361405e+003,-2.530902e+001
1.362369e+003,-2.956091e+001
1.363333e+003,-3.181769e+001
1.364298e+003,-3.285693e+001
1.365262e+003,-3.450031e+001
1.366226e+003,-3.681573e+001
1.367190e+003,-3.765802e+001
1.368155e+003,-3.508667e+001
1.369119e+003,-3.005737e+001
1.370083e+003,-2.534766e+001
1.371047e+003,-2.030597e+001
1.372011e+003,-1.784753e+001
1.372976e+003,-2.074750e+001
1.373940e+003,-2.341925e+001
1.374904e+003,-2.342499e+001
1.375868e+003,-2.195111e+001
1.376833e+003,-1.985724e+001
1.377797e+003,-1.780762e+001
1.378761e+003,-1.847766e+001
1.379725e+003,-2.378772e+001
1.380690e+003,-2.915253e+001
1.381654e+003,-2.945013e+001
1.382618e+003,-2.679767e+001
1.383582e+003,-2.325818e+001
1.384547e+003,-1.935297e+001
1.385511e+003,-1.696075e+001
1.386475e+003,-1.747382e+001
1.387439e+003,-1.917554e+001
1.388403e+003,-1.926593e+001
1.389368e+003,-1.779742e+001
1.390332e+003,-1.673468e+001
1.391296e+003,-1.572083e+001
1.392260e+003,-1.535742e+001
1.393225e+003,-1.718500e+001
1.394189e+003,-1.836401e+001
1.395153e+003,-1.597070e+001
1.396117e+003,-1.238824e+001
1.397082e+003,-1.195471e+001
1.398046e+003,-1.514215e+001
1.399010e+003,-1.782178e+001
1.399974e+003,-1.642297e+001
1.400938e+003,-1.292859e+001
1.401903e+003,-1.215540e+001
1.402867e+003,-1.365845e+001
1.403831e+003,-1.459601e+001
1.404795e+003,-1.619232e+001
1.405760e+003,-1.678894e+001
1.406724e+003,-1.562952e+001
1.407688e+003,-1.481116e+001
1.408652e+003,-1.645148e+001
1.409617e+003,-1.968042e+001
1.410581e+003,-2.167810e+001
1.411545e+003,-2.142969e+001
1.412509e+003,-1.926831e+001
1.413474e+003,-1.412811e+001
1.414438e+003,-8.949890e+000
1.415402e+003,-8.268860e+000
1.416366e+003,-1.110114e+001
1.417330e+003,-1.334857e+001
1.418295e+003,-1.344800e+001
1.419259e+003,-1.231726e+001
1.420223e+003,-1.069629e+001
1.421187e+003,-9.104187e+000
1.422152e+003,-9.453430e+000
1.423116e+003,-1.242017e+001
1.424080e+003,-1.347485e+001
1.425044e+003,-9.868164e+000
1.426009e+003,-6.635498e+000
1.426973e+003,-5.754639e+000
1.427937e+003,-6.507813e+000
1.428901e+003,-8.560120e+000
1.429865e+003,-1.095300e+001
1.430830e+003,-1.187634e+001
1.431794e+003,-1.035602e+001
1.432758e+003,-7.237244e+000
1.433722e+003,-3.476318e+000
1.434687e+003,1.775757e+000
1.435651e+003,5.682312e+000
1.436615e+003,5.439941e+000
1.437579e+003,4.927063e+000
1.438544e+003,4.446228e+000
1.439508e+003,4.225525e+000
1.440472e+003,4.700928e+000
1.441436e+003,6.018433e+000
1.442401e+003,8.573120e+000
1.443365e+003,1.202930e+001
1.444329e+003,1.406586e+001
1.445293e+003,1.296796e+001
1.446257e+003,1.005432e+001
1.447222e+003,6.683838e+000
1.448186e+003,3.204285e+000
1.449150e+003,2.580261e+000
1.450114e+003,5.679077e+000
1.451079e+003,8.471130e+000
1.452043e+003,9.163269e+000
1.453007e+003,8.853027e+000
1.453971e+003,8.581360e+000
1.454936e+003,8.162781e+000
1.455900e+003,7.324219e+000
1.456864e+003,5.985352e+000
1.457828e+003,5.172852e+000
1.458792e+003,4.759583e+000
1.459757e+003,5.239807e+000
1.460721e+003,8.515564e+000
1.461685e+003,1.261652e+001
1.462649e+003,1.339825e+001
1.463614e+003,1.017883e+001
1.464578e+003,6.208130e+000
1.465542e+003,4.007080e+000
1.466506e+003,3.180115e+000
1.467471e+003,3.237000e+000
1.468435e+003,4.834290e+000
1.469399e+003,6.743652e+000
1.470363e+003,9.293579e+000
1.471328e+003,1.037506e+001
1.472292e+003,7.245605e+000
1.473256e+003,3.806213e+000
1.474220e+003,3.628906e+000
1.475184e+003,6.127258e+000
1.476149e+003,9.270752e+000
1.477113e+003,1.186450e+001
1.478077e+003,1.339301e+001
1.479041e+003,1.360431e+001
1.480006e+003,1.388550e+001
1.480970e+003,1.813666e+001
1.481934e+003,2.777734e+001
1.482898e+003,3.304022e+001
1.483863e+003,3.159021e+001
1.484827e+003,2.934772e+001
1.485791e+003,2.728796e+001
1.486755e+003,2.633545e+001
1.487719e+003,2.708032e+001
1.488684e+003,2.912128e+001
1.489648e+003,3.193732e+001
1.490612e+003,3.556177e+001
1.491576e+003,3.985876e+001
1.492541e+003,4.459473e+001
1.493505e+003,4.956390e+001
1.494469e+003,5.439484e+001
1.495433e+003,5.867273e+001
1.496398e+003,6.310657e+001
1.497362e+003,6.862164e+001
1.498326e+003,7.413940e+001
1.499290e+003,7.846198e+001
1.500255e+003,8.274518e+001
1.501219e+003,8.735492e+001
1.502183e+003,9.281506e+001
1.503147e+003,1.029705e+002
1.504111e+003,1.193231e+002
1.505076e+003,1.369257e+002
1.506040e+003,1.529540e+002
1.507004e+003,1.692415e+002
1.507968e+003,1.870750e+002
1.508933e+003,2.066563e+002
1.509897e+003,2.283700e+002
1.510861e+003,2.530133e+002
1.511825e+003,2.811171e+002
1.512790e+003,3.130093e+002
1.513754e+003,3.470568e+002
1.514718e+003,3.809858e+002
1.515682e+003,4.143262e+002
1.516646e+003,4.482773e+002
1.517611e+003,4.851191e+002
1.518575e+003,5.186720e+002
1.519539e+003,5.491882e+002
1.520503e+003,5.746294e+002
1.521468e+003,5.938002e+002
1.522432e+003,6.067054e+002
1.523396e+003,6.140100e+002
1.524360e+003,6.153446e+002
1.525325e+003,6.091748e+002
1.526289e+003,5.946223e+002
1.527253e+003,5.734029e+002
1.528217e+003,5.479396e+002
1.529182e+003,5.186125e+002
1.530146e+003,4.877275e+002
1.531110e+003,4.549821e+002
1.532074e+003,4.201312e+002
1.533039e+003,3.815786e+002
1.534003e+003,3.409115e+002
1.534967e+003,2.982037e+002
1.535931e+003,2.561666e+002
1.536896e+003,2.157610e+002
1.537860e+003,1.787748e+002
1.538824e+003,1.485409e+002
1.539788e+003,1.263556e+002
1.540752e+003,1.092546e+002
1.541717e+003,9.369324e+001
1.542681e+003,8.017010e+001
1.543645e+003,6.995209e+001
1.544609e+003,6.473102e+001
1.545573e+003,6.012732e+001
1.546538e+003,5.496362e+001
1.547502e+003,5.055896e+001
1.548466e+003,4.737878e+001
1.549430e+003,4.638281e+001
1.550395e+003,4.947717e+001
1.551359e+003,5.485272e+001
1.552323e+003,5.831970e+001
1.553287e+003,5.843817e+001
1.554252e+003,5.634479e+001
1.555216e+003,5.286163e+001
1.556180e+003,4.801654e+001
1.557144e+003,4.120660e+001
1.558109e+003,3.257874e+001
1.559073e+003,2.762500e+001
1.560037e+003,2.761377e+001
1.561001e+003,2.731097e+001
1.561966e+003,2.515173e+001
1.562930e+003,2.311951e+001
1.563894e+003,2.273938e+001
1.564858e+003,2.341797e+001
1.565823e+003,2.392090e+001
1.566787e+003,2.394574e+001
1.567751e+003,2.383850e+001
1.568715e+003,2.385529e+001
1.569679e+003,2.423486e+001
1.570644e+003,2.500720e+001
1.571608e+003,2.593909e+001
1.572572e+003,2.749902e+001
1.573536e+003,3.002985e+001
1.574500e+003,3.188281e+001
1.575465e+003,3.212854e+001
1.576429e+003,3.177502e+001
1.577393e+003,3.091602e+001
1.578357e+003,3.001740e+001
1.579322e+003,3.046277e+001
1.580286e+003,3.241064e+001
1.581250e+003,3.497314e+001
1.582214e+003,3.827148e+001
1.583179e+003,4.057568e+001
1.584143e+003,3.970728e+001
1.585107e+003,3.744086e+001
1.586071e+003,3.657263e+001
1.587036e+003,3.732404e+001
1.588000e+003,3.880640e+001
1.588964e+003,4.049988e+001
1.589928e+003,4.264044e+001
1.590893e+003,4.608185e+001
1.591857e+003,4.954865e+001
1.592821e+003,5.046198e+001
1.593785e+003,4.955933e+001
1.594750e+003,5.141083e+001
1.595714e+003,5.719086e+001
1.596678e+003,5.989508e+001
1.597642e+003,5.419873e+001
1.598606e+003,4.845593e+001
1.599571e+003,5.053998e+001
1.600535e+003,5.608563e+001
1.601499e+003,5.942126e+001
1.602463e+003,6.035309e+001
1.603427e+003,6.165094e+001
1.604392e+003,6.461395e+001
1.605356e+003,6.719116e+001
1.606320e+003,6.728522e+001
1.607284e+003,6.545471e+001
1.608249e+003,6.280725e+001
1.609213e+003,5.929749e+001
1.610177e+003,5.685089e+001
1.611141e+003,5.592548e+001
1.612106e+003,5.575964e+001
1.613070e+003,5.621399e+001
1.614034e+003,5.703033e+001
1.614998e+003,5.907776e+001
1.615963e+003,6.097919e+001
1.616927e+003,5.923395e+001
1.617891e+003,5.401868e+001
1.618855e+003,5.089008e+001
1.619820e+003,5.330786e+001
1.620784e+003,5.702417e+001
1.621748e+003,5.602808e+001
1.622712e+003,5.202814e+001
1.623677e+003,5.256805e+001
1.624641e+003,5.896942e+001
1.625605e+003,6.256128e+001
1.626569e+003,5.841565e+001
1.627533e+003,5.402850e+001
1.628498e+003,5.346619e+001
1.629462e+003,5.486493e+001
1.630426e+003,5.780334e+001
1.631390e+003,6.090100e+001
1.632354e+003,6.125385e+001
1.633319e+003,5.843890e+001
1.634283e+003,5.562189e+001
1.635247e+003,5.494312e+001
1.636211e+003,5.591718e+001
1.637176e+003,5.892181e+001
1.638140e+003,6.381421e+001
1.639104e+003,6.455688e+001
1.640068e+003,5.898724e+001
1.641033e+003,5.623914e+001
1.641997e+003,6.147418e+001
1.642961e+003,6.627289e+001
1.643925e+003,6.553101e+001
1.644890e+003,6.306042e+001
1.645854e+003,6.258612e+001
1.646818e+003,6.353522e+001
1.647782e+003,6.347705e+001
1.648747e+003,6.167798e+001
1.649711e+003,5.978925e+001
1.650675e+003,5.946008e+001
1.651639e+003,6.017487e+001
1.652604e+003,6.047821e+001
1.653568e+003,6.011670e+001
1.654532e+003,5.856775e+001
1.655496e+003,5.509808e+001
1.656460e+003,5.308295e+001
1.657425e+003,5.503992e+001
1.658389e+003,5.694006e+001
1.659353e+003,5.654584e+001
1.660317e+003,5.497998e+001
1.661281e+003,5.290259e+001
1.662246e+003,5.065387e+001
1.663210e+003,4.923724e+001
1.664174e+003,4.908020e+001
1.665138e+003,4.882745e+001
1.666103e+003,4.681085e+001
1.667067e+003,4.419568e+001
1.668031e+003,4.429553e+001
1.668995e+003,4.689215e+001
1.669960e+003,4.673853e+001
1.670924e+003,4.273615e+001
1.671888e+003,3.962909e+001
1.672852e+003,3.870831e+001
1.673817e+003,3.878387e+001
1.674781e+003,3.926508e+001
1.675745e+003,4.005951e+001
1.676709e+003,4.164203e+001
1.677674e+003,4.338788e+001
1.678638e+003,4.349841e+001
1.679602e+003,4.143127e+001
1.680566e+003,3.818872e+001
1.681531e+003,3.388873e+001
1.682495e+003,3.033008e+001
1.683459e+003,3.104846e+001
1.684423e+003,3.491705e+001
1.685387e+003,3.612244e+001
1.686352e+003,3.401630e+001
1.687316e+003,3.159302e+001
1.688280e+003,2.942920e+001
1.689244e+003,2.782007e+001
1.690208e+003,2.730695e+001
1.691173e+003,2.703119e+001
1.692137e+003,2.624707e+001
1.693101e+003,2.535858e+001
1.694065e+003,2.464758e+001
1.695030e+003,2.378607e+001
1.695994e+003,2.332623e+001
1.696958e+003,2.447083e+001
1.697922e+003,2.560681e+001
1.698887e+003,2.422809e+001
1.699851e+003,2.137317e+001
1.700815e+003,1.995453e+001
1.701779e+003,1.999933e+001
1.702744e+003,1.972583e+001
1.703708e+003,1.891498e+001
1.704672e+003,1.842737e+001
1.705636e+003,1.914465e+001
1.706601e+003,1.902417e+001
1.707565e+003,1.424762e+001
1.708529e+003,7.075500e+000
1.709493e+003,4.137695e+000
1.710458e+003,6.493164e+000
1.711422e+003,9.483154e+000
1.712386e+003,1.225201e+001
1.713350e+003,1.440594e+001
1.714314e+003,1.510309e+001
1.715279e+003,1.452942e+001
1.716243e+003,1.298376e+001
1.717207e+003,1.086902e+001
1.718171e+003,9.569397e+000
1.719135e+003,9.557983e+000
1.720100e+003,9.773438e+000
1.721064e+003,9.457092e+000
1.722028e+003,8.522644e+000
1.722992e+003,6.954590e+000
1.723957e+003,5.410583e+000
1.724921e+003,5.264893e+000
1.725885e+003,6.063354e+000
1.726849e+003,6.353577e+000
1.727814e+003,7.115601e+000
1.728778e+003,7.264709e+000
1.729742e+003,5.195496e+000
1.730706e+003,3.022583e+000
1.731671e+003,2.413269e+000
1.732635e+003,2.684570e+000
1.733599e+003,3.159302e+000
1.734563e+003,4.002869e+000
1.735528e+003,5.483521e+000
1.736492e+003,7.547180e+000
1.737456e+003,8.547729e+000
1.738420e+003,6.248596e+000
1.739385e+003,1.739624e+000
1.740349e+003,4.691162e-001
1.741313e+003,3.843872e+000
1.742277e+003,4.883362e+000
1.743241e+003,2.470703e+000
1.744206e+003,3.471680e-001
1.745170e+003,-2.334900e+000
1.746134e+003,-3.557190e+000
1.747098e+003,-9.808350e-001
1.748063e+003,2.658691e+000
1.749027e+003,4.425049e+000
1.749991e+003,4.400757e+000
1.750955e+003,3.745178e+000
1.751919e+003,2.965881e+000
1.752884e+003,2.420837e+000
1.753848e+003,2.421631e+000
1.754812e+003,2.428894e+000
1.755776e+003,1.588501e+000
1.756741e+003,2.956543e-001
1.757705e+003,-4.491577e-001
1.758669e+003,-1.043335e+000
1.759633e+003,-8.790283e-001
1.760598e+003,1.007263e+000
1.761562e+003,1.703003e+000
1.762526e+003,-3.973389e-001
1.763490e+003,-2.416626e+000
1.764455e+003,-2.596069e+000
1.765419e+003,-1.086243e+000
1.766383e+003,2.260376e+000
1.767347e+003,6.466797e+000
1.768312e+003,8.764709e+000
1.769276e+003,7.722961e+000
1.770240e+003,4.911743e+000
1.771204e+003,1.916382e+000
1.772168e+003,-4.143677e-001
1.773133e+003,-8.522949e-001
1.774097e+003,4.241943e-001
1.775061e+003,2.092957e+000
1.776025e+003,3.852844e+000
1.776990e+003,3.928406e+000
1.777954e+003,1.320374e+000
1.778918e+003,-7.680054e-001
1.779882e+003,2.537842e-001
1.780846e+003,2.083984e+000
1.781811e+003,1.500366e+000
1.782775e+003,-4.213867e-001
1.783739e+003,2.872314e-001
1.784703e+003,4.749146e+000
1.785668e+003,6.715454e+000
1.786632e+003,9.523926e-001
1.787596e+003,-5.519470e+000
1.788560e+003,-7.018494e+000
1.789525e+003,-5.448364e+000
1.790489e+003,-3.339050e+000
1.791453e+003,-1.361267e+000
1.792417e+003,1.629639e-002
1.793382e+003,6.881714e-001
1.794346e+003,3.906860e-001
1.795310e+003,-1.152100e+000
1.796274e+003,-2.913086e+000
1.797239e+003,-3.579834e+000
1.798203e+003,-2.692993e+000
1.799167e+003,-1.057739e-001
1.800131e+003,3.868103e+000
1.801095e+003,5.826660e+000
1.802060e+003,6.214111e+000
1.803024e+003,5.695862e+000
1.803988e+003,1.930054e+000
1.804952e+003,-3.598022e-001
1.805917e+003,2.519775e+000
1.806881e+003,6.680603e+000
1.807845e+003,8.610352e+000
1.808809e+003,8.689880e+000
1.809773e+003,8.130371e+000
1.810738e+003,7.584656e+000
1.811702e+003,8.199768e+000
1.812666e+003,1.058051e+001
1.813630e+003,1.242523e+001
1.814595e+003,1.032898e+001
1.815559e+003,5.410828e+000
1.816523e+003,2.859070e+000
1.817487e+003,2.996704e+000
1.818452e+003,3.148132e+000
1.819416e+003,3.594055e+000
1.820380e+003,3.946167e+000
1.821344e+003,3.119690e+000
1.822309e+003,2.749634e+000
1.823273e+003,5.507568e+000
1.824237e+003,8.422729e+000
1.825201e+003,7.220886e+000
1.826166e+003,3.457642e+000
1.827130e+003,2.052368e+000
1.828094e+003,3.652832e+000
1.829058e+003,4.791626e+000
1.830022e+003,3.969055e+000
1.830987e+003,2.635376e+000
1.831951e+003,1.468201e+000
1.832915e+003,9.083862e-001
1.833879e+003,2.118103e+000
1.834844e+003,4.367554e+000
1.835808e+003,5.373413e+000
1.836772e+003,4.919006e+000
1.837736e+003,4.288147e+000
1.838700e+003,3.829590e+000
1.839665e+003,3.422363e+000
1.840629e+003,3.015869e+000
1.841593e+003,3.233154e+000
1.842557e+003,5.374878e+000
1.843522e+003,9.370300e+000
1.844486e+003,1.144800e+001
1.845450e+003,1.131482e+001
1.846414e+003,1.075800e+001
1.847379e+003,7.924622e+000
1.848343e+003,5.880615e+000
1.849307e+003,6.230957e+000
1.850271e+003,7.391235e+000
1.851236e+003,8.888184e+000
1.852200e+003,1.040808e+001
1.853164e+003,1.151282e+001
1.854128e+003,1.161560e+001
1.855093e+003,9.835327e+000
1.856057e+003,6.506165e+000
1.857021e+003,4.293640e+000
1.857985e+003,5.325195e+000
1.858949e+003,7.794373e+000
1.859914e+003,8.736084e+000
1.860878e+003,8.568359e+000
1.861842e+003,8.928650e+000
1.862806e+003,9.684021e+000
1.863771e+003,1.121588e+001
1.864735e+003,1.370319e+001
1.865699e+003,1.573334e+001
1.866663e+003,1.736493e+001
1.867627e+003,1.777545e+001
1.868592e+003,1.487512e+001
1.869556e+003,1.035010e+001
1.870520e+003,7.810791e+000
1.871484e+003,7.128296e+000
1.872449e+003,8.175598e+000
1.873413e+003,1.288165e+001
1.874377e+003,1.645160e+001
1.875341e+003,1.489075e+001
1.876306e+003,1.326642e+001
1.877270e+003,1.487720e+001
1.878234e+003,1.690051e+001
1.879198e+003,1.657794e+001
1.880163e+003,1.473706e+001
1.881127e+003,1.295776e+001
1.882091e+003,1.176416e+001
1.883055e+003,1.131342e+001
1.884020e+003,1.159766e+001
1.884984e+003,1.237866e+001
1.885948e+003,1.347791e+001
1.886912e+003,1.478400e+001
1.887876e+003,1.619415e+001
1.888841e+003,1.770447e+001
1.889805e+003,1.859790e+001
1.890769e+003,1.875409e+001
1.891733e+003,1.896021e+001
1.892698e+003,1.907751e+001
1.893662e+003,1.901196e+001
1.894626e+003,1.946539e+001
1.895590e+003,1.906274e+001
1.896554e+003,1.567535e+001
1.897519e+003,1.217615e+001
1.898483e+003,1.171216e+001
1.899447e+003,1.354266e+001
1.900411e+003,1.633752e+001
1.901376e+003,2.018121e+001
1.902340e+003,2.227618e+001
1.903304e+003,2.062695e+001
1.904268e+003,1.832269e+001
1.905233e+003,1.694135e+001
1.906197e+003,1.640161e+001
1.907161e+003,1.711200e+001
1.908125e+003,1.851245e+001
1.909090e+003,1.900842e+001
1.910054e+003,1.866205e+001
1.911018e+003,1.963898e+001
1.911982e+003,2.253485e+001
1.912947e+003,2.444165e+001
1.913911e+003,2.310834e+001
1.914875e+003,2.075708e+001
1.915839e+003,2.064496e+001
1.916803e+003,2.226007e+001
1.917768e+003,2.511798e+001
1.918732e+003,3.021027e+001
1.919696e+003,3.155719e+001
1.920660e+003,2.739410e+001
1.921625e+003,2.516034e+001
1.922589e+003,2.812866e+001
1.923553e+003,2.998730e+001
1.924517e+003,2.544141e+001
1.925481e+003,2.023737e+001
1.926446e+003,1.947009e+001
1.927410e+003,2.171564e+001
1.928374e+003,2.429541e+001
1.929338e+003,2.665442e+001
1.930303e+003,2.839001e+001
1.931267e+003,3.007434e+001
1.932231e+003,3.099548e+001
1.933195e+003,2.936481e+001
1.934160e+003,2.769989e+001
1.935124e+003,2.796790e+001
1.936088e+003,2.889789e+001
1.937052e+003,2.949640e+001
1.938017e+003,2.987793e+001
1.938981e+003,3.035889e+001
1.939945e+003,3.074066e+001
1.940909e+003,3.001678e+001
1.941874e+003,2.777875e+001
1.942838e+003,2.535785e+001
1.943802e+003,2.425104e+001
1.944766e+003,2.494324e+001
1.945730e+003,2.825006e+001
1.946695e+003,3.325311e+001
1.947659e+003,3.390485e+001
1.948623e+003,2.951160e+001
1.949587e+003,2.805219e+001
1.950552e+003,3.184943e+001
1.951516e+003,3.306799e+001
1.952480e+003,2.746411e+001
1.953444e+003,2.218512e+001
1.954408e+003,2.235309e+001
1.955373e+003,2.494049e+001
1.956337e+003,2.672937e+001
1.957301e+003,2.813293e+001
1.958265e+003,2.927557e+001
1.959230e+003,3.029468e+001
1.960194e+003,3.031152e+001
1.961158e+003,2.693848e+001
1.962122e+003,2.467981e+001
1.963087e+003,2.517010e+001
1.964051e+003,2.669836e+001
1.965015e+003,2.957074e+001
1.965979e+003,3.261273e+001
1.966944e+003,3.414142e+001
1.967908e+003,3.450092e+001
1.968872e+003,3.463104e+001
1.969836e+003,3.505347e+001
1.970801e+003,3.647015e+001
1.971765e+003,3.912164e+001
1.972729e+003,4.161749e+001
1.973693e+003,4.281683e+001
1.974657e+003,4.300629e+001
1.975622e+003,4.222668e+001
1.976586e+003,4.063641e+001
1.977550e+003,3.872052e+001
1.978514e+003,3.689435e+001
1.979479e+003,3.668469e+001
1.980443e+003,3.814392e+001
1.981407e+003,3.967096e+001
1.982371e+003,4.083765e+001
1.983335e+003,4.207745e+001
1.984300e+003,4.354706e+001
1.985264e+003,4.464642e+001
1.986228e+003,4.470282e+001
1.987192e+003,4.383612e+001
1.988157e+003,4.267920e+001
1.989121e+003,4.125677e+001
1.990085e+003,4.025452e+001
1.991049e+003,3.982941e+001
1.992014e+003,3.997046e+001
1.992978e+003,4.018866e+001
1.993942e+003,4.120868e+001
1.994906e+003,4.434589e+001
1.995871e+003,4.730237e+001
1.996835e+003,4.828479e+001
1.997799e+003,4.833813e+001
1.998763e+003,4.906927e+001
1.999728e+003,5.002917e+001
