5.003444e+002,4.217889e+001
5.013087e+002,4.174084e+001
5.022729e+002,4.055713e+001
5.032371e+002,3.912592e+001
5.042014e+002,3.851538e+001
5.051656e+002,3.861795e+001
5.061298e+002,3.860138e+001
5.070941e+002,3.762524e+001
5.080583e+002,3.532977e+001
5.090225e+002,3.346982e+001
5.099868e+002,3.166080e+001
5.109510e+002,3.046350e+001
5.119152e+002,3.038550e+001
5.128795e+002,3.152386e+001
5.138437e+002,3.267139e+001
5.148079e+002,3.356326e+001
5.157722e+002,3.434668e+001
5.167364e+002,3.543771e+001
5.177006e+002,3.653766e+001
5.186649e+002,3.652603e+001
5.196291e+002,3.300162e+001
5.205933e+002,2.864481e+001
5.215576e+002,2.602774e+001
5.225218e+002,2.535571e+001
5.234860e+002,2.618518e+001
5.244503e+002,2.804947e+001
5.254145e+002,3.181589e+001
5.263787e+002,3.297388e+001
5.273430e+002,2.975607e+001
5.283072e+002,2.513785e+001
5.292714e+002,2.333221e+001
5.302357e+002,2.593732e+001
5.311999e+002,2.741800e+001
5.321641e+002,2.723996e+001
5.331284e+002,2.628329e+001
5.340926e+002,2.469656e+001
5.350568e+002,2.232455e+001
5.360211e+002,2.060675e+001
5.369853e+002,2.190927e+001
5.379495e+002,2.418921e+001
5.389138e+002,2.588596e+001
5.398780e+002,2.628922e+001
5.408422e+002,2.564819e+001
5.418065e+002,2.436505e+001
5.427707e+002,2.257520e+001
5.437349e+002,2.133395e+001
5.446992e+002,2.093719e+001
5.456634e+002,2.121194e+001
5.466276e+002,2.162689e+001
5.475919e+002,2.258337e+001
5.485561e+002,2.332077e+001
5.495203e+002,2.415939e+001
5.504846e+002,2.450159e+001
5.514488e+002,2.336374e+001
5.524130e+002,1.976154e+001
5.533773e+002,1.635867e+001
5.543415e+002,1.433316e+001
5.553057e+002,1.324564e+001
5.562700e+002,1.266437e+001
5.572342e+002,1.229739e+001
5.581984e+002,1.220352e+001
5.591627e+002,1.292264e+001
5.601269e+002,1.421194e+001
5.610911e+002,1.538965e+001
5.620554e+002,1.605975e+001
5.630196e+002,1.616760e+001
5.639838e+002,1.583801e+001
5.649481e+002,1.469150e+001
5.659123e+002,1.368619e+001
5.668765e+002,1.349277e+001
5.678408e+002,1.382840e+001
5.688050e+002,1.348993e+001
5.697692e+002,1.088007e+001
5.707335e+002,8.841736e+000
5.716977e+002,8.580048e+000
5.726619e+002,9.388611e+000
5.736262e+002,1.043488e+001
5.745904e+002,1.129712e+001
5.755546e+002,1.175494e+001
5.765189e+002,1.107715e+001
5.774831e+002,9.656036e+000
5.784473e+002,8.429108e+000
5.794116e+002,8.112244e+000
5.803758e+002,8.714325e+000
5.813400e+002,8.807770e+000
5.823043e+002,8.174164e+000
5.832685e+002,7.115234e+000
5.842327e+002,5.313507e+000
5.851970e+002,3.172363e+000
5.861612e+002,2.590515e+000
5.871254e+002,5.501740e+000
5.880897e+002,7.991913e+000
5.890539e+002,9.287689e+000
5.900181e+002,9.568756e+000
5.909824e+002,9.230255e+000
5.919466e+002,8.307434e+000
5.929108e+002,7.493561e+000
5.938751e+002,7.710327e+000
5.948393e+002,8.416595e+000
5.958035e+002,8.766876e+000
5.967678e+002,8.175903e+000
5.977320e+002,6.891235e+000
5.986962e+002,6.153900e+000
5.996605e+002,5.640015e+000
6.006247e+002,5.608551e+000
6.015889e+002,6.759460e+000
6.025532e+002,8.938721e+000
6.035174e+002,9.592224e+000
6.044816e+002,7.398834e+000
6.054459e+002,4.963776e+000
6.064101e+002,1.710724e+000
6.073743e+002,-1.413849e+000
6.083386e+002,-2.609589e+000
6.093028e+002,7.293701e-003
6.102670e+002,3.007568e+000
6.112313e+002,3.514801e+000
6.121955e+002,2.671539e+000
6.131597e+002,2.028473e+000
6.141240e+002,2.630768e+000
6.150882e+002,3.996887e+000
6.160524e+002,4.034698e+000
6.170167e+002,3.073914e+000
6.179809e+002,2.138275e+000
6.189451e+002,1.366241e+000
6.199094e+002,7.961731e-001
6.208736e+002,1.383911e+000
6.218378e+002,5.994293e+000
6.228021e+002,8.782532e+000
6.237663e+002,8.258972e+000
6.247305e+002,5.915436e+000
6.256948e+002,4.089081e+000
6.266590e+002,3.631012e+000
6.276232e+002,3.427704e+000
6.285875e+002,2.863251e+000
6.295517e+002,2.308472e+000
6.305159e+002,2.119568e+000
6.314802e+002,2.430786e+000
6.324444e+002,2.960449e+000
6.334086e+002,3.332916e+000
6.343729e+002,3.661499e+000
6.353371e+002,3.641571e+000
6.363013e+002,3.041412e+000
6.372656e+002,2.031128e+000
6.382298e+002,1.387146e+000
6.391940e+002,1.926880e+000
6.401583e+002,1.558014e+000
6.411225e+002,-5.968933e-001
6.420867e+002,-2.880493e+000
6.430510e+002,-3.104126e+000
6.440152e+002,-6.579590e-002
6.449794e+002,2.196930e+000
6.459437e+002,8.507690e-001
6.469079e+002,-1.420593e+000
6.478721e+002,-2.538879e+000
6.488364e+002,-1.741180e+000
6.498006e+002,6.259155e-002
6.507648e+002,1.461060e+000
6.517291e+002,2.436432e+000
6.526933e+002,3.009430e+000
6.536575e+002,3.161621e+000
6.546218e+002,2.994751e+000
6.555860e+002,2.754272e+000
6.565502e+002,2.770233e+000
6.575145e+002,1.715179e+000
6.584787e+002,-1.304657e+000
6.594429e+002,-4.506989e+000
6.604072e+002,-6.750275e+000
6.613714e+002,-7.927002e+000
6.623356e+002,-7.659241e+000
6.632999e+002,-3.689423e+000
6.642641e+002,-2.510986e-001
6.652283e+002,-1.823425e-001
6.661926e+002,-3.030945e+000
6.671568e+002,-5.857941e+000
6.681210e+002,-5.008942e+000
6.690853e+002,-1.916473e+000
6.700495e+002,-4.441528e-001
6.710137e+002,-6.069336e-001
6.719780e+002,-1.339935e+000
6.729422e+002,-1.572998e+000
6.739064e+002,-1.315430e+000
6.748707e+002,-7.941895e-001
6.758349e+002,6.483459e-001
6.767991e+002,1.478271e+000
6.777634e+002,6.524353e-001
6.787276e+002,-1.402618e+000
6.796918e+002,-2.360779e+000
6.806561e+002,-3.847656e-001
6.816203e+002,1.469391e+000
6.825845e+002,1.797760e+000
6.835488e+002,1.240173e+000
6.845130e+002,1.023010e+000
6.854772e+002,2.125671e+000
6.864415e+002,3.997101e+000
6.874057e+002,5.388367e+000
6.883699e+002,6.114075e+000
6.893342e+002,5.823273e+000
6.902984e+002,4.272156e+000
6.912626e+002,1.792572e+000
6.922269e+002,2.962952e-001
6.931911e+002,1.210876e+000
6.941553e+002,1.660828e+000
6.951196e+002,7.961426e-001
6.960838e+002,-7.464600e-001
6.970480e+002,-1.844635e+000
6.980123e+002,-2.128204e+000
6.989765e+002,-2.019897e+000
6.999407e+002,-1.703003e+000
7.009050e+002,-1.257446e+000
7.018692e+002,-5.447998e-001
7.028334e+002,3.500061e-001
7.037977e+002,8.769531e-001
7.047619e+002,-8.483887e-002
7.057261e+002,-1.773956e+000
7.066904e+002,-3.028442e+000
7.076546e+002,-3.667084e+000
7.086188e+002,-3.654205e+000
7.095831e+002,-2.871887e+000
7.105473e+002,-1.044312e+000
7.115115e+002,4.158630e-001
7.124758e+002,1.962738e+000
7.134400e+002,2.713715e+000
7.144042e+002,1.711639e+000
7.153685e+002,-9.133606e-001
7.163327e+002,-2.821320e+000
7.172969e+002,-2.032013e+000
7.182612e+002,-1.069855e+000
7.192254e+002,-1.309723e+000
7.201896e+002,-2.266968e+000
7.211539e+002,-2.505432e+000
7.221181e+002,-6.342773e-001
7.230823e+002,2.061218e+000
7.240466e+002,1.808685e+000
7.250108e+002,-5.700989e-001
7.259750e+002,-2.528473e+000
7.269393e+002,-2.692871e+000
7.279035e+002,-1.473938e+000
7.288677e+002,-8.529358e-001
7.298320e+002,-1.015991e+000
7.307962e+002,-8.595886e-001
7.317604e+002,-5.185547e-001
7.327247e+002,3.087463e-001
7.336889e+002,2.373749e+000
7.346531e+002,6.406769e+000
7.356174e+002,8.580200e+000
7.365816e+002,5.682404e+000
7.375458e+002,1.841522e+000
7.385101e+002,2.588501e-001
7.394743e+002,1.647400e+000
7.404385e+002,4.217804e+000
7.414028e+002,5.366882e+000
7.423670e+002,4.898132e+000
7.433312e+002,3.907806e+000
7.442955e+002,2.646851e+000
7.452597e+002,1.738678e+000
7.462239e+002,1.873138e+000
7.471882e+002,3.355499e+000
7.481524e+002,4.185059e+000
7.491166e+002,3.550201e+000
7.500809e+002,2.815125e+000
7.510451e+002,2.870361e+000
7.520093e+002,3.338043e+000
7.529736e+002,2.642670e+000
7.539378e+002,-9.641418e-001
7.549020e+002,-3.793945e+000
7.558663e+002,-3.062164e+000
7.568306e+002,-4.460449e-001
7.577948e+002,1.635956e+000
7.587590e+002,1.703979e+000
7.597233e+002,5.635681e-001
7.606875e+002,1.143829e+000
7.616517e+002,3.325012e+000
7.626160e+002,5.174561e+000
7.635802e+002,6.195068e+000
7.645444e+002,6.718231e+000
7.655087e+002,7.475861e+000
7.664729e+002,9.036865e+000
7.674371e+002,9.305511e+000
7.684014e+002,7.055847e+000
7.693656e+002,4.698181e+000
7.703298e+002,4.010254e+000
7.712941e+002,5.097351e+000
7.722583e+002,6.179749e+000
7.732225e+002,5.788696e+000
7.741868e+002,5.007111e+000
7.751510e+002,4.582092e+000
7.761152e+002,4.532166e+000
7.770795e+002,4.606567e+000
7.780437e+002,4.557617e+000
7.790079e+002,4.429169e+000
7.799722e+002,5.364716e+000
7.809364e+002,7.534271e+000
7.819006e+002,9.064667e+000
7.828649e+002,9.275757e+000
7.838291e+002,8.493286e+000
7.847933e+002,7.412262e+000
7.857576e+002,5.248444e+000
7.867218e+002,3.684479e+000
7.876860e+002,3.745270e+000
7.886503e+002,4.236877e+000
7.896145e+002,4.010986e+000
7.905787e+002,2.817810e+000
7.915430e+002,1.688080e+000
7.925072e+002,1.510559e+000
7.934714e+002,1.905640e+000
7.944357e+002,3.045654e+000
7.953999e+002,4.819275e+000
7.963641e+002,6.482697e+000
7.973284e+002,7.115173e+000
7.982926e+002,6.634186e+000
7.992568e+002,6.641693e+000
8.002211e+002,6.930298e+000
8.011853e+002,7.101410e+000
8.021495e+002,7.593506e+000
8.031138e+002,8.386871e+000
8.040780e+002,8.532623e+000
8.050422e+002,7.001007e+000
8.060065e+002,5.670685e+000
8.069707e+002,4.768921e+000
8.079349e+002,4.332581e+000
8.088992e+002,4.803558e+000
8.098634e+002,6.248169e+000
8.108276e+002,7.701050e+000
8.117919e+002,7.259949e+000
8.127561e+002,5.549316e+000
8.137203e+002,4.458893e+000
8.146846e+002,4.385406e+000
8.156488e+002,4.831726e+000
8.166130e+002,5.119202e+000
8.175773e+002,5.241791e+000
8.185415e+002,4.891602e+000
8.195057e+002,2.741302e+000
8.204700e+002,1.467285e+000
8.214342e+002,2.898376e+000
8.223984e+002,5.897552e+000
8.233627e+002,7.229736e+000
8.243269e+002,4.865173e+000
8.252911e+002,2.735535e+000
8.262554e+002,3.116577e+000
8.272196e+002,4.776703e+000
8.281838e+002,6.788574e+000
8.291481e+002,8.600464e+000
8.301123e+002,9.826447e+000
8.310765e+002,9.445160e+000
8.320408e+002,7.690582e+000
8.330050e+002,7.966919e+000
8.339692e+002,1.117004e+001
8.349335e+002,1.432422e+001
8.358977e+002,1.398984e+001
8.368619e+002,9.591980e+000
8.378262e+002,6.748474e+000
8.387904e+002,6.443176e+000
8.397546e+002,6.484253e+000
8.407189e+002,6.428925e+000
8.416831e+002,6.377838e+000
8.426473e+002,6.645050e+000
8.436116e+002,7.434814e+000
8.445758e+002,8.426666e+000
8.455400e+002,9.088074e+000
8.465043e+002,9.464813e+000
8.474685e+002,9.959778e+000
8.484327e+002,1.074228e+001
8.493970e+002,1.146033e+001
8.503612e+002,1.125641e+001
8.513254e+002,9.795044e+000
8.522897e+002,9.341553e+000
8.532539e+002,1.028958e+001
8.542181e+002,1.135614e+001
8.551824e+002,1.175299e+001
8.561466e+002,1.180563e+001
8.571108e+002,1.291501e+001
8.580751e+002,1.635809e+001
8.590393e+002,1.862985e+001
8.600035e+002,1.827255e+001
8.609678e+002,1.671893e+001
8.619320e+002,1.522894e+001
8.628962e+002,1.439963e+001
8.638605e+002,1.451831e+001
8.648247e+002,1.719391e+001
8.657889e+002,2.074875e+001
8.667532e+002,2.099615e+001
8.677174e+002,1.740579e+001
8.686816e+002,1.337900e+001
8.696459e+002,1.306049e+001
8.706101e+002,1.725180e+001
8.715743e+002,1.986072e+001
8.725386e+002,2.023297e+001
8.735028e+002,2.009875e+001
8.744670e+002,1.918069e+001
8.754313e+002,1.794504e+001
8.763955e+002,1.730936e+001
8.773597e+002,1.766489e+001
8.783240e+002,1.872110e+001
8.792882e+002,2.099631e+001
8.802524e+002,2.316754e+001
8.812167e+002,2.380957e+001
8.821809e+002,2.286316e+001
8.831451e+002,2.144910e+001
8.841094e+002,2.100705e+001
8.850736e+002,2.170959e+001
8.860378e+002,2.326825e+001
8.870021e+002,2.579434e+001
8.879663e+002,2.824878e+001
8.889305e+002,2.996573e+001
8.898948e+002,3.101251e+001
8.908590e+002,3.211230e+001
8.918232e+002,3.446063e+001
8.927875e+002,3.503271e+001
8.937517e+002,3.140176e+001
8.947159e+002,2.727979e+001
8.956802e+002,2.607275e+001
8.966444e+002,2.813263e+001
8.976086e+002,3.034903e+001
8.985729e+002,2.927896e+001
8.995371e+002,2.716666e+001
9.005013e+002,2.780518e+001
9.014656e+002,3.093790e+001
9.024298e+002,3.455557e+001
9.033940e+002,3.709027e+001
9.043583e+002,3.848755e+001
9.053225e+002,3.948068e+001
9.062867e+002,4.054602e+001
9.072510e+002,4.012964e+001
9.082152e+002,3.665390e+001
9.091794e+002,3.310199e+001
9.101437e+002,3.296820e+001
9.111079e+002,3.682834e+001
9.120721e+002,4.006717e+001
9.130364e+002,3.955130e+001
9.140006e+002,3.753326e+001
9.149648e+002,3.410046e+001
9.159291e+002,3.055667e+001
9.168933e+002,2.903220e+001
9.178575e+002,3.090015e+001
9.188218e+002,3.503961e+001
9.197860e+002,3.815662e+001
9.207502e+002,4.024631e+001
9.217145e+002,4.083502e+001
9.226787e+002,3.959430e+001
9.236429e+002,3.743658e+001
9.246072e+002,3.511426e+001
9.255714e+002,3.223630e+001
9.265356e+002,3.053793e+001
9.274999e+002,3.148282e+001
9.284641e+002,3.220648e+001
9.294283e+002,3.157687e+001
9.303926e+002,3.018472e+001
9.313568e+002,2.934988e+001
9.323210e+002,2.979593e+001
9.332853e+002,3.030753e+001
9.342495e+002,2.828619e+001
9.352137e+002,2.509174e+001
9.361780e+002,2.291678e+001
9.371422e+002,2.236450e+001
9.381064e+002,2.286020e+001
9.390707e+002,2.354834e+001
9.400349e+002,2.431924e+001
9.409991e+002,2.479050e+001
9.419634e+002,2.452420e+001
9.429276e+002,2.446826e+001
9.438918e+002,2.509528e+001
9.448561e+002,2.608499e+001
9.458203e+002,2.701001e+001
9.467845e+002,2.789871e+001
9.477488e+002,2.828754e+001
9.487130e+002,2.739276e+001
9.496772e+002,2.609714e+001
9.506415e+002,2.465860e+001
9.516057e+002,2.341336e+001
9.525699e+002,2.312302e+001
9.535342e+002,2.454480e+001
9.544984e+002,2.729401e+001
9.554626e+002,2.855356e+001
9.564269e+002,2.850540e+001
9.573911e+002,2.803510e+001
9.583553e+002,2.668912e+001
9.593196e+002,2.522989e+001
9.602838e+002,2.516705e+001
9.612480e+002,2.695862e+001
9.622123e+002,2.817374e+001
9.631765e+002,2.777316e+001
9.641407e+002,2.712567e+001
9.651050e+002,2.661014e+001
9.660692e+002,2.626801e+001
9.670334e+002,2.623456e+001
9.679977e+002,2.671161e+001
9.689619e+002,2.733145e+001
9.699261e+002,2.657788e+001
9.708904e+002,2.485590e+001
9.718546e+002,2.363113e+001
9.728188e+002,2.308298e+001
9.737831e+002,2.336432e+001
9.747473e+002,2.484854e+001
9.757115e+002,2.777509e+001
9.766758e+002,3.097571e+001
9.776400e+002,3.572147e+001
9.786042e+002,3.947394e+001
9.795685e+002,4.169260e+001
9.805327e+002,4.226428e+001
9.814969e+002,4.095911e+001
9.824612e+002,3.779810e+001
9.834254e+002,3.411917e+001
9.843896e+002,3.031412e+001
9.853539e+002,2.694907e+001
9.863181e+002,2.501740e+001
9.872823e+002,2.424838e+001
9.882466e+002,2.354385e+001
9.892108e+002,2.212573e+001
9.901750e+002,2.042941e+001
9.911393e+002,2.000375e+001
9.921035e+002,2.120755e+001
9.930677e+002,2.224106e+001
9.940320e+002,2.306305e+001
9.949962e+002,2.401376e+001
9.959604e+002,2.542728e+001
9.969247e+002,2.734302e+001
9.978889e+002,2.938544e+001
9.988531e+002,3.101184e+001
9.998174e+002,3.267734e+001
1.000782e+003,3.512930e+001
1.001746e+003,3.791592e+001
1.002710e+003,4.038611e+001
1.003674e+003,4.218594e+001
1.004639e+003,4.329095e+001
1.005603e+003,4.358621e+001
1.006567e+003,4.291422e+001
1.007531e+003,4.289215e+001
1.008495e+003,4.406808e+001
1.009460e+003,4.485770e+001
1.010424e+003,4.418112e+001
1.011388e+003,4.239709e+001
1.012352e+003,4.077884e+001
1.013317e+003,3.941626e+001
1.014281e+003,3.811813e+001
1.015245e+003,3.655411e+001
1.016209e+003,3.506644e+001
1.017174e+003,3.442816e+001
1.018138e+003,3.428387e+001
1.019102e+003,3.307404e+001
1.020066e+003,2.934656e+001
1.021031e+003,2.455057e+001
1.021995e+003,2.295490e+001
1.022959e+003,2.371460e+001
1.023923e+003,2.398294e+001
1.024887e+003,2.285870e+001
1.025852e+003,2.071014e+001
1.026816e+003,1.784268e+001
1.027780e+003,1.392590e+001
1.028744e+003,1.154135e+001
1.029709e+003,1.240793e+001
1.030673e+003,1.294003e+001
1.031637e+003,1.177994e+001
1.032601e+003,9.668182e+000
1.033566e+003,7.685852e+000
1.034530e+003,6.277588e+000
1.035494e+003,5.366943e+000
1.036458e+003,4.524933e+000
1.037422e+003,4.302917e+000
1.038387e+003,6.017151e+000
1.039351e+003,9.438080e+000
1.040315e+003,1.288919e+001
1.041279e+003,1.529056e+001
1.042244e+003,1.670364e+001
1.043208e+003,1.703503e+001
1.044172e+003,1.583810e+001
1.045136e+003,1.377182e+001
1.046101e+003,9.461182e+000
1.047065e+003,5.879791e+000
1.048029e+003,5.421661e+000
1.048993e+003,7.410248e+000
1.049958e+003,8.902802e+000
1.050922e+003,8.238281e+000
1.051886e+003,7.799194e+000
1.052850e+003,1.102557e+001
1.053814e+003,1.539871e+001
1.054779e+003,1.767322e+001
1.055743e+003,1.712238e+001
1.056707e+003,1.485895e+001
1.057671e+003,1.210019e+001
1.058636e+003,8.803894e+000
1.059600e+003,7.215515e+000
1.060564e+003,8.933990e+000
1.061528e+003,1.034982e+001
1.062493e+003,1.088788e+001
1.063457e+003,1.066867e+001
1.064421e+003,9.484070e+000
1.065385e+003,7.448364e+000
1.066349e+003,6.459625e+000
1.067314e+003,8.469025e+000
1.068278e+003,1.067609e+001
1.069242e+003,1.064935e+001
1.070206e+003,9.688080e+000
1.071171e+003,1.020880e+001
1.072135e+003,1.294727e+001
1.073099e+003,1.592307e+001
1.074063e+003,1.583725e+001
1.075028e+003,1.236832e+001
1.075992e+003,1.052304e+001
1.076956e+003,1.098886e+001
1.077920e+003,1.131668e+001
1.078885e+003,1.069843e+001
1.079849e+003,9.559296e+000
1.080813e+003,8.315460e+000
1.081777e+003,6.841400e+000
1.082741e+003,6.414032e+000
1.083706e+003,8.959320e+000
1.084670e+003,1.131168e+001
1.085634e+003,1.160156e+001
1.086598e+003,1.033691e+001
1.087563e+003,8.756561e+000
1.088527e+003,7.664246e+000
1.089491e+003,6.959167e+000
1.090455e+003,6.094330e+000
1.091420e+003,4.907928e+000
1.092384e+003,5.394745e+000
1.093348e+003,8.507935e+000
1.094312e+003,1.128760e+001
1.095276e+003,1.213330e+001
1.096241e+003,1.152621e+001
1.097205e+003,1.039722e+001
1.098169e+003,8.259735e+000
1.099133e+003,6.945190e+000
1.100098e+003,8.012329e+000
1.101062e+003,9.384277e+000
1.102026e+003,9.897217e+000
1.102990e+003,9.609802e+000
1.103955e+003,8.692719e+000
1.104919e+003,7.271393e+000
1.105883e+003,6.374023e+000
1.106847e+003,8.906403e+000
1.107812e+003,1.482010e+001
1.108776e+003,1.722983e+001
1.109740e+003,1.441592e+001
1.110704e+003,1.107986e+001
1.111668e+003,1.113034e+001
1.112633e+003,1.374451e+001
1.113597e+003,1.475958e+001
1.114561e+003,1.303406e+001
1.115525e+003,1.112756e+001
1.116490e+003,8.798828e+000
1.117454e+003,7.473267e+000
1.118418e+003,9.100891e+000
1.119382e+003,1.266223e+001
1.120347e+003,1.525595e+001
1.121311e+003,1.498734e+001
1.122275e+003,1.329153e+001
1.123239e+003,1.363068e+001
1.124203e+003,1.601324e+001
1.125168e+003,1.752203e+001
1.126132e+003,1.768259e+001
1.127096e+003,1.780002e+001
1.128060e+003,1.896027e+001
1.129025e+003,2.081894e+001
1.129989e+003,2.190851e+001
1.130953e+003,2.159521e+001
1.131917e+003,2.157678e+001
1.132882e+003,2.189780e+001
1.133846e+003,2.310077e+001
1.134810e+003,2.650394e+001
1.135774e+003,3.098718e+001
1.136739e+003,3.380270e+001
1.137703e+003,3.344067e+001
1.138667e+003,3.210178e+001
1.139631e+003,3.391620e+001
1.140595e+003,3.847598e+001
1.141560e+003,4.166287e+001
1.142524e+003,4.283908e+001
1.143488e+003,4.478262e+001
1.144452e+003,4.994165e+001
1.145417e+003,5.732779e+001
1.146381e+003,6.286551e+001
1.147345e+003,6.466800e+001
1.148309e+003,6.941241e+001
1.149274e+003,8.102094e+001
1.150238e+003,9.354059e+001
1.151202e+003,1.041405e+002
1.152166e+003,1.134960e+002
1.153130e+003,1.238671e+002
1.154095e+003,1.359648e+002
1.155059e+003,1.470793e+002
1.156023e+003,1.536108e+002
1.156987e+003,1.556671e+002
1.157952e+003,1.561461e+002
1.158916e+003,1.554913e+002
1.159880e+003,1.529710e+002
1.160844e+003,1.474699e+002
1.161809e+003,1.394219e+002
1.162773e+003,1.301048e+002
1.163737e+003,1.192337e+002
1.164701e+003,1.085073e+002
1.165666e+003,9.790768e+001
1.166630e+003,8.829019e+001
1.167594e+003,8.033853e+001
1.168558e+003,7.335031e+001
1.169522e+003,6.572403e+001
1.170487e+003,5.742773e+001
1.171451e+003,5.143015e+001
1.172415e+003,5.153445e+001
1.173379e+003,5.609198e+001
1.174344e+003,5.591940e+001
1.175308e+003,5.080899e+001
1.176272e+003,4.712750e+001
1.177236e+003,4.801755e+001
1.178201e+003,5.059488e+001
1.179165e+003,5.109717e+001
1.180129e+003,4.938828e+001
1.181093e+003,4.741409e+001
1.182057e+003,4.600461e+001
1.183022e+003,4.380438e+001
1.183986e+003,3.849261e+001
1.184950e+003,3.352448e+001
1.185914e+003,3.297412e+001
1.186879e+003,3.652420e+001
1.187843e+003,4.032840e+001
1.188807e+003,4.120020e+001
1.189771e+003,4.012808e+001
1.190736e+003,4.028122e+001
1.191700e+003,4.179852e+001
1.192664e+003,4.300287e+001
1.193628e+003,4.426184e+001
1.194593e+003,4.473349e+001
1.195557e+003,4.341858e+001
1.196521e+003,4.075177e+001
1.197485e+003,3.840350e+001
1.198449e+003,3.683575e+001
1.199414e+003,3.500989e+001
1.200378e+003,3.146631e+001
1.201342e+003,2.843024e+001
1.202306e+003,2.766824e+001
1.203271e+003,2.842044e+001
1.204235e+003,2.897485e+001
1.205199e+003,2.851013e+001
1.206163e+003,2.767322e+001
1.207128e+003,2.755353e+001
1.208092e+003,2.823477e+001
1.209056e+003,2.783908e+001
1.210020e+003,2.603882e+001
1.210984e+003,2.408215e+001
1.211949e+003,2.242990e+001
1.212913e+003,2.066742e+001
1.213877e+003,1.833936e+001
1.214841e+003,1.545395e+001
1.215806e+003,1.211319e+001
1.216770e+003,7.508514e+000
1.217734e+003,3.767029e+000
1.218698e+003,2.787933e+000
1.219663e+003,2.930664e+000
1.220627e+003,2.375214e+000
1.221591e+003,7.115784e-001
1.222555e+003,-1.730896e+000
1.223520e+003,-4.679779e+000
1.224484e+003,-7.710205e+000
1.225448e+003,-9.086548e+000
1.226412e+003,-7.999084e+000
1.227376e+003,-6.970398e+000
1.228341e+003,-6.004730e+000
1.229305e+003,-5.192780e+000
1.230269e+003,-4.380463e+000
1.231233e+003,-3.832214e+000
1.232198e+003,-4.274719e+000
1.233162e+003,-5.902649e+000
1.234126e+003,-7.080841e+000
1.235090e+003,-6.239594e+000
1.236055e+003,-4.947296e+000
1.237019e+003,-5.091492e+000
1.237983e+003,-6.209808e+000
1.238947e+003,-6.730621e+000
1.239911e+003,-5.938385e+000
1.240876e+003,-4.792297e+000
1.241840e+003,-4.856781e+000
1.242804e+003,-6.215088e+000
1.243768e+003,-7.068237e+000
1.244733e+003,-7.648682e+000
1.245697e+003,-7.270538e+000
1.246661e+003,-5.262177e+000
1.247625e+003,-3.102417e+000
1.248590e+003,-1.614349e+000
1.249554e+003,-7.864075e-001
1.250518e+003,-4.640808e-001
1.251482e+003,-6.845703e-001
1.252447e+003,-1.213898e+000
1.253411e+003,-1.887756e+000
1.254375e+003,-2.376282e+000
1.255339e+003,-1.878387e+000
1.256303e+003,-3.694458e-001
1.257268e+003,7.106934e-001
1.258232e+003,1.354065e-001
1.259196e+003,-1.131561e+000
1.260160e+003,-5.190125e-001
1.261125e+003,2.673920e+000
1.262089e+003,4.157837e+000
1.263053e+003,1.034454e+000
1.264017e+003,-1.046539e+000
1.264982e+003,-3.598328e-001
1.265946e+003,1.745941e+000
1.266910e+003,4.509521e+000
1.267874e+003,7.364746e+000
1.268839e+003,9.743652e+000
1.269803e+003,1.128339e+001
1.270767e+003,1.166449e+001
1.271731e+003,9.793060e+000
1.272695e+003,5.869965e+000
1.273660e+003,3.813599e+000
1.274624e+003,4.113495e+000
1.275588e+003,4.599823e+000
1.276552e+003,4.392426e+000
1.277517e+003,3.750793e+000
1.278481e+003,2.752441e+000
1.279445e+003,1.272095e+000
1.280409e+003,7.001648e-001
1.281374e+003,3.027344e+000
1.282338e+003,4.255249e+000
1.283302e+003,1.233032e+000
1.284266e+003,-3.265533e+000
1.285230e+003,-6.266083e+000
1.286195e+003,-7.237427e+000
1.287159e+003,-7.203705e+000
1.288123e+003,-6.935211e+000
1.289087e+003,-6.412140e+000
1.290052e+003,-5.815002e+000
1.291016e+003,-5.084839e+000
1.291980e+003,-4.966675e+000
1.292944e+003,-6.249878e+000
1.293909e+003,-7.318146e+000
1.294873e+003,-7.421173e+000
1.295837e+003,-6.813416e+000
1.296801e+003,-5.737488e+000
1.297766e+003,-4.299286e+000
1.298730e+003,-2.952698e+000
1.299694e+003,-1.782196e+000
1.300658e+003,-1.329071e+000
1.301622e+003,-2.912598e+000
1.302587e+003,-5.144257e+000
1.303551e+003,-5.619537e+000
1.304515e+003,-3.997070e+000
1.305479e+003,-2.027405e+000
1.306444e+003,-1.146790e+000
1.307408e+003,-1.144165e+000
1.308372e+003,-1.097778e+000
1.309336e+003,-8.647461e-001
1.310301e+003,-1.080658e+000
1.311265e+003,-2.196106e+000
1.312229e+003,-3.072479e+000
1.313193e+003,-2.972778e+000
1.314157e+003,-2.799652e+000
1.315122e+003,-3.971252e+000
1.316086e+003,-6.245117e+000
1.317050e+003,-7.654114e+000
1.318014e+003,-6.782959e+000
1.318979e+003,-4.871887e+000
1.319943e+003,-4.240143e+000
1.320907e+003,-4.680328e+000
1.321871e+003,-4.718658e+000
1.322836e+003,-4.436371e+000
1.323800e+003,-3.917725e+000
1.324764e+003,-2.978333e+000
1.325728e+003,-1.891052e+000
1.326693e+003,-1.154663e+000
1.327657e+003,-8.606262e-001
1.328621e+003,-9.144897e-001
1.329585e+003,-1.079742e+000
1.330549e+003,-1.176605e+000
1.331514e+003,-1.822144e+000
1.332478e+003,-2.422455e+000
1.333442e+003,-1.991730e+000
1.334406e+003,-7.457275e-001
1.335371e+003,3.039551e-002
1.336335e+003,-4.046326e-001
1.337299e+003,-9.675598e-001
1.338263e+003,5.497437e-001
1.339228e+003,4.682159e+000
1.340192e+003,5.845917e+000
1.341156e+003,1.504333e+000
1.342120e+003,-1.866425e+000
1.343084e+003,-3.008850e+000
1.344049e+003,-3.418457e+000
1.345013e+003,-4.340607e+000
1.345977e+003,-5.414490e+000
1.346941e+003,-5.294556e+000
1.347906e+003,-3.452576e+000
1.348870e+003,-1.225006e+000
1.349834e+003,6.086121e-001
1.350798e+003,1.492371e+000
1.351763e+003,1.869812e-001
1.352727e+003,-2.806854e+000
1.353691e+003,-4.713806e+000
1.354655e+003,-4.363708e+000
1.355620e+003,-3.157379e+000
1.356584e+003,-2.804657e+000
1.357548e+003,-3.100861e+000
1.358512e+003,-2.371185e+000
1.359476e+003,1.928406e-001
1.360441e+003,1.301453e+000
1.361405e+003,-9.284973e-001
1.362369e+003,-3.467957e+000
1.363333e+003,-4.849426e+000
1.364298e+003,-5.598541e+000
1.365262e+003,-6.995819e+000
1.366226e+003,-9.039459e+000
1.367190e+003,-1.004160e+001
1.368155e+003,-8.470642e+000
1.369119e+003,-5.134430e+000
1.370083e+003,-2.489166e+000
1.371047e+003,-4.199829e-001
1.372011e+003,4.857483e-001
1.372976e+003,-8.218994e-001
1.373940e+003,-2.146515e+000
1.374904e+003,-2.415680e+000
1.375868e+003,-2.315826e+000
1.376833e+003,-2.809387e+000
1.377797e+003,-3.945129e+000
1.378761e+003,-5.164429e+000
1.379725e+003,-6.311646e+000
1.380690e+003,-7.094696e+000
1.381654e+003,-7.242920e+000
1.382618e+003,-6.734497e+000
1.383582e+003,-5.120148e+000
1.384547e+003,-2.626465e+000
1.385511e+003,-7.258911e-001
1.386475e+003,-2.460632e-001
1.387439e+003,-6.426697e-001
1.388403e+003,-1.188507e+000
1.389368e+003,-1.896698e+000
1.390332e+003,-2.556976e+000
1.391296e+003,-3.511292e+000
1.392260e+003,-3.472412e+000
1.393225e+003,-1.076691e+000
1.394189e+003,1.058014e+000
1.395153e+003,8.711853e-001
1.396117e+003,-3.095398e-001
1.397082e+003,9.338379e-002
1.398046e+003,2.454193e+000
1.399010e+003,4.303070e+000
1.399974e+003,3.230804e+000
1.400938e+003,3.680420e-001
1.401903e+003,-1.545105e-001
1.402867e+003,2.912262e+000
1.403831e+003,4.583984e+000
1.404795e+003,3.680634e+000
1.405760e+003,2.699646e+000
1.406724e+003,1.974365e+000
1.407688e+003,1.509338e+000
1.408652e+003,1.971924e+000
1.409617e+003,3.201141e+000
1.410581e+003,3.548828e+000
1.411545e+003,2.222900e+000
1.412509e+003,5.951538e-001
1.413474e+003,-3.713684e-001
1.414438e+003,-7.656555e-001
1.415402e+003,1.040649e-002
1.416366e+003,1.734161e+000
1.417330e+003,2.366302e+000
1.418295e+003,9.395752e-001
1.419259e+003,-1.149963e+000
1.420223e+003,-2.786804e+000
1.421187e+003,-3.910950e+000
1.422152e+003,-3.379517e+000
1.423116e+003,-4.412231e-001
1.424080e+003,2.268097e+000
1.425044e+003,4.669464e+000
1.426009e+003,5.656158e+000
1.426973e+003,3.191498e+000
1.427937e+003,-4.620361e-002
1.428901e+003,-5.986938e-001
1.429865e+003,1.604126e+000
1.430830e+003,4.266052e+000
1.431794e+003,5.762634e+000
1.432758e+003,5.973389e+000
1.433722e+003,4.668396e+000
1.434687e+003,1.784271e+000
1.435651e+003,8.866272e-001
1.436615e+003,2.805237e+000
1.437579e+003,4.518066e+000
1.438544e+003,5.820374e+000
1.439508e+003,6.915436e+000
1.440472e+003,7.957031e+000
1.441436e+003,9.072052e+000
1.442401e+003,1.059381e+001
1.443365e+003,1.242874e+001
1.444329e+003,1.338623e+001
1.445293e+003,1.249048e+001
1.446257e+003,1.067169e+001
1.447222e+003,9.519867e+000
1.448186e+003,8.901886e+000
1.449150e+003,8.256226e+000
1.450114e+003,7.417236e+000
1.451079e+003,6.837341e+000
1.452043e+003,6.896149e+000
1.453007e+003,7.428497e+000
1.453971e+003,8.588348e+000
1.454936e+003,1.005307e+001
1.455900e+003,9.583954e+000
1.456864e+003,6.021637e+000
1.457828e+003,3.230652e+000
1.458792e+003,4.281616e+000
1.459757e+003,6.097504e+000
1.460721e+003,5.953430e+000
1.461685e+003,4.699493e+000
1.462649e+003,4.493958e+000
1.463614e+003,5.856659e+000
1.464578e+003,7.212280e+000
1.465542e+003,7.087616e+000
1.466506e+003,5.905243e+000
1.467471e+003,5.088196e+000
1.468435e+003,4.919250e+000
1.469399e+003,4.476349e+000
1.470363e+003,2.649261e+000
1.471328e+003,1.766937e+000
1.472292e+003,2.517426e+000
1.473256e+003,3.897705e+000
1.474220e+003,5.971924e+000
1.475184e+003,8.157776e+000
1.476149e+003,9.295288e+000
1.477113e+003,9.048370e+000
1.478077e+003,8.293304e+000
1.479041e+003,7.955688e+000
1.480006e+003,8.241211e+000
1.480970e+003,9.644287e+000
1.481934e+003,1.259180e+001
1.482898e+003,1.411920e+001
1.483863e+003,1.350488e+001
1.484827e+003,1.258954e+001
1.485791e+003,1.133401e+001
1.486755e+003,1.065900e+001
1.487719e+003,1.170602e+001
1.488684e+003,1.384076e+001
1.489648e+003,1.529407e+001
1.490612e+003,1.560355e+001
1.491576e+003,1.623502e+001
1.492541e+003,1.842514e+001
1.493505e+003,2.146994e+001
1.494469e+003,2.417493e+001
1.495433e+003,2.634326e+001
1.496398e+003,2.734903e+001
1.497362e+003,2.700186e+001
1.498326e+003,2.664948e+001
1.499290e+003,2.632782e+001
1.500255e+003,2.680682e+001
1.501219e+003,2.944006e+001
1.502183e+003,3.387488e+001
1.503147e+003,3.807538e+001
1.504111e+003,4.140152e+001
1.505076e+003,4.555127e+001
1.506040e+003,5.244830e+001
1.507004e+003,5.967813e+001
1.507968e+003,6.397769e+001
1.508933e+003,6.705469e+001
1.509897e+003,7.243146e+001
1.510861e+003,8.098444e+001
1.511825e+003,9.144418e+001
1.512790e+003,1.030586e+002
1.513754e+003,1.153285e+002
1.514718e+003,1.276733e+002
1.515682e+003,1.399349e+002
1.516646e+003,1.516226e+002
1.517611e+003,1.624938e+002
1.518575e+003,1.736859e+002
1.519539e+003,1.870019e+002
1.520503e+003,1.995330e+002
1.521468e+003,2.110959e+002
1.522432e+003,2.200924e+002
1.523396e+003,2.239689e+002
1.524360e+003,2.229713e+002
1.525325e+003,2.202063e+002
1.526289e+003,2.177744e+002
1.527253e+003,2.143983e+002
1.528217e+003,2.076207e+002
1.529182e+003,1.975477e+002
1.530146e+003,1.862275e+002
1.531110e+003,1.721886e+002
1.532074e+003,1.593399e+002
1.533039e+003,1.503032e+002
1.534003e+003,1.389140e+002
1.534967e+003,1.207458e+002
1.535931e+003,1.006438e+002
1.536896e+003,8.346304e+001
1.537860e+003,6.999030e+001
1.538824e+003,5.882401e+001
1.539788e+003,4.914355e+001
1.540752e+003,4.130701e+001
1.541717e+003,3.594409e+001
1.542681e+003,3.282782e+001
1.543645e+003,2.983652e+001
1.544609e+003,2.693790e+001
1.545573e+003,2.474240e+001
1.546538e+003,2.366275e+001
1.547502e+003,2.229477e+001
1.548466e+003,2.037793e+001
1.549430e+003,1.811127e+001
1.550395e+003,1.442142e+001
1.551359e+003,1.051276e+001
1.552323e+003,1.060852e+001
1.553287e+003,1.583258e+001
1.554252e+003,2.034341e+001
1.555216e+003,1.875589e+001
1.556180e+003,1.366132e+001
1.557144e+003,1.099261e+001
1.558109e+003,1.092511e+001
1.559073e+003,1.074011e+001
1.560037e+003,9.971283e+000
1.561001e+003,9.496185e+000
1.561966e+003,1.011060e+001
1.562930e+003,1.105545e+001
1.563894e+003,1.159012e+001
1.564858e+003,1.172372e+001
1.565823e+003,1.155884e+001
1.566787e+003,1.113742e+001
1.567751e+003,1.098380e+001
1.568715e+003,1.157068e+001
1.569679e+003,1.218808e+001
1.570644e+003,1.167590e+001
1.571608e+003,1.039960e+001
1.572572e+003,9.642181e+000
1.573536e+003,9.532990e+000
1.574500e+003,9.940216e+000
1.575465e+003,1.092508e+001
1.576429e+003,1.213705e+001
1.577393e+003,1.340594e+001
1.578357e+003,1.455420e+001
1.579322e+003,1.533841e+001
1.580286e+003,1.579184e+001
1.581250e+003,1.597882e+001
1.582214e+003,1.578400e+001
1.583179e+003,1.582813e+001
1.584143e+003,1.672510e+001
1.585107e+003,1.782199e+001
1.586071e+003,1.886902e+001
1.587036e+003,1.967163e+001
1.588000e+003,1.884705e+001
1.588964e+003,1.588882e+001
1.589928e+003,1.287817e+001
1.590893e+003,1.071777e+001
1.591857e+003,9.791534e+000
1.592821e+003,1.111438e+001
1.593785e+003,1.435519e+001
1.594750e+003,1.767307e+001
1.595714e+003,2.097849e+001
1.596678e+003,2.300421e+001
1.597642e+003,2.262546e+001
1.598606e+003,2.174911e+001
1.599571e+003,2.203665e+001
1.600535e+003,2.278009e+001
1.601499e+003,2.302893e+001
1.602463e+003,2.273489e+001
1.603427e+003,2.226114e+001
1.604392e+003,2.171432e+001
1.605356e+003,2.142648e+001
1.606320e+003,2.181836e+001
1.607284e+003,2.271133e+001
1.608249e+003,2.377881e+001
1.609213e+003,2.504718e+001
1.610177e+003,2.551569e+001
1.611141e+003,2.504553e+001
1.612106e+003,2.371161e+001
1.613070e+003,2.010568e+001
1.614034e+003,1.695377e+001
1.614998e+003,1.705280e+001
1.615963e+003,1.867328e+001
1.616927e+003,1.833722e+001
1.617891e+003,1.582666e+001
1.618855e+003,1.444717e+001
1.619820e+003,1.634885e+001
1.620784e+003,1.885825e+001
1.621748e+003,1.781790e+001
1.622712e+003,1.421423e+001
1.623677e+003,1.329752e+001
1.624641e+003,1.560712e+001
1.625605e+003,1.781134e+001
1.626569e+003,1.939301e+001
1.627533e+003,1.972702e+001
1.628498e+003,1.719113e+001
1.629462e+003,1.482397e+001
1.630426e+003,1.591449e+001
1.631390e+003,1.899536e+001
1.632354e+003,2.052661e+001
1.633319e+003,1.970975e+001
1.634283e+003,1.849280e+001
1.635247e+003,1.827908e+001
1.636211e+003,1.851511e+001
1.637176e+003,1.824579e+001
1.638140e+003,1.757620e+001
1.639104e+003,1.721124e+001
1.640068e+003,1.724432e+001
1.641033e+003,1.698404e+001
1.641997e+003,1.555359e+001
1.642961e+003,1.497360e+001
1.643925e+003,1.702844e+001
1.644890e+003,1.966537e+001
1.645854e+003,2.105389e+001
1.646818e+003,2.118497e+001
1.647782e+003,2.029388e+001
1.648747e+003,1.859012e+001
1.649711e+003,1.752701e+001
1.650675e+003,1.862479e+001
1.651639e+003,2.067651e+001
1.652604e+003,2.084415e+001
1.653568e+003,1.913766e+001
1.654532e+003,1.779074e+001
1.655496e+003,1.668140e+001
1.656460e+003,1.688629e+001
1.657425e+003,2.069684e+001
1.658389e+003,2.329550e+001
1.659353e+003,2.079861e+001
1.660317e+003,1.683020e+001
1.661281e+003,1.509241e+001
1.662246e+003,1.538083e+001
1.663210e+003,1.621808e+001
1.664174e+003,1.709595e+001
1.665138e+003,1.740045e+001
1.666103e+003,1.632135e+001
1.667067e+003,1.463638e+001
1.668031e+003,1.399774e+001
1.668995e+003,1.438672e+001
1.669960e+003,1.526166e+001
1.670924e+003,1.702802e+001
1.671888e+003,1.750259e+001
1.672852e+003,1.520212e+001
1.673817e+003,1.244583e+001
1.674781e+003,1.000269e+001
1.675745e+003,8.383911e+000
1.676709e+003,8.737823e+000
1.677674e+003,1.039606e+001
1.678638e+003,1.110446e+001
1.679602e+003,1.017920e+001
1.680566e+003,9.532898e+000
1.681531e+003,1.118497e+001
1.682495e+003,1.343521e+001
1.683459e+003,1.257520e+001
1.684423e+003,9.255768e+000
1.685387e+003,8.555847e+000
1.686352e+003,1.138281e+001
1.687316e+003,1.331750e+001
1.688280e+003,1.257220e+001
1.689244e+003,1.133447e+001
1.690208e+003,1.138870e+001
1.691173e+003,1.160052e+001
1.692137e+003,1.034155e+001
1.693101e+003,8.304260e+000
1.694065e+003,7.756592e+000
1.695030e+003,9.195007e+000
1.695994e+003,1.036618e+001
1.696958e+003,9.941437e+000
1.697922e+003,8.613434e+000
1.698887e+003,6.686462e+000
1.699851e+003,4.679779e+000
1.700815e+003,4.424347e+000
1.701779e+003,5.957916e+000
1.702744e+003,6.682373e+000
1.703708e+003,5.659363e+000
1.704672e+003,4.808411e+000
1.705636e+003,5.577850e+000
1.706601e+003,6.855011e+000
1.707565e+003,7.205200e+000
1.708529e+003,6.944489e+000
1.709493e+003,6.676697e+000
1.710458e+003,6.417969e+000
1.711422e+003,6.449341e+000
1.712386e+003,7.348206e+000
1.713350e+003,8.228424e+000
1.714314e+003,8.480286e+000
1.715279e+003,7.964020e+000
1.716243e+003,6.096313e+000
1.717207e+003,3.294678e+000
1.718171e+003,1.396881e+000
1.719135e+003,9.375000e-001
1.720100e+003,1.255127e+000
1.721064e+003,1.988647e+000
1.722028e+003,2.950195e+000
1.722992e+003,4.386017e+000
1.723957e+003,6.013977e+000
1.724921e+003,5.002625e+000
1.725885e+003,3.531189e-001
1.726849e+003,-1.925842e+000
1.727814e+003,1.230774e+000
1.728778e+003,4.478394e+000
1.729742e+003,5.837311e+000
1.730706e+003,5.902740e+000
1.731671e+003,4.560211e+000
1.732635e+003,2.425720e+000
1.733599e+003,8.233337e-001
1.734563e+003,9.942627e-002
1.735528e+003,-1.870117e-001
1.736492e+003,-3.352356e-001
1.737456e+003,-4.760132e-001
1.738420e+003,-7.777405e-001
1.739385e+003,-1.244934e+000
1.740349e+003,-1.522491e+000
1.741313e+003,-1.492523e+000
1.742277e+003,-1.390045e+000
1.743241e+003,-9.611511e-001
1.744206e+003,-6.542358e-001
1.745170e+003,-6.599426e-001
1.746134e+003,-7.802124e-001
1.747098e+003,-1.303192e+000
1.748063e+003,-1.609650e+000
1.749027e+003,-5.152283e-001
1.749991e+003,1.373047e+000
1.750955e+003,2.136658e+000
1.751919e+003,1.250824e+000
1.752884e+003,1.425476e-001
1.753848e+003,-1.074219e-002
1.754812e+003,4.682617e-001
1.755776e+003,1.144501e+000
1.756741e+003,2.092621e+000
1.757705e+003,1.919464e+000
1.758669e+003,-2.513428e-001
1.759633e+003,-1.239838e+000
1.760598e+003,4.551697e-001
1.761562e+003,1.458069e+000
1.762526e+003,5.963135e-002
1.763490e+003,-1.398041e+000
1.764455e+003,-1.090027e+000
1.765419e+003,2.182312e-001
1.766383e+003,1.227844e+000
1.767347e+003,1.651154e+000
1.768312e+003,1.852814e+000
1.769276e+003,1.977844e+000
1.770240e+003,1.485321e+000
1.771204e+003,-5.032349e-001
1.772168e+003,-2.827423e+000
1.773133e+003,-2.774170e+000
1.774097e+003,-6.236877e-001
1.775061e+003,8.522949e-001
1.776025e+003,1.224701e+000
1.776990e+003,1.175903e+000
1.777954e+003,9.544067e-001
1.778918e+003,7.365417e-001
1.779882e+003,5.951233e-001
1.780846e+003,3.278809e-001
1.781811e+003,-4.905701e-001
1.782775e+003,-1.502838e+000
1.783739e+003,-1.364273e+000
1.784703e+003,3.099976e-001
1.785668e+003,1.283783e+000
1.786632e+003,-2.315063e-001
1.787596e+003,-1.864319e+000
1.788560e+003,-1.304230e+000
1.789525e+003,1.009216e-001
1.790489e+003,1.485596e-001
1.791453e+003,-8.567810e-001
1.792417e+003,-1.249634e+000
1.793382e+003,-7.360382e-001
1.794346e+003,-5.870972e-001
1.795310e+003,-1.561798e+000
1.796274e+003,-2.177582e+000
1.797239e+003,-3.436279e-001
1.798203e+003,2.776917e+000
1.799167e+003,2.688904e+000
1.800131e+003,-1.746964e+000
1.801095e+003,-3.457535e+000
1.802060e+003,4.384460e-001
1.803024e+003,2.671478e+000
1.803988e+003,1.219055e+000
1.804952e+003,-5.652466e-001
1.805917e+003,-1.726166e+000
1.806881e+003,-1.933533e+000
1.807845e+003,2.681885e-001
1.808809e+003,3.211365e+000
1.809773e+003,3.119263e+000
1.810738e+003,-2.423706e-001
1.811702e+003,-3.148697e+000
1.812666e+003,-3.280731e+000
1.813630e+003,-1.960938e+000
1.814595e+003,-7.991638e-001
1.815559e+003,7.701111e-002
1.816523e+003,2.421112e-001
1.817487e+003,-3.082428e-001
1.818452e+003,-1.250870e+000
1.819416e+003,-2.752045e+000
1.820380e+003,-3.790939e+000
1.821344e+003,-4.322845e+000
1.822309e+003,-4.244034e+000
1.823273e+003,-3.347458e+000
1.824237e+003,-1.788071e+000
1.825201e+003,1.008240e+000
1.826166e+003,4.096161e+000
1.827130e+003,5.074463e+000
1.828094e+003,3.521179e+000
1.829058e+003,1.077576e+000
1.830022e+003,-2.083191e+000
1.830987e+003,-4.402039e+000
1.831951e+003,-4.045700e+000
1.832915e+003,-2.454605e+000
1.833879e+003,-1.782288e+000
1.834844e+003,-1.717667e+000
1.835808e+003,-6.893158e-001
1.836772e+003,1.367447e+000
1.837736e+003,2.327408e+000
1.838700e+003,1.152145e+000
1.839665e+003,9.971619e-002
1.840629e+003,1.522842e+000
1.841593e+003,3.798630e+000
1.842557e+003,3.202637e+000
1.843522e+003,-2.167664e-001
1.844486e+003,-2.278854e+000
1.845450e+003,-2.373077e+000
1.846414e+003,-1.904510e+000
1.847379e+003,-7.211304e-002
1.848343e+003,8.037872e-001
1.849307e+003,-1.369690e+000
1.850271e+003,-3.110901e+000
1.851236e+003,-7.587891e-001
1.852200e+003,2.989624e+000
1.853164e+003,3.871185e+000
1.854128e+003,2.029999e+000
1.855093e+003,3.476868e-001
1.856057e+003,9.185791e-002
1.857021e+003,6.587067e-001
1.857985e+003,1.604782e+000
1.858949e+003,2.375870e+000
1.859914e+003,1.685593e+000
1.860878e+003,-1.921082e-002
1.861842e+003,-9.341431e-002
1.862806e+003,1.490524e+000
1.863771e+003,1.956573e+000
1.864735e+003,5.391235e-001
1.865699e+003,-8.226013e-001
1.866663e+003,-1.136856e+000
1.867627e+003,-1.229202e+000
1.868592e+003,-2.152908e+000
1.869556e+003,-3.359741e+000
1.870520e+003,-3.422760e+000
1.871484e+003,-2.566864e+000
1.872449e+003,-2.357071e+000
1.873413e+003,-3.029709e+000
1.874377e+003,-2.647354e+000
1.875341e+003,1.307526e-001
1.876306e+003,2.484253e+000
1.877270e+003,2.301239e+000
1.878234e+003,1.457062e+000
1.879198e+003,2.366150e+000
1.880163e+003,3.902298e+000
1.881127e+003,3.496048e+000
1.882091e+003,1.254074e+000
1.883055e+003,-8.565521e-001
1.884020e+003,-1.929489e+000
1.884984e+003,-2.011688e+000
1.885948e+003,-1.105118e+000
1.886912e+003,2.376709e-001
1.887876e+003,8.661804e-001
1.888841e+003,8.896637e-001
1.889805e+003,1.506210e+000
1.890769e+003,2.834717e+000
1.891733e+003,4.240723e+000
1.892698e+003,6.124939e+000
1.893662e+003,6.650085e+000
1.894626e+003,3.926666e+000
1.895590e+003,1.414658e+000
1.896554e+003,2.130447e+000
1.897519e+003,4.028564e+000
1.898483e+003,4.389679e+000
1.899447e+003,3.606140e+000
1.900411e+003,4.033585e+000
1.901376e+003,6.223099e+000
1.902340e+003,7.241318e+000
1.903304e+003,5.225967e+000
1.904268e+003,2.933228e+000
1.905233e+003,2.047958e+000
1.906197e+003,1.777924e+000
1.907161e+003,1.231537e+000
1.908125e+003,7.812042e-001
1.909090e+003,1.326218e+000
1.910054e+003,2.573166e+000
1.911018e+003,3.311096e+000
1.911982e+003,3.220566e+000
1.912947e+003,2.868118e+000
1.913911e+003,2.632690e+000
1.914875e+003,2.967880e+000
1.915839e+003,4.711670e+000
1.916803e+003,7.252991e+000
1.917768e+003,7.791626e+000
1.918732e+003,6.043213e+000
1.919696e+003,4.683044e+000
1.920660e+003,3.760376e+000
1.921625e+003,3.430725e+000
1.922589e+003,3.802475e+000
1.923553e+003,4.482391e+000
1.924517e+003,5.947342e+000
1.925481e+003,7.051559e+000
1.926446e+003,6.461914e+000
1.927410e+003,4.919098e+000
1.928374e+003,3.695740e+000
1.929338e+003,2.864761e+000
1.930303e+003,2.505325e+000
1.931267e+003,2.904510e+000
1.932231e+003,3.511017e+000
1.933195e+003,3.701355e+000
1.934160e+003,4.195251e+000
1.935124e+003,6.218567e+000
1.936088e+003,8.208130e+000
1.937052e+003,7.968506e+000
1.938017e+003,6.435699e+000
1.938981e+003,5.808716e+000
1.939945e+003,6.351349e+000
1.940909e+003,7.087036e+000
1.941874e+003,7.463547e+000
1.942838e+003,7.168350e+000
1.943802e+003,5.948959e+000
1.944766e+003,4.609116e+000
1.945730e+003,4.618851e+000
1.946695e+003,5.702286e+000
1.947659e+003,6.286957e+000
1.948623e+003,6.321625e+000
1.949587e+003,6.043274e+000
1.950552e+003,5.426346e+000
1.951516e+003,4.948547e+000
1.952480e+003,4.673874e+000
1.953444e+003,4.787796e+000
1.954408e+003,5.793900e+000
1.955373e+003,6.741211e+000
1.956337e+003,5.982452e+000
1.957301e+003,4.296661e+000
1.958265e+003,4.156784e+000
1.959230e+003,5.844803e+000
1.960194e+003,7.258789e+000
1.961158e+003,7.919769e+000
1.962122e+003,8.174713e+000
1.963087e+003,7.488205e+000
1.964051e+003,7.233109e+000
1.965015e+003,9.318253e+000
1.965979e+003,1.145219e+001
1.966944e+003,1.080418e+001
1.967908e+003,8.410599e+000
1.968872e+003,6.418655e+000
1.969836e+003,5.349792e+000
1.970801e+003,4.839859e+000
1.971765e+003,4.724579e+000
1.972729e+003,5.095932e+000
1.973693e+003,6.135101e+000
1.974657e+003,7.346710e+000
1.975622e+003,7.799805e+000
1.976586e+003,7.827423e+000
1.977550e+003,8.799866e+000
1.978514e+003,1.044739e+001
1.979479e+003,1.066238e+001
1.980443e+003,9.209869e+000
1.981407e+003,8.081238e+000
1.982371e+003,8.057709e+000
1.983335e+003,8.565918e+000
1.984300e+003,9.138992e+000
1.985264e+003,9.825241e+000
1.986228e+003,1.091866e+001
1.987192e+003,1.210487e+001
1.988157e+003,1.166963e+001
1.989121e+003,9.239746e+000
1.990085e+003,7.321182e+000
1.991049e+003,5.571808e+000
1.992014e+003,5.174606e+000
1.992978e+003,7.443985e+000
1.993942e+003,9.355286e+000
1.994906e+003,9.848724e+000
1.995871e+003,9.673462e+000
1.996835e+003,9.057007e+000
1.997799e+003,8.385315e+000
1.998763e+003,7.835602e+000
1.999728e+003,7.577789e+000
