5.003444e+002,2.940021e+001
5.013087e+002,2.694452e+001
5.022729e+002,2.629169e+001
5.032371e+002,2.733636e+001
5.042014e+002,2.782544e+001
5.051656e+002,2.787158e+001
5.061298e+002,2.703955e+001
5.070941e+002,2.459210e+001
5.080583e+002,1.956201e+001
5.090225e+002,1.713257e+001
5.099868e+002,1.842535e+001
5.109510e+002,2.017163e+001
5.119152e+002,2.094263e+001
5.128795e+002,2.068091e+001
5.138437e+002,1.989734e+001
5.148079e+002,1.754022e+001
5.157722e+002,1.605066e+001
5.167364e+002,1.696759e+001
5.177006e+002,1.989557e+001
5.186649e+002,2.260773e+001
5.196291e+002,2.246899e+001
5.205933e+002,2.153040e+001
5.215576e+002,2.147455e+001
5.225218e+002,2.204962e+001
5.234860e+002,2.223523e+001
5.244503e+002,2.067981e+001
5.254145e+002,1.730817e+001
5.263787e+002,1.512042e+001
5.273430e+002,1.460272e+001
5.283072e+002,1.492645e+001
5.292714e+002,1.461212e+001
5.302357e+002,1.200940e+001
5.311999e+002,1.099286e+001
5.321641e+002,1.457263e+001
5.331284e+002,1.886310e+001
5.340926e+002,2.027869e+001
5.350568e+002,1.708698e+001
5.360211e+002,1.282349e+001
5.369853e+002,1.191687e+001
5.379495e+002,1.198376e+001
5.389138e+002,1.024597e+001
5.398780e+002,5.871765e+000
5.408422e+002,7.119751e-001
5.418065e+002,5.486450e-001
5.427707e+002,4.711121e+000
5.437349e+002,9.631409e+000
5.446992e+002,1.483545e+001
5.456634e+002,1.976807e+001
5.466276e+002,2.272375e+001
5.475919e+002,2.381390e+001
5.485561e+002,2.245203e+001
5.495203e+002,1.537415e+001
5.504846e+002,6.526978e+000
5.514488e+002,2.148010e+000
5.524130e+002,6.654541e+000
5.533773e+002,1.166193e+001
5.543415e+002,1.364587e+001
5.553057e+002,1.337341e+001
5.562700e+002,1.088031e+001
5.572342e+002,6.165466e+000
5.581984e+002,7.221680e-001
5.591627e+002,-1.612732e+000
5.601269e+002,-1.404053e+000
5.610911e+002,4.219971e-001
5.620554e+002,3.391052e+000
5.630196e+002,7.030884e+000
5.639838e+002,8.764526e+000
5.649481e+002,7.470032e+000
5.659123e+002,6.001648e+000
5.668765e+002,5.448181e+000
5.678408e+002,5.738831e+000
5.688050e+002,5.895264e+000
5.697692e+002,5.110413e+000
5.707335e+002,3.255615e+000
5.716977e+002,-1.340332e-001
5.726619e+002,-3.986389e+000
5.736262e+002,-7.259155e+000
5.745904e+002,-9.394165e+000
5.755546e+002,-9.426270e+000
5.765189e+002,-5.109558e+000
5.774831e+002,9.583740e-001
5.784473e+002,4.520020e+000
5.794116e+002,2.896301e+000
5.803758e+002,-2.948486e+000
5.813400e+002,-4.853882e+000
5.823043e+002,-2.402039e+000
5.832685e+002,-5.228271e-001
5.842327e+002,-1.035767e+000
5.851970e+002,-3.098267e+000
5.861612e+002,-3.287903e+000
5.871254e+002,2.952881e-001
5.880897e+002,3.592163e+000
5.890539e+002,6.002258e+000
5.900181e+002,7.293396e+000
5.909824e+002,7.367432e+000
5.919466e+002,6.093201e+000
5.929108e+002,4.118896e+000
5.938751e+002,1.466003e+000
5.948393e+002,-1.126953e+000
5.958035e+002,-2.168579e+000
5.967678e+002,-5.396729e-001
5.977320e+002,3.394653e+000
5.986962e+002,5.127075e+000
5.996605e+002,4.187439e+000
6.006247e+002,2.823730e+000
6.015889e+002,1.611938e+000
6.025532e+002,6.963501e-001
6.035174e+002,1.224915e+000
6.044816e+002,6.688293e+000
6.054459e+002,9.934143e+000
6.064101e+002,8.776672e+000
6.073743e+002,4.815186e+000
6.083386e+002,9.722900e-001
6.093028e+002,-1.380981e+000
6.102670e+002,-2.645203e+000
6.112313e+002,-3.993347e+000
6.121955e+002,-4.718018e+000
6.131597e+002,-3.193420e+000
6.141240e+002,1.562744e+000
6.150882e+002,7.867798e+000
6.160524e+002,7.682678e+000
6.170167e+002,2.442749e+000
6.179809e+002,-1.772949e+000
6.189451e+002,-2.357178e+000
6.199094e+002,1.464844e-003
6.208736e+002,1.834473e+000
6.218378e+002,5.354126e+000
6.228021e+002,6.550781e+000
6.237663e+002,2.521301e+000
6.247305e+002,-3.241455e+000
6.256948e+002,-4.663330e+000
6.266590e+002,2.615906e+000
6.276232e+002,8.441345e+000
6.285875e+002,6.078918e+000
6.295517e+002,4.274902e-001
6.305159e+002,-3.578735e+000
6.314802e+002,-3.416992e+000
6.324444e+002,-1.281311e+000
6.334086e+002,-3.258179e+000
6.343729e+002,-7.486877e+000
6.353371e+002,-9.713562e+000
6.363013e+002,-8.314636e+000
6.372656e+002,-4.488281e+000
6.382298e+002,-2.088440e+000
6.391940e+002,-2.852783e+000
6.401583e+002,-3.284973e+000
6.411225e+002,-1.988586e+000
6.420867e+002,3.411865e-002
6.430510e+002,9.451904e-001
6.440152e+002,-7.133789e-001
6.449794e+002,-1.950867e+000
6.459437e+002,3.638306e-001
6.469079e+002,2.672791e+000
6.478721e+002,1.587097e+000
6.488364e+002,-3.543945e+000
6.498006e+002,-9.449829e+000
6.507648e+002,-1.013330e+001
6.517291e+002,-7.460205e+000
6.526933e+002,-5.182434e+000
6.536575e+002,-3.979614e+000
6.546218e+002,-3.942566e+000
6.555860e+002,-5.364136e+000
6.565502e+002,-9.980835e+000
6.575145e+002,-1.225226e+001
6.584787e+002,-1.110260e+001
6.594429e+002,-8.752319e+000
6.604072e+002,-6.793396e+000
6.613714e+002,-5.438354e+000
6.623356e+002,-4.076233e+000
6.632999e+002,-1.955261e+000
6.642641e+002,-7.813721e-001
6.652283e+002,-1.890808e+000
6.661926e+002,-4.590698e+000
6.671568e+002,-6.665344e+000
6.681210e+002,-5.460999e+000
6.690853e+002,-2.299011e+000
6.700495e+002,-1.671143e-001
6.710137e+002,8.876953e-001
6.719780e+002,1.106750e+000
6.729422e+002,5.530396e-001
6.739064e+002,-1.301208e+000
6.748707e+002,-1.771301e+000
6.758349e+002,3.156128e-001
6.767991e+002,1.811890e+000
6.777634e+002,1.703613e+000
6.787276e+002,4.409790e-001
6.796918e+002,-7.510376e-001
6.806561e+002,-2.676270e+000
6.816203e+002,-3.993347e+000
6.825845e+002,-3.450684e+000
6.835488e+002,-2.054993e+000
6.845130e+002,-1.637329e+000
6.854772e+002,-3.642090e+000
6.864415e+002,-5.998047e+000
6.874057e+002,-3.955872e+000
6.883699e+002,3.660278e-001
6.893342e+002,2.410461e+000
6.902984e+002,-4.816284e-001
6.912626e+002,-7.042908e+000
6.922269e+002,-9.539368e+000
6.931911e+002,-2.800476e+000
6.941553e+002,2.475037e+000
6.951196e+002,5.028015e+000
6.960838e+002,4.976135e+000
6.970480e+002,2.140442e+000
6.980123e+002,-5.321411e+000
6.989765e+002,-1.005969e+001
6.999407e+002,-8.102112e+000
7.009050e+002,-3.839172e+000
7.018692e+002,-2.498779e-001
7.028334e+002,1.358154e+000
7.037977e+002,1.376770e+000
7.047619e+002,1.898193e-001
7.057261e+002,-1.473022e+000
7.066904e+002,-3.019165e+000
7.076546e+002,-4.384705e+000
7.086188e+002,-5.577515e+000
7.095831e+002,-6.723816e+000
7.105473e+002,-8.656128e+000
7.115115e+002,-8.360535e+000
7.124758e+002,-4.356140e+000
7.134400e+002,-4.058228e-001
7.144042e+002,1.487671e+000
7.153685e+002,1.427795e+000
7.163327e+002,9.718628e-001
7.172969e+002,6.500854e-001
7.182612e+002,2.813110e-001
7.192254e+002,-4.957886e-001
7.201896e+002,-1.642029e+000
7.211539e+002,-3.028015e+000
7.221181e+002,-4.565613e+000
7.230823e+002,-5.847717e+000
7.240466e+002,-5.449829e+000
7.250108e+002,-3.429749e+000
7.259750e+002,-1.658264e+000
7.269393e+002,-1.686584e+000
7.279035e+002,-3.840759e+000
7.288677e+002,-6.410706e+000
7.298320e+002,-9.625122e+000
7.307962e+002,-1.076123e+001
7.317604e+002,-8.362488e+000
7.327247e+002,-4.148804e+000
7.336889e+002,-9.107056e-001
7.346531e+002,-3.252563e-001
7.356174e+002,-6.832275e-001
7.365816e+002,8.875122e-001
7.375458e+002,2.540833e+000
7.385101e+002,2.058716e+000
7.394743e+002,-6.705933e-001
7.404385e+002,-3.294800e+000
7.414028e+002,-2.095764e+000
7.423670e+002,1.121216e+000
7.433312e+002,2.312134e+000
7.442955e+002,1.856384e+000
7.452597e+002,1.543457e+000
7.462239e+002,3.204102e+000
7.471882e+002,7.320435e+000
7.481524e+002,1.018732e+001
7.491166e+002,9.862061e+000
7.500809e+002,9.239441e+000
7.510451e+002,1.017627e+001
7.520093e+002,1.191235e+001
7.529736e+002,1.153687e+001
7.539378e+002,7.117310e+000
7.549020e+002,2.405945e+000
7.558663e+002,-1.295532e+000
7.568306e+002,-3.564392e+000
7.577948e+002,-3.676025e+000
7.587590e+002,-1.488770e+000
7.597233e+002,1.723389e+000
7.606875e+002,3.362915e+000
7.616517e+002,3.946838e+000
7.626160e+002,3.804504e+000
7.635802e+002,2.929932e+000
7.645444e+002,1.658142e+000
7.655087e+002,3.870850e-001
7.664729e+002,-1.677002e+000
7.674371e+002,-2.151855e+000
7.684014e+002,-1.740723e-001
7.693656e+002,2.311401e+000
7.703298e+002,4.662415e+000
7.712941e+002,6.635498e+000
7.722583e+002,7.394043e+000
7.732225e+002,5.116333e+000
7.741868e+002,2.379578e+000
7.751510e+002,1.059998e+000
7.761152e+002,1.101624e+000
7.770795e+002,1.872986e+000
7.780437e+002,2.758545e+000
7.790079e+002,3.597046e+000
7.799722e+002,4.385376e+000
7.809364e+002,5.216919e+000
7.819006e+002,5.486450e+000
7.828649e+002,5.021362e+000
7.838291e+002,4.344849e+000
7.847933e+002,4.372742e+000
7.857576e+002,4.881348e+000
7.867218e+002,4.961060e+000
7.876860e+002,5.443237e+000
7.886503e+002,5.809814e+000
7.896145e+002,5.301514e+000
7.905787e+002,3.816589e+000
7.915430e+002,2.530518e+000
7.925072e+002,2.656677e+000
7.934714e+002,2.796021e+000
7.944357e+002,1.868896e+000
7.953999e+002,2.852783e-001
7.963641e+002,-8.935547e-001
7.973284e+002,-6.610718e-001
7.982926e+002,1.086426e+000
7.992568e+002,2.528137e+000
8.002211e+002,2.469177e+000
8.011853e+002,1.849731e+000
8.021495e+002,2.195801e+000
8.031138e+002,3.774231e+000
8.040780e+002,5.058289e+000
8.050422e+002,4.414063e+000
8.060065e+002,4.128174e+000
8.069707e+002,4.490051e+000
8.079349e+002,5.133850e+000
8.088992e+002,6.558228e+000
8.098634e+002,8.866394e+000
8.108276e+002,1.048840e+001
8.117919e+002,7.411987e+000
8.127561e+002,1.286072e+000
8.137203e+002,-2.700562e+000
8.146846e+002,-3.400635e+000
8.156488e+002,-2.113953e+000
8.166130e+002,-6.912231e-001
8.175773e+002,7.783813e-001
8.185415e+002,2.024719e+000
8.195057e+002,1.844177e+000
8.204700e+002,1.943665e+000
8.214342e+002,2.850098e+000
8.223984e+002,4.504028e+000
8.233627e+002,7.029907e+000
8.243269e+002,1.189606e+001
8.252911e+002,1.505084e+001
8.262554e+002,1.301514e+001
8.272196e+002,9.127258e+000
8.281838e+002,6.669373e+000
8.291481e+002,6.845154e+000
8.301123e+002,8.479248e+000
8.310765e+002,9.822327e+000
8.320408e+002,1.058215e+001
8.330050e+002,9.935669e+000
8.339692e+002,7.511292e+000
8.349335e+002,5.125244e+000
8.358977e+002,5.398438e+000
8.368619e+002,9.329956e+000
8.378262e+002,1.075775e+001
8.387904e+002,4.738403e+000
8.397546e+002,8.571777e-001
8.407189e+002,3.383118e+000
8.416831e+002,9.305603e+000
8.426473e+002,1.291797e+001
8.436116e+002,1.130505e+001
8.445758e+002,8.963745e+000
8.455400e+002,1.097595e+001
8.465043e+002,1.380414e+001
8.474685e+002,1.378900e+001
8.484327e+002,1.054102e+001
8.493970e+002,6.562500e+000
8.503612e+002,5.406494e+000
8.513254e+002,7.405701e+000
8.522897e+002,8.388123e+000
8.532539e+002,6.669922e+000
8.542181e+002,5.498413e+000
8.551824e+002,7.884399e+000
8.561466e+002,1.388605e+001
8.571108e+002,1.966571e+001
8.580751e+002,2.342767e+001
8.590393e+002,2.534814e+001
8.600035e+002,2.559399e+001
8.609678e+002,2.505841e+001
8.619320e+002,2.436249e+001
8.628962e+002,2.374640e+001
8.638605e+002,2.325555e+001
8.648247e+002,2.289337e+001
8.657889e+002,2.277911e+001
8.667532e+002,2.401746e+001
8.677174e+002,2.673041e+001
8.686816e+002,2.864795e+001
8.696459e+002,2.681519e+001
8.706101e+002,2.057629e+001
8.715743e+002,1.787744e+001
8.725386e+002,2.124426e+001
8.735028e+002,2.465204e+001
8.744670e+002,2.629034e+001
8.754313e+002,2.628271e+001
8.763955e+002,2.536053e+001
8.773597e+002,2.370117e+001
8.783240e+002,2.242041e+001
8.792882e+002,2.083960e+001
8.802524e+002,2.037738e+001
8.812167e+002,2.425787e+001
8.821809e+002,3.178845e+001
8.831451e+002,3.793134e+001
8.841094e+002,3.589374e+001
8.850736e+002,2.651117e+001
8.860378e+002,2.273297e+001
8.870021e+002,2.518085e+001
8.879663e+002,2.873126e+001
8.889305e+002,3.048541e+001
8.898948e+002,3.069391e+001
8.908590e+002,3.160907e+001
8.918232e+002,3.517242e+001
8.927875e+002,3.721619e+001
8.937517e+002,3.489655e+001
8.947159e+002,3.234247e+001
8.956802e+002,3.368347e+001
8.966444e+002,3.890027e+001
8.976086e+002,4.292462e+001
8.985729e+002,4.013495e+001
8.995371e+002,3.453833e+001
9.005013e+002,3.257343e+001
9.014656e+002,3.410974e+001
9.024298e+002,3.640314e+001
9.033940e+002,3.707751e+001
9.043583e+002,3.601703e+001
9.053225e+002,3.560858e+001
9.062867e+002,3.513049e+001
9.072510e+002,3.570343e+001
9.082152e+002,3.983954e+001
9.091794e+002,4.454395e+001
9.101437e+002,4.619629e+001
9.111079e+002,4.413275e+001
9.120721e+002,4.247314e+001
9.130364e+002,4.445044e+001
9.140006e+002,4.584924e+001
9.149648e+002,4.409381e+001
9.159291e+002,4.050769e+001
9.168933e+002,3.742816e+001
9.178575e+002,3.627222e+001
9.188218e+002,3.649054e+001
9.197860e+002,3.739337e+001
9.207502e+002,3.877490e+001
9.217145e+002,3.965485e+001
9.226787e+002,4.075146e+001
9.236429e+002,4.166632e+001
9.246072e+002,4.084338e+001
9.255714e+002,3.722095e+001
9.265356e+002,3.541925e+001
9.274999e+002,3.868292e+001
9.284641e+002,4.069885e+001
9.294283e+002,3.850385e+001
9.303926e+002,3.407288e+001
9.313568e+002,3.118701e+001
9.323210e+002,3.183276e+001
9.332853e+002,3.352167e+001
9.342495e+002,3.187311e+001
9.352137e+002,2.851416e+001
9.361780e+002,2.623627e+001
9.371422e+002,2.604266e+001
9.381064e+002,2.738574e+001
9.390707e+002,2.909125e+001
9.400349e+002,3.065649e+001
9.409991e+002,3.224335e+001
9.419634e+002,3.453326e+001
9.429276e+002,3.572748e+001
9.438918e+002,3.476050e+001
9.448561e+002,3.280597e+001
9.458203e+002,3.145013e+001
9.467845e+002,3.099103e+001
9.477488e+002,3.273975e+001
9.487130e+002,4.028790e+001
9.496772e+002,4.832739e+001
9.506415e+002,5.250055e+001
9.516057e+002,5.272827e+001
9.525699e+002,5.146051e+001
9.535342e+002,5.105017e+001
9.544984e+002,5.101178e+001
9.554626e+002,4.845715e+001
9.564269e+002,4.321350e+001
9.573911e+002,4.027484e+001
9.583553e+002,4.198517e+001
9.593196e+002,4.599200e+001
9.602838e+002,4.872278e+001
9.612480e+002,4.982306e+001
9.622123e+002,4.969775e+001
9.631765e+002,4.729059e+001
9.641407e+002,4.527289e+001
9.651050e+002,4.527563e+001
9.660692e+002,4.625958e+001
9.670334e+002,4.627661e+001
9.679977e+002,4.441168e+001
9.689619e+002,4.185779e+001
9.699261e+002,3.952533e+001
9.708904e+002,3.723907e+001
9.718546e+002,3.605005e+001
9.728188e+002,3.595728e+001
9.737831e+002,3.695923e+001
9.747473e+002,3.949786e+001
9.757115e+002,4.408350e+001
9.766758e+002,4.847498e+001
9.776400e+002,5.509509e+001
9.786042e+002,5.944171e+001
9.795685e+002,5.912598e+001
9.805327e+002,5.569104e+001
9.814969e+002,5.086951e+001
9.824612e+002,4.554895e+001
9.834254e+002,4.214948e+001
9.843896e+002,4.415668e+001
9.853539e+002,4.785199e+001
9.863181e+002,4.922394e+001
9.872823e+002,4.803638e+001
9.882466e+002,4.659229e+001
9.892108e+002,4.740320e+001
9.901750e+002,5.072644e+001
9.911393e+002,5.286591e+001
9.921035e+002,4.972900e+001
9.930677e+002,4.911224e+001
9.940320e+002,5.302271e+001
9.949962e+002,5.931702e+001
9.959604e+002,6.717932e+001
9.969247e+002,7.635046e+001
9.978889e+002,8.314990e+001
9.988531e+002,8.294153e+001
9.998174e+002,8.163269e+001
1.000782e+003,8.334088e+001
1.001746e+003,8.716113e+001
1.002710e+003,9.161676e+001
1.003674e+003,9.577136e+001
1.004639e+003,9.917017e+001
1.005603e+003,1.009943e+002
1.006567e+003,1.008551e+002
1.007531e+003,1.005814e+002
1.008495e+003,1.003682e+002
1.009460e+003,9.986774e+001
1.010424e+003,9.837671e+001
1.011388e+003,9.656519e+001
1.012352e+003,9.717657e+001
1.013317e+003,1.029052e+002
1.014281e+003,1.052842e+002
1.015245e+003,1.003408e+002
1.016209e+003,9.264648e+001
1.017174e+003,8.483783e+001
1.018138e+003,7.784082e+001
1.019102e+003,7.168488e+001
1.020066e+003,6.653870e+001
1.021031e+003,6.260992e+001
1.021995e+003,5.981329e+001
1.022959e+003,5.737573e+001
1.023923e+003,5.428876e+001
1.024887e+003,5.028571e+001
1.025852e+003,4.513239e+001
1.026816e+003,3.787042e+001
1.027780e+003,2.767108e+001
1.028744e+003,2.149841e+001
1.029709e+003,2.152509e+001
1.030673e+003,2.339160e+001
1.031637e+003,2.735254e+001
1.032601e+003,3.145795e+001
1.033566e+003,3.366058e+001
1.034530e+003,3.339734e+001
1.035494e+003,3.131073e+001
1.036458e+003,2.640216e+001
1.037422e+003,2.070068e+001
1.038387e+003,1.786218e+001
1.039351e+003,1.774475e+001
1.040315e+003,1.874243e+001
1.041279e+003,1.995294e+001
1.042244e+003,2.158826e+001
1.043208e+003,2.359253e+001
1.044172e+003,2.565009e+001
1.045136e+003,2.749817e+001
1.046101e+003,3.020996e+001
1.047065e+003,3.222467e+001
1.048029e+003,3.179297e+001
1.048993e+003,2.942010e+001
1.049958e+003,2.759662e+001
1.050922e+003,2.787244e+001
1.051886e+003,2.898981e+001
1.052850e+003,2.950940e+001
1.053814e+003,2.983856e+001
1.054779e+003,3.057361e+001
1.055743e+003,3.171582e+001
1.056707e+003,3.278052e+001
1.057671e+003,3.323694e+001
1.058636e+003,3.296783e+001
1.059600e+003,3.210266e+001
1.060564e+003,3.161816e+001
1.061528e+003,3.058215e+001
1.062493e+003,2.669305e+001
1.063457e+003,2.253943e+001
1.064421e+003,2.244550e+001
1.065385e+003,2.694171e+001
1.066349e+003,2.936389e+001
1.067314e+003,2.447150e+001
1.068278e+003,1.870032e+001
1.069242e+003,1.621997e+001
1.070206e+003,1.641827e+001
1.071171e+003,1.795502e+001
1.072135e+003,1.996027e+001
1.073099e+003,2.253516e+001
1.074063e+003,2.651221e+001
1.075028e+003,3.251276e+001
1.075992e+003,3.333978e+001
1.076956e+003,2.557764e+001
1.077920e+003,1.844019e+001
1.078885e+003,1.648901e+001
1.079849e+003,1.767041e+001
1.080813e+003,1.759912e+001
1.081777e+003,1.536646e+001
1.082741e+003,1.425494e+001
1.083706e+003,1.612390e+001
1.084670e+003,1.830853e+001
1.085634e+003,1.985553e+001
1.086598e+003,2.051465e+001
1.087563e+003,1.996954e+001
1.088527e+003,1.843604e+001
1.089491e+003,1.746875e+001
1.090455e+003,1.973004e+001
1.091420e+003,2.523511e+001
1.092384e+003,2.640222e+001
1.093348e+003,2.006604e+001
1.094312e+003,1.440454e+001
1.095276e+003,1.533917e+001
1.096241e+003,2.121075e+001
1.097205e+003,2.615259e+001
1.098169e+003,2.923621e+001
1.099133e+003,3.085059e+001
1.100098e+003,3.102301e+001
1.101062e+003,3.057379e+001
1.102026e+003,2.966003e+001
1.102990e+003,2.864142e+001
1.103955e+003,2.763428e+001
1.104919e+003,2.663770e+001
1.105883e+003,2.636377e+001
1.106847e+003,2.927203e+001
1.107812e+003,3.524341e+001
1.108776e+003,3.772552e+001
1.109740e+003,3.503723e+001
1.110704e+003,3.180804e+001
1.111668e+003,3.130536e+001
1.112633e+003,3.362042e+001
1.113597e+003,3.817896e+001
1.114561e+003,4.642798e+001
1.115525e+003,5.217090e+001
1.116490e+003,5.250244e+001
1.117454e+003,5.093726e+001
1.118418e+003,4.955255e+001
1.119382e+003,4.891492e+001
1.120347e+003,4.845978e+001
1.121311e+003,4.739368e+001
1.122275e+003,4.572668e+001
1.123239e+003,4.481873e+001
1.124203e+003,4.547217e+001
1.125168e+003,4.811176e+001
1.126132e+003,5.389978e+001
1.127096e+003,5.923328e+001
1.128060e+003,5.974487e+001
1.129025e+003,5.675513e+001
1.129989e+003,5.800958e+001
1.130953e+003,6.631470e+001
1.131917e+003,7.301678e+001
1.132882e+003,7.499695e+001
1.133846e+003,7.618384e+001
1.134810e+003,7.868225e+001
1.135774e+003,8.255078e+001
1.136739e+003,8.681866e+001
1.137703e+003,9.090564e+001
1.138667e+003,9.552759e+001
1.139631e+003,1.024061e+002
1.140595e+003,1.111733e+002
1.141560e+003,1.189378e+002
1.142524e+003,1.250497e+002
1.143488e+003,1.337148e+002
1.144452e+003,1.481991e+002
1.145417e+003,1.673124e+002
1.146381e+003,1.868523e+002
1.147345e+003,2.065117e+002
1.148309e+003,2.265375e+002
1.149274e+003,2.467318e+002
1.150238e+003,2.681100e+002
1.151202e+003,2.930696e+002
1.152166e+003,3.197280e+002
1.153130e+003,3.455447e+002
1.154095e+003,3.684314e+002
1.155059e+003,3.849731e+002
1.156023e+003,3.905446e+002
1.156987e+003,3.860098e+002
1.157952e+003,3.799027e+002
1.158916e+003,3.733851e+002
1.159880e+003,3.651934e+002
1.160844e+003,3.545234e+002
1.161809e+003,3.398175e+002
1.162773e+003,3.182523e+002
1.163737e+003,2.881921e+002
1.164701e+003,2.590563e+002
1.165666e+003,2.316302e+002
1.166630e+003,2.081514e+002
1.167594e+003,1.888514e+002
1.168558e+003,1.742205e+002
1.169522e+003,1.659882e+002
1.170487e+003,1.639507e+002
1.171451e+003,1.647304e+002
1.172415e+003,1.645608e+002
1.173379e+003,1.635867e+002
1.174344e+003,1.642230e+002
1.175308e+003,1.670300e+002
1.176272e+003,1.672186e+002
1.177236e+003,1.625203e+002
1.178201e+003,1.554103e+002
1.179165e+003,1.478916e+002
1.180129e+003,1.394958e+002
1.181093e+003,1.328354e+002
1.182057e+003,1.295043e+002
1.183022e+003,1.271657e+002
1.183986e+003,1.256124e+002
1.184950e+003,1.241129e+002
1.185914e+003,1.214900e+002
1.186879e+003,1.182999e+002
1.187843e+003,1.168792e+002
1.188807e+003,1.190270e+002
1.189771e+003,1.228950e+002
1.190736e+003,1.232649e+002
1.191700e+003,1.195576e+002
1.192664e+003,1.178484e+002
1.193628e+003,1.207222e+002
1.194593e+003,1.237039e+002
1.195557e+003,1.232864e+002
1.196521e+003,1.201876e+002
1.197485e+003,1.174102e+002
1.198449e+003,1.159772e+002
1.199414e+003,1.133302e+002
1.200378e+003,1.064733e+002
1.201342e+003,9.978778e+001
1.202306e+003,9.592029e+001
1.203271e+003,9.414758e+001
1.204235e+003,9.313721e+001
1.205199e+003,9.209619e+001
1.206163e+003,9.012518e+001
1.207128e+003,8.538110e+001
1.208092e+003,7.772797e+001
1.209056e+003,7.158643e+001
1.210020e+003,6.800330e+001
1.210984e+003,6.369141e+001
1.211949e+003,5.631409e+001
1.212913e+003,4.831464e+001
1.213877e+003,4.357434e+001
1.214841e+003,4.237537e+001
1.215806e+003,4.039722e+001
1.216770e+003,3.492932e+001
1.217734e+003,2.971063e+001
1.218698e+003,2.706421e+001
1.219663e+003,2.575079e+001
1.220627e+003,2.476550e+001
1.221591e+003,2.365784e+001
1.222555e+003,2.198547e+001
1.223520e+003,1.942432e+001
1.224484e+003,1.629865e+001
1.225448e+003,1.304871e+001
1.226412e+003,9.011597e+000
1.227376e+003,6.217163e+000
1.228341e+003,4.112305e+000
1.229305e+003,3.414612e+000
1.230269e+003,5.555237e+000
1.231233e+003,9.030945e+000
1.232198e+003,1.097845e+001
1.233162e+003,1.085797e+001
1.234126e+003,1.056708e+001
1.235090e+003,1.092059e+001
1.236055e+003,1.151825e+001
1.237019e+003,1.257251e+001
1.237983e+003,1.340637e+001
1.238947e+003,1.237061e+001
1.239911e+003,9.081787e+000
1.240876e+003,5.833008e+000
1.241840e+003,6.045410e+000
1.242804e+003,1.005652e+001
1.243768e+003,1.187598e+001
1.244733e+003,7.872559e+000
1.245697e+003,6.605835e+000
1.246661e+003,1.036047e+001
1.247625e+003,1.456110e+001
1.248590e+003,1.598523e+001
1.249554e+003,1.544543e+001
1.250518e+003,1.552466e+001
1.251482e+003,1.710022e+001
1.252447e+003,1.915411e+001
1.253411e+003,2.133643e+001
1.254375e+003,2.353741e+001
1.255339e+003,2.519739e+001
1.256303e+003,2.649548e+001
1.257268e+003,2.682666e+001
1.258232e+003,2.446680e+001
1.259196e+003,2.153131e+001
1.260160e+003,2.371997e+001
1.261125e+003,3.243872e+001
1.262089e+003,4.058093e+001
1.263053e+003,4.916577e+001
1.264017e+003,5.353326e+001
1.264982e+003,4.961560e+001
1.265946e+003,4.368109e+001
1.266910e+003,4.162903e+001
1.267874e+003,4.355432e+001
1.268839e+003,4.621899e+001
1.269803e+003,4.756433e+001
1.270767e+003,4.724725e+001
1.271731e+003,4.432227e+001
1.272695e+003,3.902771e+001
1.273660e+003,3.356860e+001
1.274624e+003,2.651343e+001
1.275588e+003,2.097784e+001
1.276552e+003,2.043286e+001
1.277517e+003,2.269293e+001
1.278481e+003,2.248401e+001
1.279445e+003,1.903625e+001
1.280409e+003,1.786548e+001
1.281374e+003,2.394287e+001
1.282338e+003,2.840607e+001
1.283302e+003,2.439014e+001
1.284266e+003,1.767468e+001
1.285230e+003,1.541003e+001
1.286195e+003,1.796460e+001
1.287159e+003,2.036444e+001
1.288123e+003,1.874060e+001
1.289087e+003,1.476459e+001
1.290052e+003,1.254346e+001
1.291016e+003,1.230420e+001
1.291980e+003,1.156335e+001
1.292944e+003,8.931274e+000
1.293909e+003,6.682739e+000
1.294873e+003,7.230957e+000
1.295837e+003,8.640869e+000
1.296801e+003,7.385132e+000
1.297766e+003,3.296997e+000
1.298730e+003,3.137207e-001
1.299694e+003,2.563477e-001
1.300658e+003,1.753662e+000
1.301622e+003,4.476196e+000
1.302587e+003,7.614258e+000
1.303551e+003,9.762939e+000
1.304515e+003,1.080188e+001
1.305479e+003,1.068457e+001
1.306444e+003,8.692261e+000
1.307408e+003,5.673950e+000
1.308372e+003,5.518799e+000
1.309336e+003,9.309326e+000
1.310301e+003,1.251648e+001
1.311265e+003,1.697644e+001
1.312229e+003,1.889539e+001
1.313193e+003,1.453784e+001
1.314157e+003,8.546265e+000
1.315122e+003,5.772461e+000
1.316086e+003,6.493896e+000
1.317050e+003,8.230957e+000
1.318014e+003,9.743652e+000
1.318979e+003,1.039160e+001
1.319943e+003,7.782593e+000
1.320907e+003,2.823853e+000
1.321871e+003,1.575562e+000
1.322836e+003,4.465332e+000
1.323800e+003,7.843018e+000
1.324764e+003,9.930908e+000
1.325728e+003,1.144189e+001
1.326693e+003,1.391003e+001
1.327657e+003,1.713354e+001
1.328621e+003,1.739343e+001
1.329585e+003,1.265198e+001
1.330549e+003,9.607910e+000
1.331514e+003,1.153784e+001
1.332478e+003,1.441016e+001
1.333442e+003,1.458130e+001
1.334406e+003,1.258923e+001
1.335371e+003,1.137976e+001
1.336335e+003,1.268970e+001
1.337299e+003,1.514258e+001
1.338263e+003,1.594226e+001
1.339228e+003,1.492578e+001
1.340192e+003,1.398291e+001
1.341156e+003,1.343176e+001
1.342120e+003,1.243262e+001
1.343084e+003,9.443481e+000
1.344049e+003,6.297485e+000
1.345013e+003,5.129272e+000
1.345977e+003,5.845825e+000
1.346941e+003,6.876465e+000
1.347906e+003,7.595581e+000
1.348870e+003,8.870117e+000
1.349834e+003,1.197974e+001
1.350798e+003,1.535461e+001
1.351763e+003,1.679333e+001
1.352727e+003,1.654382e+001
1.353691e+003,1.510278e+001
1.354655e+003,1.234241e+001
1.355620e+003,9.779053e+000
1.356584e+003,9.902344e+000
1.357548e+003,1.240881e+001
1.358512e+003,1.264758e+001
1.359476e+003,8.515137e+000
1.360441e+003,5.377441e+000
1.361405e+003,6.199097e+000
1.362369e+003,7.139038e+000
1.363333e+003,5.909668e+000
1.364298e+003,3.859497e+000
1.365262e+003,3.139893e+000
1.366226e+003,4.181519e+000
1.367190e+003,5.961914e+000
1.368155e+003,7.619751e+000
1.369119e+003,8.628662e+000
1.370083e+003,7.260986e+000
1.371047e+003,2.838745e+000
1.372011e+003,9.704590e-002
1.372976e+003,-2.004761e+000
1.373940e+003,-2.337769e+000
1.374904e+003,1.568481e+000
1.375868e+003,6.608521e+000
1.376833e+003,8.166748e+000
1.377797e+003,6.225708e+000
1.378761e+003,5.109863e+000
1.379725e+003,7.218262e+000
1.380690e+003,9.260254e+000
1.381654e+003,6.058472e+000
1.382618e+003,1.820923e+000
1.383582e+003,2.989990e+000
1.384547e+003,9.269165e+000
1.385511e+003,1.587720e+001
1.386475e+003,2.062830e+001
1.387439e+003,2.294995e+001
1.388403e+003,2.113025e+001
1.389368e+003,1.513245e+001
1.390332e+003,1.128015e+001
1.391296e+003,1.107874e+001
1.392260e+003,1.109949e+001
1.393225e+003,1.001050e+001
1.394189e+003,9.212036e+000
1.395153e+003,1.040320e+001
1.396117e+003,1.206104e+001
1.397082e+003,1.098755e+001
1.398046e+003,7.212036e+000
1.399010e+003,5.166382e+000
1.399974e+003,8.717285e+000
1.400938e+003,1.498450e+001
1.401903e+003,1.648901e+001
1.402867e+003,1.319202e+001
1.403831e+003,1.149585e+001
1.404795e+003,1.040918e+001
1.405760e+003,1.075781e+001
1.406724e+003,1.328333e+001
1.407688e+003,1.527905e+001
1.408652e+003,1.402173e+001
1.409617e+003,1.052808e+001
1.410581e+003,8.319580e+000
1.411545e+003,8.783325e+000
1.412509e+003,1.070874e+001
1.413474e+003,1.363513e+001
1.414438e+003,1.589099e+001
1.415402e+003,1.516321e+001
1.416366e+003,1.244287e+001
1.417330e+003,1.120264e+001
1.418295e+003,1.300342e+001
1.419259e+003,1.595654e+001
1.420223e+003,1.770386e+001
1.421187e+003,1.810291e+001
1.422152e+003,1.807312e+001
1.423116e+003,1.747925e+001
1.424080e+003,1.909558e+001
1.425044e+003,2.625159e+001
1.426009e+003,3.186304e+001
1.426973e+003,3.247498e+001
1.427937e+003,3.014160e+001
1.428901e+003,2.696399e+001
1.429865e+003,2.396350e+001
1.430830e+003,2.157654e+001
1.431794e+003,1.984204e+001
1.432758e+003,1.864917e+001
1.433722e+003,1.846130e+001
1.434687e+003,2.004980e+001
1.435651e+003,2.322034e+001
1.436615e+003,2.783826e+001
1.437579e+003,3.050391e+001
1.438544e+003,3.047449e+001
1.439508e+003,2.934937e+001
1.440472e+003,2.797522e+001
1.441436e+003,2.706958e+001
1.442401e+003,2.744751e+001
1.443365e+003,2.899976e+001
1.444329e+003,3.043274e+001
1.445293e+003,3.099438e+001
1.446257e+003,3.103162e+001
1.447222e+003,3.060291e+001
1.448186e+003,2.978577e+001
1.449150e+003,2.967090e+001
1.450114e+003,3.057275e+001
1.451079e+003,3.049500e+001
1.452043e+003,2.843994e+001
1.453007e+003,2.557373e+001
1.453971e+003,2.203333e+001
1.454936e+003,1.814001e+001
1.455900e+003,1.853613e+001
1.456864e+003,2.613892e+001
1.457828e+003,3.223413e+001
1.458792e+003,2.905811e+001
1.459757e+003,2.403027e+001
1.460721e+003,2.330615e+001
1.461685e+003,2.540125e+001
1.462649e+003,2.720996e+001
1.463614e+003,2.800366e+001
1.464578e+003,2.819897e+001
1.465542e+003,2.793628e+001
1.466506e+003,2.699561e+001
1.467471e+003,2.511938e+001
1.468435e+003,2.247278e+001
1.469399e+003,2.126611e+001
1.470363e+003,2.062207e+001
1.471328e+003,2.164465e+001
1.472292e+003,2.615881e+001
1.473256e+003,2.977551e+001
1.474220e+003,2.939172e+001
1.475184e+003,2.691138e+001
1.476149e+003,2.582581e+001
1.477113e+003,2.682483e+001
1.478077e+003,2.755847e+001
1.479041e+003,2.614478e+001
1.480006e+003,2.393176e+001
1.480970e+003,2.431091e+001
1.481934e+003,2.744629e+001
1.482898e+003,3.006885e+001
1.483863e+003,3.133594e+001
1.484827e+003,3.304871e+001
1.485791e+003,3.721069e+001
1.486755e+003,4.161633e+001
1.487719e+003,4.356909e+001
1.488684e+003,4.347864e+001
1.489648e+003,4.315552e+001
1.490612e+003,4.353955e+001
1.491576e+003,4.600293e+001
1.492541e+003,5.185559e+001
1.493505e+003,5.944763e+001
1.494469e+003,6.549573e+001
1.495433e+003,6.963110e+001
1.496398e+003,7.290601e+001
1.497362e+003,7.582581e+001
1.498326e+003,7.969299e+001
1.499290e+003,8.529333e+001
1.500255e+003,9.193079e+001
1.501219e+003,9.852783e+001
1.502183e+003,1.049762e+002
1.503147e+003,1.112478e+002
1.504111e+003,1.167401e+002
1.505076e+003,1.251619e+002
1.506040e+003,1.394612e+002
1.507004e+003,1.572557e+002
1.507968e+003,1.769598e+002
1.508933e+003,1.977349e+002
1.509897e+003,2.174116e+002
1.510861e+003,2.365820e+002
1.511825e+003,2.591688e+002
1.512790e+003,2.876615e+002
1.513754e+003,3.196873e+002
1.514718e+003,3.518472e+002
1.515682e+003,3.836398e+002
1.516646e+003,4.158118e+002
1.517611e+003,4.508000e+002
1.518575e+003,4.820839e+002
1.519539e+003,5.093235e+002
1.520503e+003,5.316473e+002
1.521468e+003,5.487117e+002
1.522432e+003,5.598257e+002
1.523396e+003,5.635881e+002
1.524360e+003,5.603593e+002
1.525325e+003,5.527593e+002
1.526289e+003,5.426946e+002
1.527253e+003,5.290498e+002
1.528217e+003,5.092898e+002
1.529182e+003,4.838021e+002
1.530146e+003,4.565746e+002
1.531110e+003,4.279862e+002
1.532074e+003,3.957457e+002
1.533039e+003,3.568348e+002
1.534003e+003,3.156031e+002
1.534967e+003,2.724955e+002
1.535931e+003,2.313137e+002
1.536896e+003,1.950607e+002
1.537860e+003,1.645365e+002
1.538824e+003,1.397885e+002
1.539788e+003,1.203495e+002
1.540752e+003,1.039144e+002
1.541717e+003,8.761572e+001
1.542681e+003,7.265112e+001
1.543645e+003,6.472192e+001
1.544609e+003,6.893945e+001
1.545573e+003,6.874780e+001
1.546538e+003,6.028320e+001
1.547502e+003,5.099048e+001
1.548466e+003,4.215088e+001
1.549430e+003,3.633179e+001
1.550395e+003,3.754846e+001
1.551359e+003,4.304150e+001
1.552323e+003,4.537952e+001
1.553287e+003,4.215540e+001
1.554252e+003,3.744727e+001
1.555216e+003,3.459607e+001
1.556180e+003,3.296313e+001
1.557144e+003,3.114355e+001
1.558109e+003,2.935693e+001
1.559073e+003,2.873486e+001
1.560037e+003,2.997900e+001
1.561001e+003,2.903918e+001
1.561966e+003,2.276868e+001
1.562930e+003,1.703430e+001
1.563894e+003,1.759058e+001
1.564858e+003,2.218384e+001
1.565823e+003,2.571057e+001
1.566787e+003,2.699768e+001
1.567751e+003,2.619995e+001
1.568715e+003,2.285315e+001
1.569679e+003,1.987732e+001
1.570644e+003,2.169177e+001
1.571608e+003,2.589478e+001
1.572572e+003,2.641553e+001
1.573536e+003,2.338696e+001
1.574500e+003,2.036951e+001
1.575465e+003,1.744482e+001
1.576429e+003,1.609106e+001
1.577393e+003,1.849695e+001
1.578357e+003,2.253796e+001
1.579322e+003,2.419775e+001
1.580286e+003,2.357251e+001
1.581250e+003,2.372302e+001
1.582214e+003,2.569861e+001
1.583179e+003,2.810400e+001
1.584143e+003,2.989429e+001
1.585107e+003,3.097852e+001
1.586071e+003,3.256885e+001
1.587036e+003,3.458765e+001
1.588000e+003,3.428906e+001
1.588964e+003,3.048083e+001
1.589928e+003,2.714929e+001
1.590893e+003,2.711108e+001
1.591857e+003,2.906458e+001
1.592821e+003,3.158276e+001
1.593785e+003,3.457227e+001
1.594750e+003,3.692456e+001
1.595714e+003,3.824719e+001
1.596678e+003,3.893433e+001
1.597642e+003,3.978662e+001
1.598606e+003,3.918176e+001
1.599571e+003,3.367859e+001
1.600535e+003,2.766467e+001
1.601499e+003,2.728552e+001
1.602463e+003,3.195288e+001
1.603427e+003,3.738501e+001
1.604392e+003,4.229370e+001
1.605356e+003,4.441785e+001
1.606320e+003,3.982532e+001
1.607284e+003,3.129004e+001
1.608249e+003,2.687317e+001
1.609213e+003,2.674084e+001
1.610177e+003,2.617212e+001
1.611141e+003,2.397510e+001
1.612106e+003,2.240271e+001
1.613070e+003,2.379126e+001
1.614034e+003,2.491553e+001
1.614998e+003,2.225037e+001
1.615963e+003,1.823450e+001
1.616927e+003,1.711279e+001
1.617891e+003,1.924353e+001
1.618855e+003,2.207239e+001
1.619820e+003,2.402576e+001
1.620784e+003,2.456116e+001
1.621748e+003,2.303735e+001
1.622712e+003,2.079236e+001
1.623677e+003,2.206372e+001
1.624641e+003,2.785962e+001
1.625605e+003,3.170752e+001
1.626569e+003,2.991406e+001
1.627533e+003,2.698389e+001
1.628498e+003,2.621631e+001
1.629462e+003,2.564270e+001
1.630426e+003,2.227649e+001
1.631390e+003,1.780054e+001
1.632354e+003,1.662158e+001
1.633319e+003,1.944983e+001
1.634283e+003,2.240955e+001
1.635247e+003,2.252600e+001
1.636211e+003,2.112695e+001
1.637176e+003,2.089014e+001
1.638140e+003,2.196863e+001
1.639104e+003,2.317224e+001
1.640068e+003,2.471204e+001
1.641033e+003,2.428186e+001
1.641997e+003,1.951611e+001
1.642961e+003,1.580786e+001
1.643925e+003,1.565759e+001
1.644890e+003,1.770984e+001
1.645854e+003,2.143909e+001
1.646818e+003,2.587769e+001
1.647782e+003,2.946216e+001
1.648747e+003,3.162866e+001
1.649711e+003,3.256921e+001
1.650675e+003,3.275916e+001
1.651639e+003,3.231042e+001
1.652604e+003,3.024683e+001
1.653568e+003,2.637207e+001
1.654532e+003,2.407593e+001
1.655496e+003,2.414221e+001
1.656460e+003,2.360925e+001
1.657425e+003,2.088782e+001
1.658389e+003,1.889087e+001
1.659353e+003,1.978027e+001
1.660317e+003,2.158997e+001
1.661281e+003,2.250842e+001
1.662246e+003,2.221423e+001
1.663210e+003,2.069165e+001
1.664174e+003,1.819214e+001
1.665138e+003,1.585657e+001
1.666103e+003,1.435461e+001
1.667067e+003,1.335229e+001
1.668031e+003,1.244458e+001
1.668995e+003,1.181055e+001
1.669960e+003,1.260059e+001
1.670924e+003,1.584985e+001
1.671888e+003,1.699304e+001
1.672852e+003,1.272412e+001
1.673817e+003,8.138062e+000
1.674781e+003,5.791138e+000
1.675745e+003,5.204834e+000
1.676709e+003,6.893677e+000
1.677674e+003,9.793945e+000
1.678638e+003,1.079834e+001
1.679602e+003,8.968628e+000
1.680566e+003,6.880859e+000
1.681531e+003,6.599243e+000
1.682495e+003,7.858276e+000
1.683459e+003,1.058948e+001
1.684423e+003,1.389783e+001
1.685387e+003,1.348291e+001
1.686352e+003,8.598145e+000
1.687316e+003,4.427124e+000
1.688280e+003,2.148071e+000
1.689244e+003,1.784058e+000
1.690208e+003,5.171753e+000
1.691173e+003,8.973755e+000
1.692137e+003,9.768555e+000
1.693101e+003,8.363403e+000
1.694065e+003,6.162598e+000
1.695030e+003,2.944824e+000
1.695994e+003,4.019775e-001
1.696958e+003,1.112061e-001
1.697922e+003,9.794922e-001
1.698887e+003,1.878296e+000
1.699851e+003,2.911255e+000
1.700815e+003,4.066895e+000
1.701779e+003,5.062500e+000
1.702744e+003,4.779785e+000
1.703708e+003,2.793335e+000
1.704672e+003,2.397095e+000
1.705636e+003,6.406494e+000
1.706601e+003,1.132190e+001
1.707565e+003,1.311279e+001
1.708529e+003,1.262488e+001
1.709493e+003,1.077893e+001
1.710458e+003,7.414429e+000
1.711422e+003,4.349854e+000
1.712386e+003,2.430786e+000
1.713350e+003,1.808350e+000
1.714314e+003,3.105347e+000
1.715279e+003,4.489258e+000
1.716243e+003,2.517334e+000
1.717207e+003,-1.950317e+000
1.718171e+003,-3.576294e+000
1.719135e+003,-7.746582e-001
1.720100e+003,1.267700e+000
1.721064e+003,-1.450073e+000
1.722028e+003,-5.855835e+000
1.722992e+003,-7.162476e+000
1.723957e+003,-5.284424e+000
1.724921e+003,-2.743652e+000
1.725885e+003,-3.173828e-003
1.726849e+003,5.003662e-001
1.727814e+003,-3.347168e+000
1.728778e+003,-5.131714e+000
1.729742e+003,5.646973e-001
1.730706e+003,6.758301e+000
1.731671e+003,4.228394e+000
1.732635e+003,-3.343384e+000
1.733599e+003,-5.298584e+000
1.734563e+003,-2.485352e-001
1.735528e+003,3.364990e+000
1.736492e+003,8.538818e-001
1.737456e+003,-2.848145e+000
1.738420e+003,-1.697876e+000
1.739385e+003,2.111816e+000
1.740349e+003,1.943237e+000
1.741313e+003,-2.953613e+000
1.742277e+003,-5.928101e+000
1.743241e+003,-5.125732e+000
1.744206e+003,-4.551392e+000
1.745170e+003,-5.576416e+000
1.746134e+003,-6.511597e+000
1.747098e+003,-6.791016e+000
1.748063e+003,-6.298950e+000
1.749027e+003,-4.348999e+000
1.749991e+003,-1.548340e+000
1.750955e+003,5.051270e-001
1.751919e+003,1.172363e+000
1.752884e+003,1.074585e+000
1.753848e+003,7.238770e-001
1.754812e+003,-2.241211e-001
1.755776e+003,-2.437622e+000
1.756741e+003,-5.310181e+000
1.757705e+003,-4.033813e+000
1.758669e+003,3.331543e+000
1.759633e+003,7.808716e+000
1.760598e+003,7.047974e+000
1.761562e+003,4.441895e+000
1.762526e+003,1.067749e+000
1.763490e+003,-2.736206e+000
1.764455e+003,-8.690674e+000
1.765419e+003,-1.382214e+001
1.766383e+003,-1.295227e+001
1.767347e+003,-6.926636e+000
1.768312e+003,-1.760254e+000
1.769276e+003,-4.197998e-001
1.770240e+003,-1.134521e+000
1.771204e+003,-1.940552e+000
1.772168e+003,-1.975342e+000
1.773133e+003,4.721680e-001
1.774097e+003,4.874512e+000
1.775061e+003,5.614014e+000
1.776025e+003,1.091919e+000
1.776990e+003,-3.623413e+000
1.777954e+003,-6.847412e+000
1.778918e+003,-8.040161e+000
1.779882e+003,-6.046875e+000
1.780846e+003,-3.432129e+000
1.781811e+003,-3.599976e+000
1.782775e+003,-5.411743e+000
1.783739e+003,-5.182007e+000
1.784703e+003,-1.975586e+000
1.785668e+003,5.083008e-001
1.786632e+003,-2.403564e-001
1.787596e+003,-2.197266e+000
1.788560e+003,-3.322632e+000
1.789525e+003,-3.712158e+000
1.790489e+003,-4.171509e+000
1.791453e+003,-4.994873e+000
1.792417e+003,-6.403076e+000
1.793382e+003,-8.226685e+000
1.794346e+003,-8.901489e+000
1.795310e+003,-7.580200e+000
1.796274e+003,-6.234497e+000
1.797239e+003,-7.041382e+000
1.798203e+003,-8.207642e+000
1.799167e+003,-5.755249e+000
1.800131e+003,1.948242e-001
1.801095e+003,2.727905e+000
1.802060e+003,1.692383e+000
1.803024e+003,-6.713867e-003
1.803988e+003,-4.492676e+000
1.804952e+003,-7.429565e+000
1.805917e+003,-5.375000e+000
1.806881e+003,-2.005737e+000
1.807845e+003,-1.068359e+000
1.808809e+003,-1.508057e+000
1.809773e+003,4.366455e-001
1.810738e+003,4.653198e+000
1.811702e+003,5.631836e+000
1.812666e+003,6.713867e-003
1.813630e+003,-7.007446e+000
1.814595e+003,-8.307861e+000
1.815559e+003,-5.384888e+000
1.816523e+003,-3.305420e+000
1.817487e+003,-1.876709e+000
1.818452e+003,-2.426880e+000
1.819416e+003,-5.991821e+000
1.820380e+003,-6.984985e+000
1.821344e+003,-2.211426e+000
1.822309e+003,1.956177e+000
1.823273e+003,1.540527e+000
1.824237e+003,-2.683105e-001
1.825201e+003,-1.175049e+000
1.826166e+003,-1.142578e+000
1.827130e+003,5.114746e-001
1.828094e+003,3.564697e+000
1.829058e+003,3.943604e+000
1.830022e+003,-1.384521e+000
1.830987e+003,-6.627197e+000
1.831951e+003,-6.819092e+000
1.832915e+003,-4.129883e+000
1.833879e+003,3.894043e-002
1.834844e+003,3.992798e+000
1.835808e+003,1.585083e+000
1.836772e+003,-6.944702e+000
1.837736e+003,-1.093469e+001
1.838700e+003,-5.827271e+000
1.839665e+003,2.807617e-002
1.840629e+003,-8.212891e-001
1.841593e+003,-5.437866e+000
1.842557e+003,-8.345581e+000
1.843522e+003,-9.566528e+000
1.844486e+003,-8.615234e+000
1.845450e+003,-2.398560e+000
1.846414e+003,1.365356e+000
1.847379e+003,2.777100e-001
1.848343e+003,-1.801147e+000
1.849307e+003,-4.005127e+000
1.850271e+003,-5.920898e+000
1.851236e+003,-7.780518e+000
1.852200e+003,-8.381226e+000
1.853164e+003,-5.735596e+000
1.854128e+003,-1.399170e+000
1.855093e+003,9.577637e-001
1.856057e+003,4.427490e-001
1.857021e+003,-1.383789e+000
1.857985e+003,-3.770020e+000
1.858949e+003,-5.924072e+000
1.859914e+003,-5.853516e+000
1.860878e+003,-3.922363e+000
1.861842e+003,-3.303711e+000
1.862806e+003,-4.253784e+000
1.863771e+003,-4.225342e+000
1.864735e+003,-2.806519e+000
1.865699e+003,-1.514404e+000
1.866663e+003,-7.122803e-001
1.867627e+003,2.299805e-001
1.868592e+003,1.703857e+000
1.869556e+003,2.744141e+000
1.870520e+003,2.307007e+000
1.871484e+003,5.578613e-001
1.872449e+003,-1.094116e+000
1.873413e+003,-1.231201e+000
1.874377e+003,6.506348e-002
1.875341e+003,2.048706e+000
1.876306e+003,3.653564e+000
1.877270e+003,3.515869e+000
1.878234e+003,3.102783e+000
1.879198e+003,4.666138e+000
1.880163e+003,7.119141e+000
1.881127e+003,8.862305e+000
1.882091e+003,9.267944e+000
1.883055e+003,6.821289e+000
1.884020e+003,1.300293e+000
1.884984e+003,-3.537476e+000
1.885948e+003,-4.232300e+000
1.886912e+003,-2.244263e+000
1.887876e+003,-2.209473e-001
1.888841e+003,1.855591e+000
1.889805e+003,3.330688e+000
1.890769e+003,4.159546e+000
1.891733e+003,4.515503e+000
1.892698e+003,3.425415e+000
1.893662e+003,3.271484e+000
1.894626e+003,6.422729e+000
1.895590e+003,9.089478e+000
1.896554e+003,8.191406e+000
1.897519e+003,6.298828e+000
1.898483e+003,5.815674e+000
1.899447e+003,6.157471e+000
1.900411e+003,6.700439e+000
1.901376e+003,7.597900e+000
1.902340e+003,7.824829e+000
1.903304e+003,6.579956e+000
1.904268e+003,5.012085e+000
1.905233e+003,3.434814e+000
1.906197e+003,2.655884e+000
1.907161e+003,4.215210e+000
1.908125e+003,7.053711e+000
1.909090e+003,8.849976e+000
1.910054e+003,9.180542e+000
1.911018e+003,9.058105e+000
1.911982e+003,9.086304e+000
1.912947e+003,8.875488e+000
1.913911e+003,7.977173e+000
1.914875e+003,6.839111e+000
1.915839e+003,5.843018e+000
1.916803e+003,4.876831e+000
1.917768e+003,5.783447e+000
1.918732e+003,9.342407e+000
1.919696e+003,1.234937e+001
1.920660e+003,1.533362e+001
1.921625e+003,1.703870e+001
1.922589e+003,1.627588e+001
1.923553e+003,1.488525e+001
1.924517e+003,1.345850e+001
1.925481e+003,1.230225e+001
1.926446e+003,1.243298e+001
1.927410e+003,1.280078e+001
1.928374e+003,1.002466e+001
1.929338e+003,4.150269e+000
1.930303e+003,2.257446e+000
1.931267e+003,8.534058e+000
1.932231e+003,1.382715e+001
1.933195e+003,1.173901e+001
1.934160e+003,8.762207e+000
1.935124e+003,1.044165e+001
1.936088e+003,1.292810e+001
1.937052e+003,1.142957e+001
1.938017e+003,7.671265e+000
1.938981e+003,5.792603e+000
1.939945e+003,6.085693e+000
1.940909e+003,5.947754e+000
1.941874e+003,4.062988e+000
1.942838e+003,1.316772e+000
1.943802e+003,-1.101807e+000
1.944766e+003,-2.348145e+000
1.945730e+003,-1.847900e+000
1.946695e+003,-2.331543e-002
1.947659e+003,3.545166e+000
1.948623e+003,9.222290e+000
1.949587e+003,1.015002e+001
1.950552e+003,4.096924e+000
1.951516e+003,9.810791e-001
1.952480e+003,5.415039e+000
1.953444e+003,1.053137e+001
1.954408e+003,1.068262e+001
1.955373e+003,9.087646e+000
1.956337e+003,1.249231e+001
1.957301e+003,1.901062e+001
1.958265e+003,1.870654e+001
1.959230e+003,1.016602e+001
1.960194e+003,5.911133e+000
1.961158e+003,9.180054e+000
1.962122e+003,1.264368e+001
1.963087e+003,1.645105e+001
1.964051e+003,1.783472e+001
1.965015e+003,1.381348e+001
1.965979e+003,8.880371e+000
1.966944e+003,6.392822e+000
1.967908e+003,6.004395e+000
1.968872e+003,7.121704e+000
1.969836e+003,9.266235e+000
1.970801e+003,1.166333e+001
1.971765e+003,1.392725e+001
1.972729e+003,1.496997e+001
1.973693e+003,1.359998e+001
1.974657e+003,1.115784e+001
1.975622e+003,8.581543e+000
1.976586e+003,6.503540e+000
1.977550e+003,8.454224e+000
1.978514e+003,1.353735e+001
1.979479e+003,1.460828e+001
1.980443e+003,1.083398e+001
1.981407e+003,9.382080e+000
1.982371e+003,1.324670e+001
1.983335e+003,1.784204e+001
1.984300e+003,1.943823e+001
1.985264e+003,1.936328e+001
1.986228e+003,2.012500e+001
1.987192e+003,2.120117e+001
1.988157e+003,1.976233e+001
1.989121e+003,1.515088e+001
1.990085e+003,1.261560e+001
1.991049e+003,1.312561e+001
1.992014e+003,1.443762e+001
1.992978e+003,1.824866e+001
1.993942e+003,1.948669e+001
1.994906e+003,1.238586e+001
1.995871e+003,6.301392e+000
1.996835e+003,1.071143e+001
1.997799e+003,1.929346e+001
1.998763e+003,2.220325e+001
1.999728e+003,1.960339e+001
