5.003444e+002,3.964287e+001
5.013087e+002,4.196913e+001
5.022729e+002,4.165472e+001
5.032371e+002,3.942206e+001
5.042014e+002,3.759947e+001
5.051656e+002,3.619614e+001
5.061298e+002,3.528508e+001
5.070941e+002,3.490910e+001
5.080583e+002,3.502036e+001
5.090225e+002,3.576053e+001
5.099868e+002,3.819521e+001
5.109510e+002,3.998567e+001
5.119152e+002,3.950989e+001
5.128795e+002,3.655045e+001
5.138437e+002,3.424329e+001
5.148079e+002,3.436954e+001
5.157722e+002,3.476022e+001
5.167364e+002,3.458565e+001
5.177006e+002,3.366866e+001
5.186649e+002,3.234187e+001
5.196291e+002,3.054437e+001
5.205933e+002,2.915199e+001
5.215576e+002,2.939249e+001
5.225218e+002,3.110681e+001
5.234860e+002,3.318771e+001
5.244503e+002,3.376686e+001
5.254145e+002,3.243649e+001
5.263787e+002,3.117094e+001
5.273430e+002,2.969771e+001
5.283072e+002,2.845926e+001
5.292714e+002,2.816628e+001
5.302357e+002,2.937567e+001
5.311999e+002,2.999539e+001
5.321641e+002,2.966470e+001
5.331284e+002,2.909811e+001
5.340926e+002,2.889421e+001
5.350568e+002,2.925693e+001
5.360211e+002,2.928462e+001
5.369853e+002,2.771046e+001
5.379495e+002,2.590443e+001
5.389138e+002,2.512859e+001
5.398780e+002,2.576285e+001
5.408422e+002,2.708293e+001
5.418065e+002,2.707042e+001
5.427707e+002,2.591681e+001
5.437349e+002,2.479585e+001
5.446992e+002,2.391429e+001
5.456634e+002,2.329152e+001
5.466276e+002,2.304823e+001
5.475919e+002,2.416454e+001
5.485561e+002,2.446115e+001
5.495203e+002,2.309654e+001
5.504846e+002,2.104208e+001
5.514488e+002,1.975557e+001
5.524130e+002,2.003021e+001
5.533773e+002,2.067574e+001
5.543415e+002,2.136879e+001
5.553057e+002,2.186304e+001
5.562700e+002,2.180750e+001
5.572342e+002,2.097919e+001
5.581984e+002,1.971925e+001
5.591627e+002,1.896207e+001
5.601269e+002,1.856174e+001
5.610911e+002,1.807266e+001
5.620554e+002,1.723172e+001
5.630196e+002,1.604884e+001
5.639838e+002,1.495836e+001
5.649481e+002,1.341452e+001
5.659123e+002,1.274042e+001
5.668765e+002,1.397209e+001
5.678408e+002,1.641411e+001
5.688050e+002,1.791071e+001
5.697692e+002,1.728746e+001
5.707335e+002,1.612585e+001
5.716977e+002,1.473018e+001
5.726619e+002,1.328235e+001
5.736262e+002,1.179141e+001
5.745904e+002,1.015724e+001
5.755546e+002,9.101303e+000
5.765189e+002,9.926468e+000
5.774831e+002,1.176872e+001
5.784473e+002,1.328856e+001
5.794116e+002,1.361290e+001
5.803758e+002,1.291420e+001
5.813400e+002,1.247331e+001
5.823043e+002,1.219958e+001
5.832685e+002,1.192345e+001
5.842327e+002,1.156561e+001
5.851970e+002,1.124857e+001
5.861612e+002,1.137737e+001
5.871254e+002,1.269046e+001
5.880897e+002,1.355214e+001
5.890539e+002,1.346930e+001
5.900181e+002,1.270578e+001
5.909824e+002,1.166972e+001
5.919466e+002,1.042712e+001
5.929108e+002,9.556274e+000
5.938751e+002,9.882996e+000
5.948393e+002,1.078569e+001
5.958035e+002,1.133333e+001
5.967678e+002,1.085970e+001
5.977320e+002,9.542206e+000
5.986962e+002,8.200653e+000
5.996605e+002,6.624542e+000
6.006247e+002,5.561569e+000
6.015889e+002,5.565048e+000
6.025532e+002,6.565750e+000
6.035174e+002,7.330124e+000
6.044816e+002,7.305634e+000
6.054459e+002,7.698593e+000
6.064101e+002,9.217300e+000
6.073743e+002,1.117728e+001
6.083386e+002,1.229651e+001
6.093028e+002,1.161281e+001
6.102670e+002,1.056888e+001
6.112313e+002,1.016580e+001
6.121955e+002,1.020746e+001
6.131597e+002,1.066644e+001
6.141240e+002,1.148064e+001
6.150882e+002,1.223445e+001
6.160524e+002,1.054861e+001
6.170167e+002,6.927887e+000
6.179809e+002,3.964096e+000
6.189451e+002,2.786880e+000
6.199094e+002,3.196686e+000
6.208736e+002,3.983795e+000
6.218378e+002,6.513687e+000
6.228021e+002,7.973923e+000
6.237663e+002,7.558029e+000
6.247305e+002,6.095444e+000
6.256948e+002,4.743164e+000
6.266590e+002,3.554688e+000
6.276232e+002,3.289688e+000
6.285875e+002,4.909760e+000
6.295517e+002,7.247696e+000
6.305159e+002,9.019592e+000
6.314802e+002,9.517899e+000
6.324444e+002,9.269135e+000
6.334086e+002,1.037251e+001
6.343729e+002,1.225038e+001
6.353371e+002,1.242719e+001
6.363013e+002,9.634460e+000
6.372656e+002,4.994934e+000
6.382298e+002,2.643524e+000
6.391940e+002,5.510193e+000
6.401583e+002,6.890518e+000
6.411225e+002,5.604340e+000
6.420867e+002,3.542679e+000
6.430510e+002,3.118408e+000
6.440152e+002,5.471924e+000
6.449794e+002,7.316330e+000
6.459437e+002,6.589417e+000
6.469079e+002,5.041885e+000
6.478721e+002,4.067947e+000
6.488364e+002,4.143036e+000
6.498006e+002,4.517914e+000
6.507648e+002,3.532425e+000
6.517291e+002,1.782562e+000
6.526933e+002,9.505157e-001
6.536575e+002,1.391022e+000
6.546218e+002,2.355728e+000
6.555860e+002,2.343277e+000
6.565502e+002,3.043518e-001
6.575145e+002,-3.738098e-001
6.584787e+002,1.244476e+000
6.594429e+002,3.294022e+000
6.604072e+002,4.391754e+000
6.613714e+002,4.317093e+000
6.623356e+002,3.747818e+000
6.632999e+002,2.146667e+000
6.642641e+002,7.594452e-001
6.652283e+002,6.056976e-001
6.661926e+002,1.557846e+000
6.671568e+002,2.549606e+000
6.681210e+002,2.097672e+000
6.690853e+002,8.589783e-001
6.700495e+002,7.460938e-001
6.710137e+002,1.753128e+000
6.719780e+002,3.137634e+000
6.729422e+002,4.148529e+000
6.739064e+002,4.745178e+000
6.748707e+002,4.872971e+000
6.758349e+002,4.569305e+000
6.767991e+002,3.894653e+000
6.777634e+002,2.510956e+000
6.787276e+002,6.862030e-001
6.796918e+002,-1.415710e-001
6.806561e+002,1.766373e+000
6.816203e+002,3.279678e+000
6.825845e+002,2.756790e+000
6.835488e+002,1.097168e+000
6.845130e+002,-1.925659e-001
6.854772e+002,5.035400e-004
6.864415e+002,1.365601e+000
6.874057e+002,3.471268e+000
6.883699e+002,5.837906e+000
6.893342e+002,7.258438e+000
6.902984e+002,7.004608e+000
6.912626e+002,5.405334e+000
6.922269e+002,4.558945e+000
6.931911e+002,5.640976e+000
6.941553e+002,6.114929e+000
6.951196e+002,5.144211e+000
6.960838e+002,3.516296e+000
6.970480e+002,2.653458e+000
6.980123e+002,3.312271e+000
6.989765e+002,3.660538e+000
6.999407e+002,2.272415e+000
7.009050e+002,7.453918e-001
7.018692e+002,5.381470e-001
7.028334e+002,2.020126e+000
7.037977e+002,4.082123e+000
7.047619e+002,5.330933e+000
7.057261e+002,5.795853e+000
7.066904e+002,4.997330e+000
7.076546e+002,2.852142e+000
7.086188e+002,5.160828e-001
7.095831e+002,-1.070557e-001
7.105473e+002,1.744537e+000
7.115115e+002,2.842285e+000
7.124758e+002,2.951614e+000
7.134400e+002,2.671753e+000
7.144042e+002,2.276550e+000
7.153685e+002,1.832092e+000
7.163327e+002,1.502899e+000
7.172969e+002,1.423752e+000
7.182612e+002,1.456635e+000
7.192254e+002,1.566711e+000
7.201896e+002,1.701172e+000
7.211539e+002,1.751373e+000
7.221181e+002,1.596420e+000
7.230823e+002,1.485901e+000
7.240466e+002,2.396713e+000
7.250108e+002,4.082642e+000
7.259750e+002,5.119904e+000
7.269393e+002,4.493790e+000
7.279035e+002,2.374054e+000
7.288677e+002,9.438019e-001
7.298320e+002,1.314789e+000
7.307962e+002,1.355637e+000
7.317604e+002,2.160492e-001
7.327247e+002,-1.025177e+000
7.336889e+002,-5.705872e-001
7.346531e+002,2.617203e+000
7.356174e+002,4.908264e+000
7.365816e+002,3.834045e+000
7.375458e+002,1.870422e+000
7.385101e+002,8.068237e-001
7.394743e+002,1.119064e+000
7.404385e+002,1.977783e+000
7.414028e+002,2.063705e+000
7.423670e+002,1.465347e+000
7.433312e+002,1.589462e+000
7.442955e+002,2.747955e+000
7.452597e+002,3.972198e+000
7.462239e+002,3.912735e+000
7.471882e+002,1.946259e+000
7.481524e+002,1.279419e+000
7.491166e+002,3.027405e+000
7.500809e+002,4.321121e+000
7.510451e+002,3.827026e+000
7.520093e+002,1.929733e+000
7.529736e+002,1.278687e-001
7.539378e+002,-1.204788e+000
7.549020e+002,-1.421051e+000
7.558663e+002,6.302948e-001
7.568306e+002,3.557022e+000
7.577948e+002,5.411331e+000
7.587590e+002,5.026825e+000
7.597233e+002,3.109222e+000
7.606875e+002,1.634064e+000
7.616517e+002,6.490173e-001
7.626160e+002,6.147308e-001
7.635802e+002,2.112854e+000
7.645444e+002,4.216049e+000
7.655087e+002,4.767410e+000
7.664729e+002,2.384903e+000
7.674371e+002,1.469147e+000
7.684014e+002,3.456665e+000
7.693656e+002,5.637466e+000
7.703298e+002,6.022705e+000
7.712941e+002,4.544159e+000
7.722583e+002,3.313766e+000
7.732225e+002,4.258698e+000
7.741868e+002,5.708008e+000
7.751510e+002,6.277023e+000
7.761152e+002,6.194580e+000
7.770795e+002,6.330093e+000
7.780437e+002,7.448318e+000
7.790079e+002,9.308746e+000
7.799722e+002,9.960815e+000
7.809364e+002,9.450027e+000
7.819006e+002,8.565659e+000
7.828649e+002,7.279343e+000
7.838291e+002,5.913071e+000
7.847933e+002,5.532593e+000
7.857576e+002,7.167603e+000
7.867218e+002,7.769180e+000
7.876860e+002,5.871582e+000
7.886503e+002,3.707993e+000
7.896145e+002,3.304276e+000
7.905787e+002,5.112274e+000
7.915430e+002,7.468399e+000
7.925072e+002,9.194626e+000
7.934714e+002,9.863083e+000
7.944357e+002,8.383209e+000
7.953999e+002,5.202515e+000
7.963641e+002,2.207443e+000
7.973284e+002,1.499664e+000
7.982926e+002,3.238876e+000
7.992568e+002,4.583847e+000
8.002211e+002,5.544815e+000
8.011853e+002,5.899979e+000
8.021495e+002,5.436478e+000
8.031138e+002,4.508652e+000
8.040780e+002,4.031250e+000
8.050422e+002,4.377228e+000
8.060065e+002,4.574646e+000
8.069707e+002,3.755676e+000
8.079349e+002,2.870529e+000
8.088992e+002,3.185425e+000
8.098634e+002,5.038147e+000
8.108276e+002,7.090012e+000
8.117919e+002,7.039001e+000
8.127561e+002,5.695526e+000
8.137203e+002,5.088562e+000
8.146846e+002,5.528320e+000
8.156488e+002,6.207047e+000
8.166130e+002,6.001480e+000
8.175773e+002,4.582794e+000
8.185415e+002,4.145416e+000
8.195057e+002,5.274078e+000
8.204700e+002,6.297440e+000
8.214342e+002,6.747421e+000
8.223984e+002,6.670380e+000
8.233627e+002,6.154099e+000
8.243269e+002,4.823044e+000
8.252911e+002,3.978989e+000
8.262554e+002,4.739151e+000
8.272196e+002,6.000015e+000
8.281838e+002,6.474380e+000
8.291481e+002,5.786423e+000
8.301123e+002,4.825256e+000
8.310765e+002,5.357315e+000
8.320408e+002,7.114273e+000
8.330050e+002,7.160889e+000
8.339692e+002,4.892990e+000
8.349335e+002,2.388229e+000
8.358977e+002,1.922958e+000
8.368619e+002,3.859253e+000
8.378262e+002,5.506470e+000
8.387904e+002,6.528488e+000
8.397546e+002,7.403427e+000
8.407189e+002,8.792862e+000
8.416831e+002,9.995407e+000
8.426473e+002,9.465683e+000
8.436116e+002,6.094452e+000
8.445758e+002,2.743774e+000
8.455400e+002,2.451859e+000
8.465043e+002,3.682877e+000
8.474685e+002,5.256256e+000
8.484327e+002,6.731812e+000
8.493970e+002,7.982208e+000
8.503612e+002,8.690796e+000
8.513254e+002,8.761841e+000
8.522897e+002,8.252731e+000
8.532539e+002,6.648239e+000
8.542181e+002,5.094406e+000
8.551824e+002,4.070984e+000
8.561466e+002,3.719925e+000
8.571108e+002,4.627472e+000
8.580751e+002,8.067627e+000
8.590393e+002,1.086459e+001
8.600035e+002,1.214920e+001
8.609678e+002,1.237624e+001
8.619320e+002,1.175835e+001
8.628962e+002,1.049133e+001
8.638605e+002,9.342957e+000
8.648247e+002,9.810883e+000
8.657889e+002,1.118788e+001
8.667532e+002,1.204204e+001
8.677174e+002,1.218465e+001
8.686816e+002,1.189522e+001
8.696459e+002,1.139525e+001
8.706101e+002,1.059529e+001
8.715743e+002,1.068562e+001
8.725386e+002,1.295354e+001
8.735028e+002,1.442654e+001
8.744670e+002,1.349631e+001
8.754313e+002,1.134276e+001
8.763955e+002,1.030061e+001
8.773597e+002,1.130934e+001
8.783240e+002,1.304918e+001
8.792882e+002,1.513460e+001
8.802524e+002,1.697787e+001
8.812167e+002,1.786765e+001
8.821809e+002,1.780675e+001
8.831451e+002,1.743344e+001
8.841094e+002,1.756693e+001
8.850736e+002,1.828633e+001
8.860378e+002,1.940988e+001
8.870021e+002,2.112059e+001
8.879663e+002,2.240810e+001
8.889305e+002,2.233847e+001
8.898948e+002,2.122177e+001
8.908590e+002,2.086255e+001
8.918232e+002,2.216034e+001
8.927875e+002,2.307188e+001
8.937517e+002,2.296498e+001
8.947159e+002,2.250352e+001
8.956802e+002,2.210231e+001
8.966444e+002,2.185936e+001
8.976086e+002,2.170618e+001
8.985729e+002,2.160631e+001
8.995371e+002,2.176535e+001
9.005013e+002,2.250443e+001
9.014656e+002,2.374506e+001
9.024298e+002,2.495137e+001
9.033940e+002,2.565820e+001
9.043583e+002,2.585881e+001
9.053225e+002,2.607399e+001
9.062867e+002,2.626022e+001
9.072510e+002,2.638805e+001
9.082152e+002,2.639134e+001
9.091794e+002,2.657581e+001
9.101437e+002,2.746500e+001
9.111079e+002,2.914601e+001
9.120721e+002,3.030064e+001
9.130364e+002,2.924867e+001
9.140006e+002,2.804346e+001
9.149648e+002,2.822197e+001
9.159291e+002,2.931171e+001
9.168933e+002,2.997557e+001
9.178575e+002,2.924799e+001
9.188218e+002,2.758957e+001
9.197860e+002,2.665451e+001
9.207502e+002,2.637099e+001
9.217145e+002,2.681725e+001
9.226787e+002,2.908760e+001
9.236429e+002,3.131508e+001
9.246072e+002,3.026035e+001
9.255714e+002,2.485017e+001
9.265356e+002,2.149890e+001
9.274999e+002,2.286142e+001
9.284641e+002,2.460147e+001
9.294283e+002,2.564996e+001
9.303926e+002,2.598819e+001
9.313568e+002,2.599039e+001
9.323210e+002,2.585719e+001
9.332853e+002,2.526944e+001
9.342495e+002,2.275943e+001
9.352137e+002,1.962512e+001
9.361780e+002,1.838612e+001
9.371422e+002,1.960571e+001
9.381064e+002,2.153191e+001
9.390707e+002,2.167368e+001
9.400349e+002,1.957614e+001
9.409991e+002,1.816502e+001
9.419634e+002,1.746307e+001
9.429276e+002,1.725319e+001
9.438918e+002,1.779933e+001
9.448561e+002,1.873653e+001
9.458203e+002,1.948822e+001
9.467845e+002,1.991110e+001
9.477488e+002,2.022751e+001
9.487130e+002,2.082436e+001
9.496772e+002,2.119832e+001
9.506415e+002,2.077496e+001
9.516057e+002,1.964258e+001
9.525699e+002,1.833398e+001
9.535342e+002,1.734845e+001
9.544984e+002,1.663315e+001
9.554626e+002,1.605591e+001
9.564269e+002,1.574553e+001
9.573911e+002,1.550635e+001
9.583553e+002,1.501236e+001
9.593196e+002,1.462953e+001
9.602838e+002,1.531915e+001
9.612480e+002,1.765367e+001
9.622123e+002,1.859972e+001
9.631765e+002,1.556624e+001
9.641407e+002,1.275392e+001
9.651050e+002,1.253960e+001
9.660692e+002,1.402544e+001
9.670334e+002,1.490924e+001
9.679977e+002,1.379268e+001
9.689619e+002,1.183392e+001
9.699261e+002,1.094418e+001
9.708904e+002,1.102094e+001
9.718546e+002,1.262091e+001
9.728188e+002,1.605743e+001
9.737831e+002,2.015591e+001
9.747473e+002,2.369804e+001
9.757115e+002,2.689204e+001
9.766758e+002,2.845129e+001
9.776400e+002,2.729950e+001
9.786042e+002,2.596950e+001
9.795685e+002,2.514891e+001
9.805327e+002,2.431337e+001
9.814969e+002,2.252000e+001
9.824612e+002,1.950574e+001
9.834254e+002,1.669383e+001
9.843896e+002,1.582857e+001
9.853539e+002,1.555727e+001
9.863181e+002,1.436496e+001
9.872823e+002,1.225163e+001
9.882466e+002,1.002522e+001
9.892108e+002,8.431564e+000
9.901750e+002,7.578522e+000
9.911393e+002,7.546005e+000
9.921035e+002,8.964813e+000
9.930677e+002,9.747849e+000
9.940320e+002,9.785385e+000
9.949962e+002,9.347015e+000
9.959604e+002,8.253738e+000
9.969247e+002,6.614822e+000
9.978889e+002,5.983688e+000
9.988531e+002,7.535706e+000
9.998174e+002,9.597412e+000
1.000782e+003,1.197192e+001
1.001746e+003,1.397324e+001
1.002710e+003,1.437189e+001
1.003674e+003,1.279897e+001
1.004639e+003,1.048820e+001
1.005603e+003,9.694412e+000
1.006567e+003,1.056052e+001
1.007531e+003,1.026694e+001
1.008495e+003,8.357651e+000
1.009460e+003,6.302597e+000
1.010424e+003,4.764481e+000
1.011388e+003,3.788391e+000
1.012352e+003,3.638123e+000
1.013317e+003,4.904022e+000
1.014281e+003,5.764374e+000
1.015245e+003,5.415146e+000
1.016209e+003,4.691055e+000
1.017174e+003,4.138382e+000
1.018138e+003,3.861801e+000
1.019102e+003,3.799698e+000
1.020066e+003,4.004562e+000
1.021031e+003,4.152206e+000
1.021995e+003,2.516998e+000
1.022959e+003,-4.913635e-001
1.023923e+003,-1.904602e+000
1.024887e+003,-2.802124e-001
1.025852e+003,2.510895e+000
1.026816e+003,3.461456e+000
1.027780e+003,2.189789e+000
1.028744e+003,1.154495e+000
1.029709e+003,3.626862e-001
1.030673e+003,-7.461548e-003
1.031637e+003,6.291046e-001
1.032601e+003,1.461044e+000
1.033566e+003,1.076370e+000
1.034530e+003,-9.332275e-001
1.035494e+003,-2.610367e+000
1.036458e+003,-1.157822e+000
1.037422e+003,1.578278e+000
1.038387e+003,2.279343e+000
1.039351e+003,1.006607e+000
1.040315e+003,-1.803894e-001
1.041279e+003,3.798523e-001
1.042244e+003,2.185287e+000
1.043208e+003,2.509857e+000
1.044172e+003,-3.371277e-001
1.045136e+003,-1.908539e+000
1.046101e+003,-1.210373e+000
1.047065e+003,-1.270905e-001
1.048029e+003,9.397888e-002
1.048993e+003,-4.260559e-001
1.049958e+003,-8.000946e-001
1.050922e+003,-6.539459e-001
1.051886e+003,1.678467e-003
1.052850e+003,1.747223e+000
1.053814e+003,3.641556e+000
1.054779e+003,4.281372e+000
1.055743e+003,3.442398e+000
1.056707e+003,2.062988e+000
1.057671e+003,1.272415e+000
1.058636e+003,1.059509e+000
1.059600e+003,6.231537e-001
1.060564e+003,-3.806458e-001
1.061528e+003,-9.185791e-001
1.062493e+003,-9.566498e-001
1.063457e+003,-5.346985e-001
1.064421e+003,7.344818e-001
1.065385e+003,2.865265e+000
1.066349e+003,4.187683e+000
1.067314e+003,3.297836e+000
1.068278e+003,1.969864e+000
1.069242e+003,1.318604e+000
1.070206e+003,1.208084e+000
1.071171e+003,1.440002e+000
1.072135e+003,1.832413e+000
1.073099e+003,2.056091e+000
1.074063e+003,1.556976e+000
1.075028e+003,2.321472e-001
1.075992e+003,1.103973e-001
1.076956e+003,1.985580e+000
1.077920e+003,3.401077e+000
1.078885e+003,3.060593e+000
1.079849e+003,1.921356e+000
1.080813e+003,1.848526e+000
1.081777e+003,3.334442e+000
1.082741e+003,4.575165e+000
1.083706e+003,4.261841e+000
1.084670e+003,3.631012e+000
1.085634e+003,3.525467e+000
1.086598e+003,3.595810e+000
1.087563e+003,2.999863e+000
1.088527e+003,1.342850e+000
1.089491e+003,-8.267365e-001
1.090455e+003,-2.606125e+000
1.091420e+003,-4.001137e+000
1.092384e+003,-4.862556e+000
1.093348e+003,-5.519844e+000
1.094312e+003,-5.216385e+000
1.095276e+003,-2.554550e+000
1.096241e+003,1.464310e+000
1.097205e+003,3.516937e+000
1.098169e+003,2.708969e+000
1.099133e+003,1.230942e+000
1.100098e+003,-9.613953e-001
1.101062e+003,-2.645859e+000
1.102026e+003,-2.835258e+000
1.102990e+003,-1.859589e+000
1.103955e+003,-4.732056e-001
1.104919e+003,8.262634e-001
1.105883e+003,1.691360e+000
1.106847e+003,1.158966e+000
1.107812e+003,-7.743073e-001
1.108776e+003,-1.256744e+000
1.109740e+003,5.931854e-001
1.110704e+003,2.316315e+000
1.111668e+003,1.905823e+000
1.112633e+003,-6.413269e-002
1.113597e+003,-1.257202e+000
1.114561e+003,-1.256378e+000
1.115525e+003,-1.075546e+000
1.116490e+003,-1.167496e+000
1.117454e+003,-1.114471e+000
1.118418e+003,-2.824097e-001
1.119382e+003,9.893799e-001
1.120347e+003,1.705658e+000
1.121311e+003,1.203873e+000
1.122275e+003,1.550293e-002
1.123239e+003,-6.801605e-001
1.124203e+003,-7.862854e-001
1.125168e+003,-4.269409e-001
1.126132e+003,7.111206e-001
1.127096e+003,1.543488e+000
1.128060e+003,7.818298e-001
1.129025e+003,-1.127930e+000
1.129989e+003,-1.763672e+000
1.130953e+003,-1.576843e-001
1.131917e+003,7.834778e-001
1.132882e+003,-3.895416e-001
1.133846e+003,-1.653931e+000
1.134810e+003,-1.692268e+000
1.135774e+003,-7.722626e-001
1.136739e+003,7.151794e-002
1.137703e+003,2.562103e-001
1.138667e+003,3.460388e-001
1.139631e+003,1.489380e+000
1.140595e+003,3.514114e+000
1.141560e+003,4.922775e+000
1.142524e+003,5.570282e+000
1.143488e+003,6.087097e+000
1.144452e+003,6.874863e+000
1.145417e+003,7.841446e+000
1.146381e+003,8.574524e+000
1.147345e+003,8.699356e+000
1.148309e+003,9.518539e+000
1.149274e+003,1.165359e+001
1.150238e+003,1.424207e+001
1.151202e+003,1.734149e+001
1.152166e+003,2.050203e+001
1.153130e+003,2.295000e+001
1.154095e+003,2.430663e+001
1.155059e+003,2.508430e+001
1.156023e+003,2.626509e+001
1.156987e+003,2.762535e+001
1.157952e+003,2.742828e+001
1.158916e+003,2.557271e+001
1.159880e+003,2.348275e+001
1.160844e+003,2.190701e+001
1.161809e+003,2.038518e+001
1.162773e+003,1.788805e+001
1.163737e+003,1.407834e+001
1.164701e+003,1.085040e+001
1.165666e+003,8.969131e+000
1.166630e+003,7.573074e+000
1.167594e+003,6.519753e+000
1.168558e+003,5.678795e+000
1.169522e+003,4.847610e+000
1.170487e+003,4.028229e+000
1.171451e+003,3.624527e+000
1.172415e+003,4.167587e+000
1.173379e+003,5.375259e+000
1.174344e+003,5.936646e+000
1.175308e+003,5.944466e+000
1.176272e+003,5.282524e+000
1.177236e+003,3.144638e+000
1.178201e+003,9.459229e-001
1.179165e+003,9.011765e-001
1.180129e+003,3.000000e+000
1.181093e+003,3.803040e+000
1.182057e+003,1.822647e+000
1.183022e+003,-3.449707e-001
1.183986e+003,-2.209816e+000
1.184950e+003,-3.443932e+000
1.185914e+003,-3.597504e+000
1.186879e+003,-2.763687e+000
1.187843e+003,-1.282509e+000
1.188807e+003,5.939331e-001
1.189771e+003,2.264786e+000
1.190736e+003,1.612823e+000
1.191700e+003,-1.742271e+000
1.192664e+003,-3.359772e+000
1.193628e+003,-1.495918e+000
1.194593e+003,4.682617e-001
1.195557e+003,-2.719803e-001
1.196521e+003,-2.902588e+000
1.197485e+003,-4.395119e+000
1.198449e+003,-3.898392e+000
1.199414e+003,-3.504509e+000
1.200378e+003,-4.736298e+000
1.201342e+003,-5.853073e+000
1.202306e+003,-5.658257e+000
1.203271e+003,-4.505623e+000
1.204235e+003,-3.015305e+000
1.205199e+003,-1.627441e+000
1.206163e+003,-1.010033e+000
1.207128e+003,-2.459000e+000
1.208092e+003,-6.124802e+000
1.209056e+003,-8.247009e+000
1.210020e+003,-8.536301e+000
1.210984e+003,-8.221649e+000
1.211949e+003,-7.115723e+000
1.212913e+003,-5.947586e+000
1.213877e+003,-5.644157e+000
1.214841e+003,-6.240509e+000
1.215806e+003,-7.205132e+000
1.216770e+003,-8.601265e+000
1.217734e+003,-9.936752e+000
1.218698e+003,-1.112698e+001
1.219663e+003,-1.199829e+001
1.220627e+003,-1.214503e+001
1.221591e+003,-1.164217e+001
1.222555e+003,-1.114036e+001
1.223520e+003,-1.124178e+001
1.224484e+003,-1.172861e+001
1.225448e+003,-1.165577e+001
1.226412e+003,-1.041243e+001
1.227376e+003,-1.007430e+001
1.228341e+003,-1.145880e+001
1.229305e+003,-1.283762e+001
1.230269e+003,-1.330170e+001
1.231233e+003,-1.309420e+001
1.232198e+003,-1.266133e+001
1.233162e+003,-1.206589e+001
1.234126e+003,-1.160211e+001
1.235090e+003,-1.152862e+001
1.236055e+003,-1.175347e+001
1.237019e+003,-1.245691e+001
1.237983e+003,-1.334155e+001
1.238947e+003,-1.345058e+001
1.239911e+003,-1.237299e+001
1.240876e+003,-1.105408e+001
1.241840e+003,-1.097241e+001
1.242804e+003,-1.220158e+001
1.243768e+003,-1.320863e+001
1.244733e+003,-1.475005e+001
1.245697e+003,-1.491299e+001
1.246661e+003,-1.184625e+001
1.247625e+003,-8.990303e+000
1.248590e+003,-9.624893e+000
1.249554e+003,-1.268462e+001
1.250518e+003,-1.431113e+001
1.251482e+003,-1.271561e+001
1.252447e+003,-1.023146e+001
1.253411e+003,-9.527756e+000
1.254375e+003,-9.903809e+000
1.255339e+003,-9.914932e+000
1.256303e+003,-9.479027e+000
1.257268e+003,-9.010315e+000
1.258232e+003,-8.710999e+000
1.259196e+003,-8.702103e+000
1.260160e+003,-9.319946e+000
1.261125e+003,-1.072061e+001
1.262089e+003,-1.140504e+001
1.263053e+003,-1.055360e+001
1.264017e+003,-9.898842e+000
1.264982e+003,-1.015386e+001
1.265946e+003,-1.051634e+001
1.266910e+003,-1.002763e+001
1.267874e+003,-8.842003e+000
1.268839e+003,-7.894882e+000
1.269803e+003,-7.800316e+000
1.270767e+003,-8.359520e+000
1.271731e+003,-9.415970e+000
1.272695e+003,-1.086357e+001
1.273660e+003,-1.120147e+001
1.274624e+003,-1.002055e+001
1.275588e+003,-8.978706e+000
1.276552e+003,-9.115433e+000
1.277517e+003,-9.810349e+000
1.278481e+003,-9.879242e+000
1.279445e+003,-9.218010e+000
1.280409e+003,-8.816315e+000
1.281374e+003,-9.075424e+000
1.282338e+003,-9.549202e+000
1.283302e+003,-1.028359e+001
1.284266e+003,-1.093059e+001
1.285230e+003,-1.114135e+001
1.286195e+003,-1.085087e+001
1.287159e+003,-1.001031e+001
1.288123e+003,-8.548988e+000
1.289087e+003,-6.906441e+000
1.290052e+003,-6.586655e+000
1.291016e+003,-8.174469e+000
1.291980e+003,-9.201927e+000
1.292944e+003,-9.154617e+000
1.293909e+003,-9.363853e+000
1.294873e+003,-1.063689e+001
1.295837e+003,-1.220091e+001
1.296801e+003,-1.291800e+001
1.297766e+003,-1.268317e+001
1.298730e+003,-1.243562e+001
1.299694e+003,-1.279459e+001
1.300658e+003,-1.315504e+001
1.301622e+003,-1.255937e+001
1.302587e+003,-1.157866e+001
1.303551e+003,-1.128383e+001
1.304515e+003,-1.177411e+001
1.305479e+003,-1.208934e+001
1.306444e+003,-1.139307e+001
1.307408e+003,-1.012673e+001
1.308372e+003,-9.756683e+000
1.309336e+003,-1.060250e+001
1.310301e+003,-1.138686e+001
1.311265e+003,-1.225573e+001
1.312229e+003,-1.273310e+001
1.313193e+003,-1.260201e+001
1.314157e+003,-1.207548e+001
1.315122e+003,-1.121577e+001
1.316086e+003,-1.019289e+001
1.317050e+003,-9.285263e+000
1.318014e+003,-8.621300e+000
1.318979e+003,-8.429214e+000
1.319943e+003,-9.468178e+000
1.320907e+003,-1.148619e+001
1.321871e+003,-1.239047e+001
1.322836e+003,-1.192726e+001
1.323800e+003,-1.124516e+001
1.324764e+003,-1.076834e+001
1.325728e+003,-1.052053e+001
1.326693e+003,-1.073563e+001
1.327657e+003,-1.146177e+001
1.328621e+003,-1.169028e+001
1.329585e+003,-1.055085e+001
1.330549e+003,-9.594284e+000
1.331514e+003,-9.902771e+000
1.332478e+003,-1.074216e+001
1.333442e+003,-1.161287e+001
1.334406e+003,-1.225575e+001
1.335371e+003,-1.239267e+001
1.336335e+003,-1.186664e+001
1.337299e+003,-1.082445e+001
1.338263e+003,-9.492935e+000
1.339228e+003,-7.745430e+000
1.340192e+003,-6.892822e+000
1.341156e+003,-7.516586e+000
1.342120e+003,-8.111137e+000
1.343084e+003,-8.464302e+000
1.344049e+003,-8.816498e+000
1.345013e+003,-9.396797e+000
1.345977e+003,-1.007032e+001
1.346941e+003,-1.057957e+001
1.347906e+003,-1.086238e+001
1.348870e+003,-1.057482e+001
1.349834e+003,-8.953148e+000
1.350798e+003,-6.943550e+000
1.351763e+003,-6.211922e+000
1.352727e+003,-6.633858e+000
1.353691e+003,-7.685753e+000
1.354655e+003,-9.459503e+000
1.355620e+003,-1.079691e+001
1.356584e+003,-9.800797e+000
1.357548e+003,-6.833008e+000
1.358512e+003,-5.459755e+000
1.359476e+003,-6.464943e+000
1.360441e+003,-7.515594e+000
1.361405e+003,-8.400894e+000
1.362369e+003,-8.732506e+000
1.363333e+003,-7.617508e+000
1.364298e+003,-6.151634e+000
1.365262e+003,-6.061844e+000
1.366226e+003,-7.541824e+000
1.367190e+003,-9.158768e+000
1.368155e+003,-9.644669e+000
1.369119e+003,-9.199654e+000
1.370083e+003,-8.381721e+000
1.371047e+003,-6.971260e+000
1.372011e+003,-6.025642e+000
1.372976e+003,-5.892494e+000
1.373940e+003,-5.861664e+000
1.374904e+003,-5.720482e+000
1.375868e+003,-5.460678e+000
1.376833e+003,-4.868164e+000
1.377797e+003,-4.091545e+000
1.378761e+003,-4.085762e+000
1.379725e+003,-5.440315e+000
1.380690e+003,-7.024338e+000
1.381654e+003,-7.904274e+000
1.382618e+003,-8.130119e+000
1.383582e+003,-7.366768e+000
1.384547e+003,-5.824486e+000
1.385511e+003,-4.925766e+000
1.386475e+003,-5.554947e+000
1.387439e+003,-6.666924e+000
1.388403e+003,-6.474014e+000
1.389368e+003,-4.988304e+000
1.390332e+003,-4.318352e+000
1.391296e+003,-4.876472e+000
1.392260e+003,-5.471428e+000
1.393225e+003,-6.036201e+000
1.394189e+003,-6.376793e+000
1.395153e+003,-6.204529e+000
1.396117e+003,-5.804749e+000
1.397082e+003,-5.688423e+000
1.398046e+003,-5.904770e+000
1.399010e+003,-5.947624e+000
1.399974e+003,-5.381653e+000
1.400938e+003,-4.438568e+000
1.401903e+003,-3.650269e+000
1.402867e+003,-2.870934e+000
1.403831e+003,-2.259598e+000
1.404795e+003,-1.612000e+000
1.405760e+003,-1.529449e+000
1.406724e+003,-2.838249e+000
1.407688e+003,-4.583534e+000
1.408652e+003,-5.597847e+000
1.409617e+003,-5.777000e+000
1.410581e+003,-5.406296e+000
1.411545e+003,-4.409370e+000
1.412509e+003,-3.930000e+000
1.413474e+003,-5.867516e+000
1.414438e+003,-8.614212e+000
1.415402e+003,-9.409386e+000
1.416366e+003,-8.329964e+000
1.417330e+003,-6.387848e+000
1.418295e+003,-3.698647e+000
1.419259e+003,-1.309654e+000
1.420223e+003,-7.783585e-001
1.421187e+003,-1.796646e+000
1.422152e+003,-2.112778e+000
1.423116e+003,-1.320457e+000
1.424080e+003,-7.885132e-001
1.425044e+003,-1.002686e+000
1.426009e+003,-1.565956e+000
1.426973e+003,-2.843620e+000
1.427937e+003,-4.074753e+000
1.428901e+003,-4.163742e+000
1.429865e+003,-3.193970e+000
1.430830e+003,-2.164337e+000
1.431794e+003,-1.773148e+000
1.432758e+003,-1.924805e+000
1.433722e+003,-2.382233e+000
1.434687e+003,-3.092819e+000
1.435651e+003,-3.715218e+000
1.436615e+003,-5.386551e+000
1.437579e+003,-5.646271e+000
1.438544e+003,-2.645340e+000
1.439508e+003,2.157974e-001
1.440472e+003,4.817734e-001
1.441436e+003,-9.168320e-001
1.442401e+003,-2.139084e+000
1.443365e+003,-2.688080e+000
1.444329e+003,-2.826653e+000
1.445293e+003,-2.621002e+000
1.446257e+003,-2.398071e+000
1.447222e+003,-3.148094e+000
1.448186e+003,-4.557068e+000
1.449150e+003,-4.611626e+000
1.450114e+003,-2.789902e+000
1.451079e+003,-1.134720e+000
1.452043e+003,-6.953812e-001
1.453007e+003,-9.153366e-001
1.453971e+003,-1.116524e+000
1.454936e+003,-1.337471e+000
1.455900e+003,-1.902534e+000
1.456864e+003,-3.052345e+000
1.457828e+003,-3.828728e+000
1.458792e+003,-3.435608e+000
1.459757e+003,-2.716301e+000
1.460721e+003,-2.253677e+000
1.461685e+003,-2.022522e+000
1.462649e+003,-1.902107e+000
1.463614e+003,-1.827660e+000
1.464578e+003,-1.727577e+000
1.465542e+003,-1.508514e+000
1.466506e+003,-1.355759e+000
1.467471e+003,-1.846817e+000
1.468435e+003,-3.120209e+000
1.469399e+003,-4.022652e+000
1.470363e+003,-4.608040e+000
1.471328e+003,-4.753525e+000
1.472292e+003,-4.395248e+000
1.473256e+003,-3.755188e+000
1.474220e+003,-2.404915e+000
1.475184e+003,-9.610519e-001
1.476149e+003,-7.255859e-001
1.477113e+003,-1.997559e+000
1.478077e+003,-3.685341e+000
1.479041e+003,-4.711052e+000
1.480006e+003,-5.020584e+000
1.480970e+003,-4.459007e+000
1.481934e+003,-2.735245e+000
1.482898e+003,-1.634659e+000
1.483863e+003,-1.277336e+000
1.484827e+003,-1.325050e+000
1.485791e+003,-2.122520e+000
1.486755e+003,-2.825478e+000
1.487719e+003,-2.500565e+000
1.488684e+003,-1.506554e+000
1.489648e+003,-9.438934e-001
1.490612e+003,-1.123718e+000
1.491576e+003,-1.244965e+000
1.492541e+003,-6.029892e-001
1.493505e+003,3.568497e-001
1.494469e+003,5.172806e-001
1.495433e+003,1.678467e-004
1.496398e+003,-1.842499e-002
1.497362e+003,7.684555e-001
1.498326e+003,1.806961e+000
1.499290e+003,3.023315e+000
1.500255e+003,4.159897e+000
1.501219e+003,4.583519e+000
1.502183e+003,4.491402e+000
1.503147e+003,5.207603e+000
1.504111e+003,7.146729e+000
1.505076e+003,9.254860e+000
1.506040e+003,1.099956e+001
1.507004e+003,1.258508e+001
1.507968e+003,1.424688e+001
1.508933e+003,1.591908e+001
1.509897e+003,1.737447e+001
1.510861e+003,1.867911e+001
1.511825e+003,2.039432e+001
1.512790e+003,2.291330e+001
1.513754e+003,2.586920e+001
1.514718e+003,2.881287e+001
1.515682e+003,3.169532e+001
1.516646e+003,3.373338e+001
1.517611e+003,3.441360e+001
1.518575e+003,3.551878e+001
1.519539e+003,3.819437e+001
1.520503e+003,4.092322e+001
1.521468e+003,4.362607e+001
1.522432e+003,4.545539e+001
1.523396e+003,4.485423e+001
1.524360e+003,4.211567e+001
1.525325e+003,3.948891e+001
1.526289e+003,3.848624e+001
1.527253e+003,3.803032e+001
1.528217e+003,3.613028e+001
1.529182e+003,3.280969e+001
1.530146e+003,2.939184e+001
1.531110e+003,2.512231e+001
1.532074e+003,2.212930e+001
1.533039e+003,2.153557e+001
1.534003e+003,2.070653e+001
1.534967e+003,1.850893e+001
1.535931e+003,1.565312e+001
1.536896e+003,1.268954e+001
1.537860e+003,9.950836e+000
1.538824e+003,7.885422e+000
1.539788e+003,6.656860e+000
1.540752e+003,5.648117e+000
1.541717e+003,4.022369e+000
1.542681e+003,2.073784e+000
1.543645e+003,1.510460e+000
1.544609e+003,3.094872e+000
1.545573e+003,4.327454e+000
1.546538e+003,5.166603e+000
1.547502e+003,5.560699e+000
1.548466e+003,5.044861e+000
1.549430e+003,4.583534e+000
1.550395e+003,5.424858e+000
1.551359e+003,7.091728e+000
1.552323e+003,8.074081e+000
1.553287e+003,7.858093e+000
1.554252e+003,7.050194e+000
1.555216e+003,6.079811e+000
1.556180e+003,5.124344e+000
1.557144e+003,4.750626e+000
1.558109e+003,5.001884e+000
1.559073e+003,4.427719e+000
1.560037e+003,2.272003e+000
1.561001e+003,6.552124e-001
1.561966e+003,6.488724e-001
1.562930e+003,1.263519e+000
1.563894e+003,1.629303e+000
1.564858e+003,1.799042e+000
1.565823e+003,1.930069e+000
1.566787e+003,2.087677e+000
1.567751e+003,2.916122e+000
1.568715e+003,5.087196e+000
1.569679e+003,7.209969e+000
1.570644e+003,7.301292e+000
1.571608e+003,5.940002e+000
1.572572e+003,4.849251e+000
1.573536e+003,4.105995e+000
1.574500e+003,3.972870e+000
1.575465e+003,4.915962e+000
1.576429e+003,5.851631e+000
1.577393e+003,5.632233e+000
1.578357e+003,4.872437e+000
1.579322e+003,4.956795e+000
1.580286e+003,5.913467e+000
1.581250e+003,6.444206e+000
1.582214e+003,5.955490e+000
1.583179e+003,5.762184e+000
1.584143e+003,7.405502e+000
1.585107e+003,9.275200e+000
1.586071e+003,8.903069e+000
1.587036e+003,7.117317e+000
1.588000e+003,6.397598e+000
1.588964e+003,7.278488e+000
1.589928e+003,8.374138e+000
1.590893e+003,8.963867e+000
1.591857e+003,9.092644e+000
1.592821e+003,8.404808e+000
1.593785e+003,7.212013e+000
1.594750e+003,7.593109e+000
1.595714e+003,1.014053e+001
1.596678e+003,1.179428e+001
1.597642e+003,1.074496e+001
1.598606e+003,9.313637e+000
1.599571e+003,9.495834e+000
1.600535e+003,1.037563e+001
1.601499e+003,1.077673e+001
1.602463e+003,1.066607e+001
1.603427e+003,1.059309e+001
1.604392e+003,1.079598e+001
1.605356e+003,1.100629e+001
1.606320e+003,1.082664e+001
1.607284e+003,1.048933e+001
1.608249e+003,1.076637e+001
1.609213e+003,1.168682e+001
1.610177e+003,1.225319e+001
1.611141e+003,1.213220e+001
1.612106e+003,1.207595e+001
1.613070e+003,1.246276e+001
1.614034e+003,1.302834e+001
1.614998e+003,1.387984e+001
1.615963e+003,1.466389e+001
1.616927e+003,1.475147e+001
1.617891e+003,1.407458e+001
1.618855e+003,1.291954e+001
1.619820e+003,1.128594e+001
1.620784e+003,9.940804e+000
1.621748e+003,1.050860e+001
1.622712e+003,1.262757e+001
1.623677e+003,1.327528e+001
1.624641e+003,1.205169e+001
1.625605e+003,1.168159e+001
1.626569e+003,1.309940e+001
1.627533e+003,1.455215e+001
1.628498e+003,1.531830e+001
1.629462e+003,1.578423e+001
1.630426e+003,1.634447e+001
1.631390e+003,1.681858e+001
1.632354e+003,1.665725e+001
1.633319e+003,1.579814e+001
1.634283e+003,1.493069e+001
1.635247e+003,1.450680e+001
1.636211e+003,1.450352e+001
1.637176e+003,1.503597e+001
1.638140e+003,1.608295e+001
1.639104e+003,1.700056e+001
1.640068e+003,1.785759e+001
1.641033e+003,1.813000e+001
1.641997e+003,1.741498e+001
1.642961e+003,1.652567e+001
1.643925e+003,1.559014e+001
1.644890e+003,1.489337e+001
1.645854e+003,1.468900e+001
1.646818e+003,1.494817e+001
1.647782e+003,1.581185e+001
1.648747e+003,1.721214e+001
1.649711e+003,1.799978e+001
1.650675e+003,1.714670e+001
1.651639e+003,1.538933e+001
1.652604e+003,1.400980e+001
1.653568e+003,1.297978e+001
1.654532e+003,1.260055e+001
1.655496e+003,1.304601e+001
1.656460e+003,1.362919e+001
1.657425e+003,1.479770e+001
1.658389e+003,1.521847e+001
1.659353e+003,1.318343e+001
1.660317e+003,1.082994e+001
1.661281e+003,1.068066e+001
1.662246e+003,1.224497e+001
1.663210e+003,1.364051e+001
1.664174e+003,1.423617e+001
1.665138e+003,1.417007e+001
1.666103e+003,1.332687e+001
1.667067e+003,1.220916e+001
1.668031e+003,1.209093e+001
1.668995e+003,1.287138e+001
1.669960e+003,1.266140e+001
1.670924e+003,1.100183e+001
1.671888e+003,9.837151e+000
1.672852e+003,1.002624e+001
1.673817e+003,1.040909e+001
1.674781e+003,1.020229e+001
1.675745e+003,9.816360e+000
1.676709e+003,9.697464e+000
1.677674e+003,9.802094e+000
1.678638e+003,9.873856e+000
1.679602e+003,9.835091e+000
1.680566e+003,9.803116e+000
1.681531e+003,9.933762e+000
1.682495e+003,1.011023e+001
1.683459e+003,1.008289e+001
1.684423e+003,9.837051e+000
1.685387e+003,9.476936e+000
1.686352e+003,9.027306e+000
1.687316e+003,8.476921e+000
1.688280e+003,7.741722e+000
1.689244e+003,7.043518e+000
1.690208e+003,6.162285e+000
1.691173e+003,5.658279e+000
1.692137e+003,6.546486e+000
1.693101e+003,8.422638e+000
1.694065e+003,9.994774e+000
1.695030e+003,1.092725e+001
1.695994e+003,1.080486e+001
1.696958e+003,8.751839e+000
1.697922e+003,6.332809e+000
1.698887e+003,5.694191e+000
1.699851e+003,6.262871e+000
1.700815e+003,6.063316e+000
1.701779e+003,4.936417e+000
1.702744e+003,4.627411e+000
1.703708e+003,5.908958e+000
1.704672e+003,7.495079e+000
1.705636e+003,8.871025e+000
1.706601e+003,9.440292e+000
1.707565e+003,7.647408e+000
1.708529e+003,4.481796e+000
1.709493e+003,3.199120e+000
1.710458e+003,4.370483e+000
1.711422e+003,5.414436e+000
1.712386e+003,5.126076e+000
1.713350e+003,4.604713e+000
1.714314e+003,4.801163e+000
1.715279e+003,5.203972e+000
1.716243e+003,4.781601e+000
1.717207e+003,3.738716e+000
1.718171e+003,3.577789e+000
1.719135e+003,4.723701e+000
1.720100e+003,5.213844e+000
1.721064e+003,3.414711e+000
1.722028e+003,1.230087e+000
1.722992e+003,1.740776e+000
1.723957e+003,4.364128e+000
1.724921e+003,5.350174e+000
1.725885e+003,4.389091e+000
1.726849e+003,3.431404e+000
1.727814e+003,2.668182e+000
1.728778e+003,2.291985e+000
1.729742e+003,2.660339e+000
1.730706e+003,3.167435e+000
1.731671e+003,3.058395e+000
1.732635e+003,2.587013e+000
1.733599e+003,2.509026e+000
1.734563e+003,2.959091e+000
1.735528e+003,3.567253e+000
1.736492e+003,4.112274e+000
1.737456e+003,4.204369e+000
1.738420e+003,3.254379e+000
1.739385e+003,1.748817e+000
1.740349e+003,1.723709e+000
1.741313e+003,3.708138e+000
1.742277e+003,4.666122e+000
1.743241e+003,3.891747e+000
1.744206e+003,3.356880e+000
1.745170e+003,3.507813e+000
1.746134e+003,3.663994e+000
1.747098e+003,3.242790e+000
1.748063e+003,2.766266e+000
1.749027e+003,3.003418e+000
1.749991e+003,3.748024e+000
1.750955e+003,4.281754e+000
1.751919e+003,4.323219e+000
1.752884e+003,3.993759e+000
1.753848e+003,3.385185e+000
1.754812e+003,2.703674e+000
1.755776e+003,2.466179e+000
1.756741e+003,2.685799e+000
1.757705e+003,2.212036e+000
1.758669e+003,4.531403e-001
1.759633e+003,-3.481369e-001
1.760598e+003,1.074768e+000
1.761562e+003,1.895584e+000
1.762526e+003,5.665970e-001
1.763490e+003,-8.191986e-001
1.764455e+003,-6.114349e-001
1.765419e+003,4.573746e-001
1.766383e+003,1.070389e+000
1.767347e+003,1.094467e+000
1.768312e+003,1.285866e+000
1.769276e+003,1.995514e+000
1.770240e+003,2.621017e+000
1.771204e+003,2.541100e+000
1.772168e+003,2.079010e+000
1.773133e+003,1.920586e+000
1.774097e+003,2.009453e+000
1.775061e+003,1.685295e+000
1.776025e+003,7.237396e-001
1.776990e+003,2.218704e-001
1.777954e+003,7.873917e-001
1.778918e+003,1.506721e+000
1.779882e+003,1.601563e+000
1.780846e+003,1.492073e+000
1.781811e+003,1.906937e+000
1.782775e+003,2.655273e+000
1.783739e+003,3.071404e+000
1.784703e+003,3.075081e+000
1.785668e+003,2.800552e+000
1.786632e+003,1.939850e+000
1.787596e+003,1.183540e+000
1.788560e+003,1.345062e+000
1.789525e+003,1.823906e+000
1.790489e+003,1.615623e+000
1.791453e+003,8.955002e-001
1.792417e+003,4.454041e-001
1.793382e+003,4.358215e-001
1.794346e+003,5.682297e-001
1.795310e+003,6.716614e-001
1.796274e+003,1.000252e+000
1.797239e+003,2.010841e+000
1.798203e+003,3.295265e+000
1.799167e+003,3.192497e+000
1.800131e+003,1.160263e+000
1.801095e+003,7.344971e-001
1.802060e+003,3.947701e+000
1.803024e+003,5.551643e+000
1.803988e+003,3.272018e+000
1.804952e+003,1.404259e+000
1.805917e+003,2.971039e+000
1.806881e+003,5.081543e+000
1.807845e+003,4.391838e+000
1.808809e+003,1.980141e+000
1.809773e+003,6.296921e-001
1.810738e+003,9.388351e-001
1.811702e+003,1.635269e+000
1.812666e+003,1.905449e+000
1.813630e+003,1.952980e+000
1.814595e+003,2.051781e+000
1.815559e+003,2.145035e+000
1.816523e+003,1.989365e+000
1.817487e+003,1.546021e+000
1.818452e+003,1.437325e+000
1.819416e+003,1.787338e+000
1.820380e+003,2.340279e+000
1.821344e+003,3.105408e+000
1.822309e+003,3.853004e+000
1.823273e+003,4.825920e+000
1.824237e+003,5.499733e+000
1.825201e+003,5.160706e+000
1.826166e+003,4.050598e+000
1.827130e+003,2.635696e+000
1.828094e+003,1.028610e+000
1.829058e+003,2.807999e-001
1.830022e+003,1.143646e+000
1.830987e+003,2.552055e+000
1.831951e+003,4.100861e+000
1.832915e+003,5.317070e+000
1.833879e+003,5.286797e+000
1.834844e+003,4.350647e+000
1.835808e+003,3.579620e+000
1.836772e+003,3.152740e+000
1.837736e+003,2.637100e+000
1.838700e+003,1.805145e+000
1.839665e+003,1.383926e+000
1.840629e+003,2.181625e+000
1.841593e+003,3.518494e+000
1.842557e+003,3.906410e+000
1.843522e+003,3.356117e+000
1.844486e+003,2.866203e+000
1.845450e+003,2.465363e+000
1.846414e+003,2.196274e+000
1.847379e+003,1.624199e+000
1.848343e+003,1.631516e+000
1.849307e+003,2.989326e+000
1.850271e+003,4.530418e+000
1.851236e+003,5.626915e+000
1.852200e+003,6.295158e+000
1.853164e+003,6.560753e+000
1.854128e+003,6.459328e+000
1.855093e+003,6.003235e+000
1.856057e+003,5.317307e+000
1.857021e+003,5.006813e+000
1.857985e+003,5.646675e+000
1.858949e+003,6.441231e+000
1.859914e+003,5.775452e+000
1.860878e+003,4.021103e+000
1.861842e+003,3.242691e+000
1.862806e+003,3.454376e+000
1.863771e+003,3.921616e+000
1.864735e+003,4.610687e+000
1.865699e+003,5.068901e+000
1.866663e+003,5.082512e+000
1.867627e+003,4.928001e+000
1.868592e+003,4.789307e+000
1.869556e+003,4.587814e+000
1.870520e+003,4.183525e+000
1.871484e+003,3.630020e+000
1.872449e+003,3.325439e+000
1.873413e+003,3.452087e+000
1.874377e+003,3.793945e+000
1.875341e+003,4.170868e+000
1.876306e+003,4.672447e+000
1.877270e+003,5.522942e+000
1.878234e+003,6.331123e+000
1.879198e+003,6.738846e+000
1.880163e+003,6.821053e+000
1.881127e+003,6.715294e+000
1.882091e+003,6.498154e+000
1.883055e+003,6.182411e+000
1.884020e+003,5.808731e+000
1.884984e+003,5.690796e+000
1.885948e+003,6.131828e+000
1.886912e+003,6.811218e+000
1.887876e+003,7.144783e+000
1.888841e+003,7.123520e+000
1.889805e+003,6.375252e+000
1.890769e+003,4.585991e+000
1.891733e+003,3.839096e+000
1.892698e+003,4.730988e+000
1.893662e+003,5.603195e+000
1.894626e+003,5.923363e+000
1.895590e+003,6.065132e+000
1.896554e+003,6.358009e+000
1.897519e+003,6.615868e+000
1.898483e+003,6.478249e+000
1.899447e+003,6.034515e+000
1.900411e+003,5.817253e+000
1.901376e+003,5.958176e+000
1.902340e+003,5.800125e+000
1.903304e+003,4.807060e+000
1.904268e+003,3.891853e+000
1.905233e+003,3.376427e+000
1.906197e+003,3.457603e+000
1.907161e+003,5.046944e+000
1.908125e+003,7.039780e+000
1.909090e+003,7.156792e+000
1.910054e+003,5.624481e+000
1.911018e+003,4.298111e+000
1.911982e+003,3.943924e+000
1.912947e+003,4.750885e+000
1.913911e+003,6.849037e+000
1.914875e+003,8.999283e+000
1.915839e+003,9.179245e+000
1.916803e+003,7.776932e+000
1.917768e+003,6.878021e+000
1.918732e+003,6.506119e+000
1.919696e+003,6.772591e+000
1.920660e+003,8.076241e+000
1.921625e+003,8.931343e+000
1.922589e+003,8.657455e+000
1.923553e+003,8.403008e+000
1.924517e+003,8.891365e+000
1.925481e+003,9.562782e+000
1.926446e+003,1.010719e+001
1.927410e+003,1.041570e+001
1.928374e+003,1.015774e+001
1.929338e+003,9.348328e+000
1.930303e+003,8.684860e+000
1.931267e+003,8.348648e+000
1.932231e+003,8.371117e+000
1.933195e+003,9.308151e+000
1.934160e+003,9.870087e+000
1.935124e+003,8.220932e+000
1.936088e+003,6.360420e+000
1.937052e+003,7.431526e+000
1.938017e+003,1.013199e+001
1.938981e+003,1.099783e+001
1.939945e+003,9.758064e+000
1.940909e+003,8.781822e+000
1.941874e+003,9.100487e+000
1.942838e+003,9.330833e+000
1.943802e+003,8.163963e+000
1.944766e+003,6.668724e+000
1.945730e+003,7.095848e+000
1.946695e+003,9.079933e+000
1.947659e+003,9.646973e+000
1.948623e+003,8.583359e+000
1.949587e+003,8.613754e+000
1.950552e+003,1.050327e+001
1.951516e+003,1.158385e+001
1.952480e+003,1.073006e+001
1.953444e+003,9.359558e+000
1.954408e+003,8.103355e+000
1.955373e+003,7.160950e+000
1.956337e+003,6.954865e+000
1.957301e+003,7.384979e+000
1.958265e+003,8.056442e+000
1.959230e+003,9.051414e+000
1.960194e+003,9.540901e+000
1.961158e+003,8.517876e+000
1.962122e+003,8.193207e+000
1.963087e+003,1.038084e+001
1.964051e+003,1.191599e+001
1.965015e+003,1.009811e+001
1.965979e+003,7.622917e+000
1.966944e+003,7.339119e+000
1.967908e+003,8.439133e+000
1.968872e+003,8.969162e+000
1.969836e+003,8.715843e+000
1.970801e+003,8.766693e+000
1.971765e+003,9.552605e+000
1.972729e+003,1.008987e+001
1.973693e+003,9.341629e+000
1.974657e+003,8.490860e+000
1.975622e+003,9.683243e+000
1.976586e+003,1.200550e+001
1.977550e+003,1.297210e+001
1.978514e+003,1.276309e+001
1.979479e+003,1.264560e+001
1.980443e+003,1.279729e+001
1.981407e+003,1.298553e+001
1.982371e+003,1.316264e+001
1.983335e+003,1.291775e+001
1.984300e+003,1.182666e+001
1.985264e+003,1.052605e+001
1.986228e+003,1.000993e+001
1.987192e+003,1.021298e+001
1.988157e+003,1.089730e+001
1.989121e+003,1.240783e+001
1.990085e+003,1.265636e+001
1.991049e+003,1.094112e+001
1.992014e+003,9.433243e+000
1.992978e+003,8.004478e+000
1.993942e+003,7.300148e+000
1.994906e+003,8.079399e+000
1.995871e+003,9.099281e+000
1.996835e+003,9.181160e+000
1.997799e+003,9.116829e+000
1.998763e+003,1.043359e+001
1.999728e+003,1.273176e+001
