5.003444e+002,3.675870e+001
5.013087e+002,3.565176e+001
5.022729e+002,3.517606e+001
5.032371e+002,3.479733e+001
5.042014e+002,3.167682e+001
5.051656e+002,2.639188e+001
5.061298e+002,2.189026e+001
5.070941e+002,2.095569e+001
5.080583e+002,2.442499e+001
5.090225e+002,2.630798e+001
5.099868e+002,2.568246e+001
5.109510e+002,2.497043e+001
5.119152e+002,2.570245e+001
5.128795e+002,2.808609e+001
5.138437e+002,2.964392e+001
5.148079e+002,2.838315e+001
5.157722e+002,2.726331e+001
5.167364e+002,2.801401e+001
5.177006e+002,3.040329e+001
5.186649e+002,3.230099e+001
5.196291e+002,3.065637e+001
5.205933e+002,2.763654e+001
5.215576e+002,2.516483e+001
5.225218e+002,2.344324e+001
5.234860e+002,2.229987e+001
5.244503e+002,2.161588e+001
5.254145e+002,2.181506e+001
5.263787e+002,2.172162e+001
5.273430e+002,2.149417e+001
5.283072e+002,2.088132e+001
5.292714e+002,1.920328e+001
5.302357e+002,1.500357e+001
5.311999e+002,1.253784e+001
5.321641e+002,1.355911e+001
5.331284e+002,1.556885e+001
5.340926e+002,1.642288e+001
5.350568e+002,1.517181e+001
5.360211e+002,1.380481e+001
5.369853e+002,1.507773e+001
5.379495e+002,1.694305e+001
5.389138e+002,1.738968e+001
5.398780e+002,1.574774e+001
5.408422e+002,1.308398e+001
5.418065e+002,1.252042e+001
5.427707e+002,1.375635e+001
5.437349e+002,1.499933e+001
5.446992e+002,1.589087e+001
5.456634e+002,1.637253e+001
5.466276e+002,1.627951e+001
5.475919e+002,1.438483e+001
5.485561e+002,1.364963e+001
5.495203e+002,1.500406e+001
5.504846e+002,1.716306e+001
5.514488e+002,1.835110e+001
5.524130e+002,1.783517e+001
5.533773e+002,1.675006e+001
5.543415e+002,1.476791e+001
5.553057e+002,1.310492e+001
5.562700e+002,1.369864e+001
5.572342e+002,1.765726e+001
5.581984e+002,2.229895e+001
5.591627e+002,2.006836e+001
5.601269e+002,1.374548e+001
5.610911e+002,8.764099e+000
5.620554e+002,7.950073e+000
5.630196e+002,1.066751e+001
5.639838e+002,1.175034e+001
5.649481e+002,9.717743e+000
5.659123e+002,8.238831e+000
5.668765e+002,8.656921e+000
5.678408e+002,1.030920e+001
5.688050e+002,1.095493e+001
5.697692e+002,8.665771e+000
5.707335e+002,6.727753e+000
5.716977e+002,6.440033e+000
5.726619e+002,7.103912e+000
5.736262e+002,7.741089e+000
5.745904e+002,7.712769e+000
5.755546e+002,7.493866e+000
5.765189e+002,7.894348e+000
5.774831e+002,8.439148e+000
5.784473e+002,8.403992e+000
5.794116e+002,7.370422e+000
5.803758e+002,5.564545e+000
5.813400e+002,4.538818e+000
5.823043e+002,4.165649e+000
5.832685e+002,3.926788e+000
5.842327e+002,3.902130e+000
5.851970e+002,4.148224e+000
5.861612e+002,4.350494e+000
5.871254e+002,4.114105e+000
5.880897e+002,3.993500e+000
5.890539e+002,3.889252e+000
5.900181e+002,3.918549e+000
5.909824e+002,4.503845e+000
5.919466e+002,6.434021e+000
5.929108e+002,7.884186e+000
5.938751e+002,6.500824e+000
5.948393e+002,3.633453e+000
5.958035e+002,1.425873e+000
5.967678e+002,1.449982e+000
5.977320e+002,3.363556e+000
5.986962e+002,4.001129e+000
5.996605e+002,3.261566e+000
6.006247e+002,2.217590e+000
6.015889e+002,9.900513e-001
6.025532e+002,-3.178101e-001
6.035174e+002,-5.387878e-001
6.044816e+002,2.052948e+000
6.054459e+002,3.978699e+000
6.064101e+002,4.543579e+000
6.073743e+002,4.118103e+000
6.083386e+002,3.381348e+000
6.093028e+002,2.439697e+000
6.102670e+002,1.871094e+000
6.112313e+002,2.202484e+000
6.121955e+002,2.983276e+000
6.131597e+002,3.637024e+000
6.141240e+002,3.764252e+000
6.150882e+002,3.486298e+000
6.160524e+002,3.481903e+000
6.170167e+002,3.776855e+000
6.179809e+002,3.924103e+000
6.189451e+002,3.575256e+000
6.199094e+002,2.738464e+000
6.208736e+002,2.071686e+000
6.218378e+002,1.856598e+000
6.228021e+002,1.858032e+000
6.237663e+002,2.371124e+000
6.247305e+002,3.064148e+000
6.256948e+002,3.236328e+000
6.266590e+002,2.121704e+000
6.276232e+002,1.234894e+000
6.285875e+002,2.047791e+000
6.295517e+002,3.459259e+000
6.305159e+002,4.249390e+000
6.314802e+002,3.717987e+000
6.324444e+002,2.296936e+000
6.334086e+002,1.064453e+000
6.343729e+002,1.557922e-001
6.353371e+002,-4.415894e-002
6.363013e+002,7.320251e-001
6.372656e+002,2.002655e+000
6.382298e+002,2.148804e+000
6.391940e+002,-5.365906e-001
6.401583e+002,-2.240875e+000
6.411225e+002,-2.092987e+000
6.420867e+002,-1.049561e+000
6.430510e+002,-3.204651e-001
6.440152e+002,-3.764954e-001
6.449794e+002,-7.692261e-001
6.459437e+002,-1.402588e+000
6.469079e+002,-2.080627e+000
6.478721e+002,-2.668732e+000
6.488364e+002,-3.056152e+000
6.498006e+002,-3.128326e+000
6.507648e+002,-2.473053e+000
6.517291e+002,-1.508698e+000
6.526933e+002,-1.231812e+000
6.536575e+002,-1.869476e+000
6.546218e+002,-3.004639e+000
6.555860e+002,-3.885834e+000
6.565502e+002,-4.818970e+000
6.575145e+002,-4.611877e+000
6.584787e+002,-1.979248e+000
6.594429e+002,6.494446e-001
6.604072e+002,1.077301e+000
6.613714e+002,-1.218292e+000
6.623356e+002,-3.269287e+000
6.632999e+002,-3.470093e+000
6.642641e+002,-3.439423e+000
6.652283e+002,-4.133972e+000
6.661926e+002,-5.361359e+000
6.671568e+002,-6.050323e+000
6.681210e+002,-4.805145e+000
6.690853e+002,-2.323090e+000
6.700495e+002,-3.942871e-001
6.710137e+002,9.547119e-001
6.719780e+002,2.014679e+000
6.729422e+002,3.186127e+000
6.739064e+002,4.712189e+000
6.748707e+002,4.219727e+000
6.758349e+002,1.727905e-001
6.767991e+002,-3.560669e+000
6.777634e+002,-5.004242e+000
6.787276e+002,-4.322845e+000
6.796918e+002,-3.785126e+000
6.806561e+002,-5.061707e+000
6.816203e+002,-5.919861e+000
6.825845e+002,-5.165619e+000
6.835488e+002,-3.455627e+000
6.845130e+002,-1.868103e+000
6.854772e+002,-1.157013e+000
6.864415e+002,-9.661560e-001
6.874057e+002,-5.572205e-001
6.883699e+002,-2.467346e-001
6.893342e+002,-7.051392e-001
6.902984e+002,-2.364960e+000
6.912626e+002,-4.842590e+000
6.922269e+002,-5.815063e+000
6.931911e+002,-3.470825e+000
6.941553e+002,-1.621887e+000
6.951196e+002,-8.436279e-001
6.960838e+002,-8.804932e-001
6.970480e+002,-1.341461e+000
6.980123e+002,-2.398010e+000
6.989765e+002,-2.991302e+000
6.999407e+002,-2.553864e+000
7.009050e+002,-1.761536e+000
7.018692e+002,-1.114288e+000
7.028334e+002,-8.164978e-001
7.037977e+002,-7.003174e-001
7.047619e+002,-2.131348e-001
7.057261e+002,3.541565e-001
7.066904e+002,-1.009216e-001
7.076546e+002,-1.762360e+000
7.086188e+002,-3.679962e+000
7.095831e+002,-4.292358e+000
7.105473e+002,-3.021973e+000
7.115115e+002,-2.502594e+000
7.124758e+002,-3.779633e+000
7.134400e+002,-4.737274e+000
7.144042e+002,-3.518372e+000
7.153685e+002,-1.071777e-001
7.163327e+002,2.403107e+000
7.172969e+002,1.796326e+000
7.182612e+002,6.854553e-001
7.192254e+002,-4.771118e-001
7.201896e+002,-1.354889e+000
7.211539e+002,-1.426025e+000
7.221181e+002,-8.773804e-002
7.230823e+002,1.810150e+000
7.240466e+002,1.909821e+000
7.250108e+002,7.075195e-001
7.259750e+002,-5.715942e-001
7.269393e+002,-1.395691e+000
7.279035e+002,-1.947449e+000
7.288677e+002,-2.430115e+000
7.298320e+002,-3.042633e+000
7.307962e+002,-2.609344e+000
7.317604e+002,1.676941e-001
7.327247e+002,3.601837e+000
7.336889e+002,4.858643e+000
7.346531e+002,2.184509e+000
7.356174e+002,-1.007690e-001
7.365816e+002,1.774261e+000
7.375458e+002,4.502838e+000
7.385101e+002,5.416718e+000
7.394743e+002,3.934479e+000
7.404385e+002,1.588287e+000
7.414028e+002,5.401306e-001
7.423670e+002,3.053589e-001
7.433312e+002,-2.961121e-001
7.442955e+002,-1.189606e+000
7.452597e+002,-1.420105e+000
7.462239e+002,3.914795e-001
7.471882e+002,5.210724e+000
7.481524e+002,7.356812e+000
7.491166e+002,4.527527e+000
7.500809e+002,1.714447e+000
7.510451e+002,1.098389e+000
7.520093e+002,2.153229e+000
7.529736e+002,2.475159e+000
7.539378e+002,5.011292e-001
7.549020e+002,-1.332092e+000
7.558663e+002,-1.382782e+000
7.568306e+002,-4.274597e-001
7.577948e+002,4.211121e-001
7.587590e+002,4.427795e-001
7.597233e+002,-1.448975e-001
7.606875e+002,-5.596313e-001
7.616517e+002,-6.776733e-001
7.626160e+002,2.331238e-001
7.635802e+002,3.056610e+000
7.645444e+002,6.381195e+000
7.655087e+002,6.971832e+000
7.664729e+002,3.003326e+000
7.674371e+002,7.006836e-002
7.684014e+002,-1.478271e+000
7.693656e+002,-2.149689e+000
7.703298e+002,-2.044342e+000
7.712941e+002,-1.252594e+000
7.722583e+002,-2.039795e-001
7.732225e+002,7.660217e-001
7.741868e+002,1.920197e+000
7.751510e+002,3.996918e+000
7.761152e+002,6.452637e+000
7.770795e+002,7.880829e+000
7.780437e+002,6.992981e+000
7.790079e+002,4.176941e+000
7.799722e+002,3.424774e+000
7.809364e+002,4.847351e+000
7.819006e+002,6.051056e+000
7.828649e+002,5.747406e+000
7.838291e+002,4.679413e+000
7.847933e+002,5.349426e+000
7.857576e+002,9.871307e+000
7.867218e+002,1.198926e+001
7.876860e+002,9.244476e+000
7.886503e+002,5.334930e+000
7.896145e+002,3.287598e+000
7.905787e+002,3.891052e+000
7.915430e+002,5.377838e+000
7.925072e+002,6.019409e+000
7.934714e+002,6.147125e+000
7.944357e+002,6.551147e+000
7.953999e+002,7.212128e+000
7.963641e+002,7.214264e+000
7.973284e+002,5.352020e+000
7.982926e+002,1.403412e+000
7.992568e+002,3.253174e-001
8.002211e+002,2.810699e+000
8.011853e+002,5.322998e+000
8.021495e+002,7.456635e+000
8.031138e+002,9.133392e+000
8.040780e+002,9.124359e+000
8.050422e+002,5.194550e+000
8.060065e+002,2.440338e+000
8.069707e+002,2.782654e+000
8.079349e+002,4.531647e+000
8.088992e+002,6.370300e+000
8.098634e+002,7.773865e+000
8.108276e+002,8.819397e+000
8.117919e+002,9.275452e+000
8.127561e+002,9.141357e+000
8.137203e+002,9.099701e+000
8.146846e+002,9.379730e+000
8.156488e+002,9.447968e+000
8.166130e+002,8.412323e+000
8.175773e+002,5.841888e+000
8.185415e+002,4.501526e+000
8.195057e+002,4.704071e+000
8.204700e+002,5.166687e+000
8.214342e+002,5.934204e+000
8.223984e+002,6.645782e+000
8.233627e+002,6.206085e+000
8.243269e+002,3.311798e+000
8.252911e+002,1.303802e+000
8.262554e+002,2.732910e+000
8.272196e+002,5.382843e+000
8.281838e+002,6.938049e+000
8.291481e+002,6.579926e+000
8.301123e+002,5.349304e+000
8.310765e+002,5.090851e+000
8.320408e+002,5.645447e+000
8.330050e+002,5.417358e+000
8.339692e+002,4.138123e+000
8.349335e+002,2.796112e+000
8.358977e+002,2.435944e+000
8.368619e+002,3.235321e+000
8.378262e+002,4.398865e+000
8.387904e+002,6.561401e+000
8.397546e+002,8.050232e+000
8.407189e+002,8.421173e+000
8.416831e+002,7.869904e+000
8.426473e+002,6.360657e+000
8.436116e+002,3.449158e+000
8.445758e+002,1.578705e+000
8.455400e+002,4.511414e+000
8.465043e+002,8.933502e+000
8.474685e+002,1.125534e+001
8.484327e+002,1.066931e+001
8.493970e+002,8.813721e+000
8.503612e+002,8.219910e+000
8.513254e+002,9.071838e+000
8.522897e+002,9.506042e+000
8.532539e+002,9.160370e+000
8.542181e+002,8.713135e+000
8.551824e+002,8.445679e+000
8.561466e+002,8.597870e+000
8.571108e+002,9.973602e+000
8.580751e+002,1.392279e+001
8.590393e+002,1.669250e+001
8.600035e+002,1.692212e+001
8.609678e+002,1.579376e+001
8.619320e+002,1.426193e+001
8.628962e+002,1.282126e+001
8.638605e+002,1.196719e+001
8.648247e+002,1.295984e+001
8.657889e+002,1.498859e+001
8.667532e+002,1.655591e+001
8.677174e+002,1.745755e+001
8.686816e+002,1.760941e+001
8.696459e+002,1.680881e+001
8.706101e+002,1.493579e+001
8.715743e+002,1.371960e+001
8.725386e+002,1.302676e+001
8.735028e+002,1.308905e+001
8.744670e+002,1.436060e+001
8.754313e+002,1.611771e+001
8.763955e+002,1.713770e+001
8.773597e+002,1.694421e+001
8.783240e+002,1.658951e+001
8.792882e+002,1.636713e+001
8.802524e+002,1.650162e+001
8.812167e+002,1.750528e+001
8.821809e+002,1.929321e+001
8.831451e+002,2.116693e+001
8.841094e+002,2.221426e+001
8.850736e+002,2.260110e+001
8.860378e+002,2.375092e+001
8.870021e+002,2.582086e+001
8.879663e+002,2.764917e+001
8.889305e+002,2.855878e+001
8.898948e+002,2.859262e+001
8.908590e+002,2.819849e+001
8.918232e+002,2.731961e+001
8.927875e+002,2.637897e+001
8.937517e+002,2.506186e+001
8.947159e+002,2.402075e+001
8.956802e+002,2.385190e+001
8.966444e+002,2.450391e+001
8.976086e+002,2.518237e+001
8.985729e+002,2.510019e+001
8.995371e+002,2.492874e+001
9.005013e+002,2.586459e+001
9.014656e+002,2.773538e+001
9.024298e+002,2.926465e+001
9.033940e+002,2.933160e+001
9.043583e+002,2.804431e+001
9.053225e+002,2.730600e+001
9.062867e+002,2.662115e+001
9.072510e+002,2.709552e+001
9.082152e+002,3.066452e+001
9.091794e+002,3.449493e+001
9.101437e+002,3.511075e+001
9.111079e+002,3.190283e+001
9.120721e+002,2.949371e+001
9.130364e+002,3.229398e+001
9.140006e+002,3.491013e+001
9.149648e+002,3.349860e+001
9.159291e+002,2.964258e+001
9.168933e+002,2.704517e+001
9.178575e+002,2.819705e+001
9.188218e+002,3.165918e+001
9.197860e+002,3.283768e+001
9.207502e+002,3.168625e+001
9.217145e+002,2.955670e+001
9.226787e+002,2.565848e+001
9.236429e+002,2.220569e+001
9.246072e+002,2.285410e+001
9.255714e+002,2.872141e+001
9.265356e+002,3.209027e+001
9.274999e+002,2.923337e+001
9.284641e+002,2.624564e+001
9.294283e+002,2.541461e+001
9.303926e+002,2.603174e+001
9.313568e+002,2.638202e+001
9.323210e+002,2.556680e+001
9.332853e+002,2.422818e+001
9.342495e+002,2.300568e+001
9.352137e+002,2.201584e+001
9.361780e+002,2.190094e+001
9.371422e+002,2.288940e+001
9.381064e+002,2.430334e+001
9.390707e+002,2.513794e+001
9.400349e+002,2.525208e+001
9.409991e+002,2.452759e+001
9.419634e+002,2.165674e+001
9.429276e+002,1.964023e+001
9.438918e+002,1.968954e+001
9.448561e+002,2.100925e+001
9.458203e+002,2.243542e+001
9.467845e+002,2.385559e+001
9.477488e+002,2.462476e+001
9.487130e+002,2.355890e+001
9.496772e+002,2.207730e+001
9.506415e+002,2.137466e+001
9.516057e+002,2.141971e+001
9.525699e+002,2.135944e+001
9.535342e+002,2.032336e+001
9.544984e+002,1.840729e+001
9.554626e+002,1.696814e+001
9.564269e+002,1.619803e+001
9.573911e+002,1.584439e+001
9.583553e+002,1.617636e+001
9.593196e+002,1.665091e+001
9.602838e+002,1.606982e+001
9.612480e+002,1.377866e+001
9.622123e+002,1.284171e+001
9.631765e+002,1.599612e+001
9.641407e+002,1.893375e+001
9.651050e+002,1.929831e+001
9.660692e+002,1.774820e+001
9.670334e+002,1.624808e+001
9.679977e+002,1.610645e+001
9.689619e+002,1.671655e+001
9.699261e+002,1.607581e+001
9.708904e+002,1.469901e+001
9.718546e+002,1.476797e+001
9.728188e+002,1.687424e+001
9.737831e+002,1.978827e+001
9.747473e+002,2.194299e+001
9.757115e+002,2.319006e+001
9.766758e+002,2.478189e+001
9.776400e+002,2.873938e+001
9.786042e+002,3.083905e+001
9.795685e+002,2.914359e+001
9.805327e+002,2.516550e+001
9.814969e+002,2.067709e+001
9.824612e+002,1.635919e+001
9.834254e+002,1.293781e+001
9.843896e+002,1.094089e+001
9.853539e+002,1.016833e+001
9.863181e+002,1.102127e+001
9.872823e+002,1.307297e+001
9.882466e+002,1.517096e+001
9.892108e+002,1.652762e+001
9.901750e+002,1.729715e+001
9.911393e+002,1.692358e+001
9.921035e+002,1.325314e+001
9.930677e+002,1.110330e+001
9.940320e+002,1.199429e+001
9.949962e+002,1.375696e+001
9.959604e+002,1.436829e+001
9.969247e+002,1.373917e+001
9.978889e+002,1.326929e+001
9.988531e+002,1.314407e+001
9.998174e+002,1.351062e+001
1.000782e+003,1.562170e+001
1.001746e+003,1.807614e+001
1.002710e+003,1.836725e+001
1.003674e+003,1.563541e+001
1.004639e+003,1.188882e+001
1.005603e+003,1.073050e+001
1.006567e+003,1.241263e+001
1.007531e+003,1.359418e+001
1.008495e+003,1.435074e+001
1.009460e+003,1.458755e+001
1.010424e+003,1.405408e+001
1.011388e+003,1.298276e+001
1.012352e+003,1.221884e+001
1.013317e+003,1.204990e+001
1.014281e+003,1.158975e+001
1.015245e+003,9.844116e+000
1.016209e+003,8.220276e+000
1.017174e+003,8.177277e+000
1.018138e+003,9.454315e+000
1.019102e+003,1.040631e+001
1.020066e+003,9.659821e+000
1.021031e+003,8.015747e+000
1.021995e+003,7.498657e+000
1.022959e+003,7.748199e+000
1.023923e+003,8.034485e+000
1.024887e+003,8.215363e+000
1.025852e+003,8.092621e+000
1.026816e+003,7.191895e+000
1.027780e+003,5.250763e+000
1.028744e+003,4.387665e+000
1.029709e+003,5.659027e+000
1.030673e+003,6.893829e+000
1.031637e+003,7.614227e+000
1.032601e+003,7.752380e+000
1.033566e+003,7.301422e+000
1.034530e+003,6.318359e+000
1.035494e+003,5.063324e+000
1.036458e+003,3.346100e+000
1.037422e+003,1.734955e+000
1.038387e+003,1.278351e+000
1.039351e+003,1.910156e+000
1.040315e+003,3.081940e+000
1.041279e+003,4.570984e+000
1.042244e+003,6.221680e+000
1.043208e+003,6.902802e+000
1.044172e+003,5.864136e+000
1.045136e+003,4.715363e+000
1.046101e+003,2.448486e+000
1.047065e+003,1.232758e+000
1.048029e+003,3.478699e+000
1.048993e+003,8.097778e+000
1.049958e+003,1.098032e+001
1.050922e+003,9.840485e+000
1.051886e+003,7.671509e+000
1.052850e+003,7.492035e+000
1.053814e+003,8.211365e+000
1.054779e+003,8.541290e+000
1.055743e+003,8.133362e+000
1.056707e+003,7.264191e+000
1.057671e+003,6.244843e+000
1.058636e+003,5.041016e+000
1.059600e+003,4.182526e+000
1.060564e+003,3.596588e+000
1.061528e+003,3.815491e+000
1.062493e+003,5.655273e+000
1.063457e+003,7.563812e+000
1.064421e+003,7.621460e+000
1.065385e+003,5.729126e+000
1.066349e+003,4.261230e+000
1.067314e+003,4.745361e+000
1.068278e+003,5.668823e+000
1.069242e+003,6.121948e+000
1.070206e+003,6.268738e+000
1.071171e+003,6.186554e+000
1.072135e+003,5.935120e+000
1.073099e+003,5.932800e+000
1.074063e+003,7.113251e+000
1.075028e+003,9.766388e+000
1.075992e+003,1.021609e+001
1.076956e+003,6.693359e+000
1.077920e+003,4.046204e+000
1.078885e+003,5.041504e+000
1.079849e+003,7.920166e+000
1.080813e+003,9.138702e+000
1.081777e+003,7.880463e+000
1.082741e+003,7.054138e+000
1.083706e+003,8.622772e+000
1.084670e+003,1.027371e+001
1.085634e+003,1.121600e+001
1.086598e+003,1.115427e+001
1.087563e+003,9.437592e+000
1.088527e+003,5.965759e+000
1.089491e+003,2.327423e+000
1.090455e+003,1.555603e+000
1.091420e+003,3.922485e+000
1.092384e+003,5.380585e+000
1.093348e+003,5.607452e+000
1.094312e+003,5.336212e+000
1.095276e+003,4.842896e+000
1.096241e+003,4.366028e+000
1.097205e+003,4.593079e+000
1.098169e+003,6.111786e+000
1.099133e+003,6.457581e+000
1.100098e+003,3.193237e+000
1.101062e+003,9.219360e-002
1.102026e+003,-3.722534e-001
1.102990e+003,1.367218e+000
1.103955e+003,3.794525e+000
1.104919e+003,5.933441e+000
1.105883e+003,7.638306e+000
1.106847e+003,8.749512e+000
1.107812e+003,9.167206e+000
1.108776e+003,8.483582e+000
1.109740e+003,6.183350e+000
1.110704e+003,3.815155e+000
1.111668e+003,2.377411e+000
1.112633e+003,1.940613e+000
1.113597e+003,2.531433e+000
1.114561e+003,4.433624e+000
1.115525e+003,6.437439e+000
1.116490e+003,9.078186e+000
1.117454e+003,1.081686e+001
1.118418e+003,1.033389e+001
1.119382e+003,8.261169e+000
1.120347e+003,5.970123e+000
1.121311e+003,4.180481e+000
1.122275e+003,2.771149e+000
1.123239e+003,1.952301e+000
1.124203e+003,1.919220e+000
1.125168e+003,2.348541e+000
1.126132e+003,3.377991e+000
1.127096e+003,4.592316e+000
1.128060e+003,5.640717e+000
1.129025e+003,6.496887e+000
1.129989e+003,7.355042e+000
1.130953e+003,8.489777e+000
1.131917e+003,8.805481e+000
1.132882e+003,7.253998e+000
1.133846e+003,5.792725e+000
1.134810e+003,5.563995e+000
1.135774e+003,6.469727e+000
1.136739e+003,8.181213e+000
1.137703e+003,1.045642e+001
1.138667e+003,1.240158e+001
1.139631e+003,1.212592e+001
1.140595e+003,9.933411e+000
1.141560e+003,9.114929e+000
1.142524e+003,1.025107e+001
1.143488e+003,1.164316e+001
1.144452e+003,1.161636e+001
1.145417e+003,1.084454e+001
1.146381e+003,1.205139e+001
1.147345e+003,1.605704e+001
1.148309e+003,1.984543e+001
1.149274e+003,2.330814e+001
1.150238e+003,2.589407e+001
1.151202e+003,2.664291e+001
1.152166e+003,2.656247e+001
1.153130e+003,2.754630e+001
1.154095e+003,3.026849e+001
1.155059e+003,3.300262e+001
1.156023e+003,3.330466e+001
1.156987e+003,3.162671e+001
1.157952e+003,3.140909e+001
1.158916e+003,3.335788e+001
1.159880e+003,3.425882e+001
1.160844e+003,3.128558e+001
1.161809e+003,2.601270e+001
1.162773e+003,2.231940e+001
1.163737e+003,2.046594e+001
1.164701e+003,1.924487e+001
1.165666e+003,1.958356e+001
1.166630e+003,1.937057e+001
1.167594e+003,1.711594e+001
1.168558e+003,1.410995e+001
1.169522e+003,1.215118e+001
1.170487e+003,1.177597e+001
1.171451e+003,1.210376e+001
1.172415e+003,1.214523e+001
1.173379e+003,1.196027e+001
1.174344e+003,1.224213e+001
1.175308e+003,1.310626e+001
1.176272e+003,1.351239e+001
1.177236e+003,1.301450e+001
1.178201e+003,1.207947e+001
1.179165e+003,1.133780e+001
1.180129e+003,1.069379e+001
1.181093e+003,9.094696e+000
1.182057e+003,5.163208e+000
1.183022e+003,2.178772e+000
1.183986e+003,1.956299e+000
1.184950e+003,2.716919e+000
1.185914e+003,2.608490e+000
1.186879e+003,1.650299e+000
1.187843e+003,1.424377e+000
1.188807e+003,3.213684e+000
1.189771e+003,6.031616e+000
1.190736e+003,6.968201e+000
1.191700e+003,5.777222e+000
1.192664e+003,4.994934e+000
1.193628e+003,5.340698e+000
1.194593e+003,5.651306e+000
1.195557e+003,4.907135e+000
1.196521e+003,3.397949e+000
1.197485e+003,2.108765e+000
1.198449e+003,1.015076e+000
1.199414e+003,7.827148e-001
1.200378e+003,2.721191e+000
1.201342e+003,4.715057e+000
1.202306e+003,5.419617e+000
1.203271e+003,5.007263e+000
1.204235e+003,4.066528e+000
1.205199e+003,2.994965e+000
1.206163e+003,2.039703e+000
1.207128e+003,1.579498e+000
1.208092e+003,1.652100e+000
1.209056e+003,2.026001e+000
1.210020e+003,3.488373e+000
1.210984e+003,3.735443e+000
1.211949e+003,1.120056e+000
1.212913e+003,-2.511871e+000
1.213877e+003,-4.709656e+000
1.214841e+003,-5.287384e+000
1.215806e+003,-5.663116e+000
1.216770e+003,-6.311584e+000
1.217734e+003,-7.064667e+000
1.218698e+003,-8.324097e+000
1.219663e+003,-9.441010e+000
1.220627e+003,-9.328339e+000
1.221591e+003,-8.012848e+000
1.222555e+003,-6.662537e+000
1.223520e+003,-6.346191e+000
1.224484e+003,-6.711334e+000
1.225448e+003,-6.313629e+000
1.226412e+003,-4.345581e+000
1.227376e+003,-3.590088e+000
1.228341e+003,-5.671539e+000
1.229305e+003,-7.207184e+000
1.230269e+003,-5.639526e+000
1.231233e+003,-2.442291e+000
1.232198e+003,-7.122803e-001
1.233162e+003,-1.222656e+000
1.234126e+003,-2.113007e+000
1.235090e+003,-1.891632e+000
1.236055e+003,-1.824493e+000
1.237019e+003,-3.974487e+000
1.237983e+003,-7.354462e+000
1.238947e+003,-8.968719e+000
1.239911e+003,-7.525299e+000
1.240876e+003,-5.019867e+000
1.241840e+003,-4.626495e+000
1.242804e+003,-6.532501e+000
1.243768e+003,-6.957733e+000
1.244733e+003,-3.821869e+000
1.245697e+003,-1.942963e+000
1.246661e+003,-2.875305e+000
1.247625e+003,-4.364197e+000
1.248590e+003,-4.461548e+000
1.249554e+003,-3.415039e+000
1.250518e+003,-2.820496e+000
1.251482e+003,-3.503479e+000
1.252447e+003,-4.614319e+000
1.253411e+003,-5.150055e+000
1.254375e+003,-5.149445e+000
1.255339e+003,-4.802338e+000
1.256303e+003,-4.068604e+000
1.257268e+003,-3.118530e+000
1.258232e+003,-2.128967e+000
1.259196e+003,-1.209442e+000
1.260160e+003,-1.929626e-001
1.261125e+003,1.207550e+000
1.262089e+003,1.668121e+000
1.263053e+003,-3.059998e-001
1.264017e+003,-1.831787e+000
1.264982e+003,-1.942413e+000
1.265946e+003,-1.427429e+000
1.266910e+003,-9.935608e-001
1.267874e+003,-7.311707e-001
1.268839e+003,-2.774353e-001
1.269803e+003,6.219482e-001
1.270767e+003,1.579376e+000
1.271731e+003,1.872559e+000
1.272695e+003,1.534698e+000
1.273660e+003,7.724915e-001
1.274624e+003,-9.418640e-001
1.275588e+003,-2.252899e+000
1.276552e+003,-1.621216e+000
1.277517e+003,-2.045288e-001
1.278481e+003,-5.365906e-001
1.279445e+003,-2.925568e+000
1.280409e+003,-5.233185e+000
1.281374e+003,-7.345032e+000
1.282338e+003,-8.329132e+000
1.283302e+003,-7.352936e+000
1.284266e+003,-5.376923e+000
1.285230e+003,-2.960876e+000
1.286195e+003,-6.521912e-001
1.287159e+003,5.108032e-001
1.288123e+003,-2.862244e-001
1.289087e+003,-2.133881e+000
1.290052e+003,-2.424713e+000
1.291016e+003,-2.697144e-001
1.291980e+003,-3.440552e-001
1.292944e+003,-5.323242e+000
1.293909e+003,-9.129303e+000
1.294873e+003,-8.303650e+000
1.295837e+003,-5.384003e+000
1.296801e+003,-3.956421e+000
1.297766e+003,-4.461090e+000
1.298730e+003,-5.012970e+000
1.299694e+003,-4.593628e+000
1.300658e+003,-4.156921e+000
1.301622e+003,-5.193939e+000
1.302587e+003,-6.638214e+000
1.303551e+003,-6.660828e+000
1.304515e+003,-4.987061e+000
1.305479e+003,-2.873535e+000
1.306444e+003,-1.300507e+000
1.307408e+003,-2.995605e-001
1.308372e+003,2.561340e-001
1.309336e+003,5.366516e-001
1.310301e+003,-2.388611e-001
1.311265e+003,-3.600037e+000
1.312229e+003,-5.986267e+000
1.313193e+003,-5.954498e+000
1.314157e+003,-4.750763e+000
1.315122e+003,-3.489166e+000
1.316086e+003,-2.532898e+000
1.317050e+003,-1.896606e+000
1.318014e+003,-1.546417e+000
1.318979e+003,-1.303741e+000
1.319943e+003,-9.027710e-001
1.320907e+003,-3.323059e-001
1.321871e+003,9.155273e-005
1.322836e+003,-1.098938e-001
1.323800e+003,-4.481812e-001
1.324764e+003,-9.345093e-001
1.325728e+003,-1.507324e+000
1.326693e+003,-2.105438e+000
1.327657e+003,-2.799042e+000
1.328621e+003,-3.780090e+000
1.329585e+003,-5.413300e+000
1.330549e+003,-5.988708e+000
1.331514e+003,-4.331238e+000
1.332478e+003,-2.197235e+000
1.333442e+003,-1.100189e+000
1.334406e+003,-1.004059e+000
1.335371e+003,-1.067200e+000
1.336335e+003,-7.869263e-001
1.337299e+003,-5.384521e-001
1.338263e+003,-1.127441e+000
1.339228e+003,-2.690399e+000
1.340192e+003,-3.758942e+000
1.341156e+003,-4.395935e+000
1.342120e+003,-4.513275e+000
1.343084e+003,-3.745667e+000
1.344049e+003,-3.006592e+000
1.345013e+003,-3.234436e+000
1.345977e+003,-3.948090e+000
1.346941e+003,-3.665985e+000
1.347906e+003,-1.814697e+000
1.348870e+003,2.770691e-001
1.349834e+003,1.495605e+000
1.350798e+003,1.931091e+000
1.351763e+003,2.126434e+000
1.352727e+003,2.057098e+000
1.353691e+003,1.186951e+000
1.354655e+003,-9.234924e-001
1.355620e+003,-2.974060e+000
1.356584e+003,-3.110962e+000
1.357548e+003,-1.568115e+000
1.358512e+003,-8.866882e-001
1.359476e+003,-1.501282e+000
1.360441e+003,-2.541382e+000
1.361405e+003,-4.803101e+000
1.362369e+003,-6.193848e+000
1.363333e+003,-4.866272e+000
1.364298e+003,-2.390961e+000
1.365262e+003,-9.313965e-001
1.366226e+003,-1.032867e+000
1.367190e+003,-1.861359e+000
1.368155e+003,-2.688141e+000
1.369119e+003,-3.478607e+000
1.370083e+003,-4.098938e+000
1.371047e+003,-4.518097e+000
1.372011e+003,-4.486633e+000
1.372976e+003,-4.200287e+000
1.373940e+003,-3.537689e+000
1.374904e+003,-1.863342e+000
1.375868e+003,-4.727173e-002
1.376833e+003,7.687073e-001
1.377797e+003,4.957886e-001
1.378761e+003,-5.015259e-001
1.379725e+003,-2.407227e+000
1.380690e+003,-3.770691e+000
1.381654e+003,-2.003418e+000
1.382618e+003,7.612305e-001
1.383582e+003,1.051056e+000
1.384547e+003,-9.122314e-001
1.385511e+003,-1.911835e+000
1.386475e+003,-1.985168e-001
1.387439e+003,2.504608e+000
1.388403e+003,3.548706e+000
1.389368e+003,2.924164e+000
1.390332e+003,2.695709e+000
1.391296e+003,3.554901e+000
1.392260e+003,3.681549e+000
1.393225e+003,1.742493e+000
1.394189e+003,-3.787231e-002
1.395153e+003,-1.375122e-001
1.396117e+003,6.613770e-001
1.397082e+003,9.448853e-001
1.398046e+003,4.455261e-001
1.399010e+003,1.268616e-001
1.399974e+003,7.990417e-001
1.400938e+003,1.984131e+000
1.401903e+003,2.639374e+000
1.402867e+003,3.035980e+000
1.403831e+003,3.313812e+000
1.404795e+003,2.625244e+000
1.405760e+003,2.593658e+000
1.406724e+003,4.487274e+000
1.407688e+003,6.362030e+000
1.408652e+003,5.954834e+000
1.409617e+003,3.610870e+000
1.410581e+003,1.437012e+000
1.411545e+003,2.648621e-001
1.412509e+003,-6.559143e-001
1.413474e+003,-2.800964e+000
1.414438e+003,-4.809326e+000
1.415402e+003,-3.485168e+000
1.416366e+003,6.884155e-001
1.417330e+003,3.866730e+000
1.418295e+003,4.524811e+000
1.419259e+003,3.847748e+000
1.420223e+003,2.601746e+000
1.421187e+003,9.331970e-001
1.422152e+003,4.709473e-001
1.423116e+003,1.825317e+000
1.424080e+003,3.009033e+000
1.425044e+003,3.770782e+000
1.426009e+003,3.612732e+000
1.426973e+003,1.152161e+000
1.427937e+003,-1.670654e+000
1.428901e+003,-2.384827e+000
1.429865e+003,-8.897705e-001
1.430830e+003,1.278473e+000
1.431794e+003,3.008759e+000
1.432758e+003,4.218689e+000
1.433722e+003,4.913544e+000
1.434687e+003,5.294403e+000
1.435651e+003,5.342010e+000
1.436615e+003,4.434418e+000
1.437579e+003,3.153625e+000
1.438544e+003,7.383118e-001
1.439508e+003,-1.074554e+000
1.440472e+003,-5.611572e-001
1.441436e+003,1.374725e+000
1.442401e+003,2.916199e+000
1.443365e+003,3.537689e+000
1.444329e+003,3.651703e+000
1.445293e+003,3.537628e+000
1.446257e+003,3.331024e+000
1.447222e+003,3.209900e+000
1.448186e+003,3.129486e+000
1.449150e+003,2.912415e+000
1.450114e+003,2.410889e+000
1.451079e+003,2.112061e+000
1.452043e+003,2.485870e+000
1.453007e+003,3.234314e+000
1.453971e+003,4.293823e+000
1.454936e+003,5.370636e+000
1.455900e+003,4.298553e+000
1.456864e+003,-3.588867e-001
1.457828e+003,-3.406464e+000
1.458792e+003,3.109436e-001
1.459757e+003,4.754578e+000
1.460721e+003,4.326813e+000
1.461685e+003,1.004059e+000
1.462649e+003,-9.351501e-001
1.463614e+003,-2.667236e-001
1.464578e+003,1.823975e+000
1.465542e+003,4.527771e+000
1.466506e+003,7.232880e+000
1.467471e+003,8.070404e+000
1.468435e+003,6.693909e+000
1.469399e+003,6.068573e+000
1.470363e+003,6.749573e+000
1.471328e+003,7.272430e+000
1.472292e+003,7.244446e+000
1.473256e+003,6.749908e+000
1.474220e+003,6.117584e+000
1.475184e+003,5.318146e+000
1.476149e+003,3.764893e+000
1.477113e+003,1.415558e+000
1.478077e+003,-7.268372e-001
1.479041e+003,-1.601685e+000
1.480006e+003,-9.942322e-001
1.480970e+003,1.777039e+000
1.481934e+003,7.880127e+000
1.482898e+003,1.029568e+001
1.483863e+003,5.864197e+000
1.484827e+003,2.548187e+000
1.485791e+003,3.686005e+000
1.486755e+003,5.950623e+000
1.487719e+003,6.219055e+000
1.488684e+003,4.799377e+000
1.489648e+003,3.403107e+000
1.490612e+003,2.666565e+000
1.491576e+003,2.398346e+000
1.492541e+003,2.332275e+000
1.493505e+003,2.612854e+000
1.494469e+003,3.857941e+000
1.495433e+003,5.732544e+000
1.496398e+003,7.157776e+000
1.497362e+003,8.315186e+000
1.498326e+003,8.808167e+000
1.499290e+003,7.385345e+000
1.500255e+003,5.869507e+000
1.501219e+003,7.156067e+000
1.502183e+003,1.071591e+001
1.503147e+003,1.325241e+001
1.504111e+003,1.381180e+001
1.505076e+003,1.460767e+001
1.506040e+003,1.769861e+001
1.507004e+003,2.077591e+001
1.507968e+003,2.115387e+001
1.508933e+003,1.994626e+001
1.509897e+003,1.938623e+001
1.510861e+003,2.007675e+001
1.511825e+003,2.170810e+001
1.512790e+003,2.397217e+001
1.513754e+003,2.668115e+001
1.514718e+003,2.991992e+001
1.515682e+003,3.359515e+001
1.516646e+003,3.607928e+001
1.517611e+003,3.652991e+001
1.518575e+003,3.795621e+001
1.519539e+003,4.329172e+001
1.520503e+003,4.796902e+001
1.521468e+003,4.932022e+001
1.522432e+003,4.851028e+001
1.523396e+003,4.689163e+001
1.524360e+003,4.505023e+001
1.525325e+003,4.349265e+001
1.526289e+003,4.259912e+001
1.527253e+003,4.215872e+001
1.528217e+003,4.195743e+001
1.529182e+003,4.210608e+001
1.530146e+003,3.989783e+001
1.531110e+003,3.275049e+001
1.532074e+003,2.795340e+001
1.533039e+003,2.729727e+001
1.534003e+003,2.677493e+001
1.534967e+003,2.550015e+001
1.535931e+003,2.329102e+001
1.536896e+003,1.909293e+001
1.537860e+003,1.385196e+001
1.538824e+003,1.043182e+001
1.539788e+003,1.015640e+001
1.540752e+003,1.110861e+001
1.541717e+003,1.094492e+001
1.542681e+003,9.912903e+000
1.543645e+003,9.269440e+000
1.544609e+003,9.490051e+000
1.545573e+003,9.244080e+000
1.546538e+003,7.737274e+000
1.547502e+003,6.410706e+000
1.548466e+003,5.400360e+000
1.549430e+003,5.481110e+000
1.550395e+003,8.603485e+000
1.551359e+003,1.318021e+001
1.552323e+003,1.461636e+001
1.553287e+003,1.149600e+001
1.554252e+003,7.226624e+000
1.555216e+003,4.428406e+000
1.556180e+003,3.415039e+000
1.557144e+003,5.729065e+000
1.558109e+003,1.154288e+001
1.559073e+003,1.463330e+001
1.560037e+003,1.424203e+001
1.561001e+003,1.195016e+001
1.561966e+003,6.314850e+000
1.562930e+003,1.221466e+000
1.563894e+003,4.642029e-001
1.564858e+003,2.858521e+000
1.565823e+003,5.806427e+000
1.566787e+003,8.626251e+000
1.567751e+003,1.023627e+001
1.568715e+003,9.812378e+000
1.569679e+003,8.763458e+000
1.570644e+003,8.985474e+000
1.571608e+003,9.749359e+000
1.572572e+003,8.980927e+000
1.573536e+003,6.675385e+000
1.574500e+003,5.082458e+000
1.575465e+003,4.948273e+000
1.576429e+003,5.598755e+000
1.577393e+003,6.989105e+000
1.578357e+003,8.487640e+000
1.579322e+003,8.612610e+000
1.580286e+003,7.479034e+000
1.581250e+003,7.400055e+000
1.582214e+003,9.405457e+000
1.583179e+003,1.130203e+001
1.584143e+003,1.089017e+001
1.585107e+003,9.884918e+000
1.586071e+003,1.169550e+001
1.587036e+003,1.512411e+001
1.588000e+003,1.548560e+001
1.588964e+003,1.149756e+001
1.589928e+003,7.225677e+000
1.590893e+003,4.863495e+000
1.591857e+003,4.254425e+000
1.592821e+003,6.004700e+000
1.593785e+003,9.561890e+000
1.594750e+003,1.132684e+001
1.595714e+003,1.049683e+001
1.596678e+003,9.822662e+000
1.597642e+003,1.039914e+001
1.598606e+003,1.151535e+001
1.599571e+003,1.317337e+001
1.600535e+003,1.475125e+001
1.601499e+003,1.519031e+001
1.602463e+003,1.459845e+001
1.603427e+003,1.408569e+001
1.604392e+003,1.413885e+001
1.605356e+003,1.417184e+001
1.606320e+003,1.337643e+001
1.607284e+003,1.218280e+001
1.608249e+003,1.201248e+001
1.609213e+003,1.292236e+001
1.610177e+003,1.292810e+001
1.611141e+003,1.107352e+001
1.612106e+003,9.879791e+000
1.613070e+003,1.074326e+001
1.614034e+003,1.257346e+001
1.614998e+003,1.574042e+001
1.615963e+003,1.888559e+001
1.616927e+003,1.909964e+001
1.617891e+003,1.641763e+001
1.618855e+003,1.464636e+001
1.619820e+003,1.620355e+001
1.620784e+003,1.841159e+001
1.621748e+003,1.703534e+001
1.622712e+003,1.312839e+001
1.623677e+003,1.260272e+001
1.624641e+003,1.635120e+001
1.625605e+003,1.843237e+001
1.626569e+003,1.597229e+001
1.627533e+003,1.365186e+001
1.628498e+003,1.472763e+001
1.629462e+003,1.636969e+001
1.630426e+003,1.579779e+001
1.631390e+003,1.388257e+001
1.632354e+003,1.273819e+001
1.633319e+003,1.294281e+001
1.634283e+003,1.428766e+001
1.635247e+003,1.691266e+001
1.636211e+003,1.958148e+001
1.637176e+003,1.993152e+001
1.638140e+003,1.818619e+001
1.639104e+003,1.672458e+001
1.640068e+003,1.545624e+001
1.641033e+003,1.481003e+001
1.641997e+003,1.538623e+001
1.642961e+003,1.606436e+001
1.643925e+003,1.635696e+001
1.644890e+003,1.639487e+001
1.645854e+003,1.555270e+001
1.646818e+003,1.464816e+001
1.647782e+003,1.650879e+001
1.648747e+003,2.162869e+001
1.649711e+003,2.503687e+001
1.650675e+003,2.227603e+001
1.651639e+003,1.631454e+001
1.652604e+003,1.282007e+001
1.653568e+003,1.165329e+001
1.654532e+003,1.159283e+001
1.655496e+003,1.288696e+001
1.656460e+003,1.423190e+001
1.657425e+003,1.554733e+001
1.658389e+003,1.654910e+001
1.659353e+003,1.726587e+001
1.660317e+003,1.748483e+001
1.661281e+003,1.708984e+001
1.662246e+003,1.593610e+001
1.663210e+003,1.316269e+001
1.664174e+003,8.688263e+000
1.665138e+003,5.758820e+000
1.666103e+003,7.500366e+000
1.667067e+003,1.169647e+001
1.668031e+003,1.440775e+001
1.668995e+003,1.564850e+001
1.669960e+003,1.476282e+001
1.670924e+003,1.080768e+001
1.671888e+003,8.813477e+000
1.672852e+003,1.183353e+001
1.673817e+003,1.483923e+001
1.674781e+003,1.407999e+001
1.675745e+003,1.204181e+001
1.676709e+003,1.151782e+001
1.677674e+003,1.216119e+001
1.678638e+003,1.204007e+001
1.679602e+003,1.057236e+001
1.680566e+003,9.211487e+000
1.681531e+003,9.254791e+000
1.682495e+003,1.001758e+001
1.683459e+003,1.015039e+001
1.684423e+003,9.707855e+000
1.685387e+003,9.708832e+000
1.686352e+003,1.042572e+001
1.687316e+003,1.035168e+001
1.688280e+003,8.398499e+000
1.689244e+003,6.681885e+000
1.690208e+003,7.412109e+000
1.691173e+003,8.694824e+000
1.692137e+003,8.336273e+000
1.693101e+003,6.876129e+000
1.694065e+003,6.017548e+000
1.695030e+003,6.065704e+000
1.695994e+003,6.142914e+000
1.696958e+003,5.525665e+000
1.697922e+003,5.040985e+000
1.698887e+003,6.177612e+000
1.699851e+003,8.256500e+000
1.700815e+003,8.948395e+000
1.701779e+003,8.014465e+000
1.702744e+003,6.980774e+000
1.703708e+003,6.426422e+000
1.704672e+003,6.068604e+000
1.705636e+003,5.353760e+000
1.706601e+003,4.708923e+000
1.707565e+003,5.373260e+000
1.708529e+003,6.903015e+000
1.709493e+003,7.600006e+000
1.710458e+003,7.233734e+000
1.711422e+003,6.186462e+000
1.712386e+003,4.275360e+000
1.713350e+003,2.362885e+000
1.714314e+003,3.384094e-001
1.715279e+003,-1.053711e+000
1.716243e+003,8.511353e-002
1.717207e+003,3.300842e+000
1.718171e+003,6.143616e+000
1.719135e+003,7.962494e+000
1.720100e+003,8.413177e+000
1.721064e+003,6.990906e+000
1.722028e+003,4.553619e+000
1.722992e+003,2.005463e+000
1.723957e+003,-2.114563e-001
1.724921e+003,-6.298828e-002
1.725885e+003,2.793671e+000
1.726849e+003,4.188080e+000
1.727814e+003,2.219147e+000
1.728778e+003,8.849487e-001
1.729742e+003,2.595612e+000
1.730706e+003,4.979767e+000
1.731671e+003,5.392517e+000
1.732635e+003,4.504669e+000
1.733599e+003,4.697174e+000
1.734563e+003,6.215149e+000
1.735528e+003,6.764038e+000
1.736492e+003,5.077515e+000
1.737456e+003,2.755249e+000
1.738420e+003,1.630829e+000
1.739385e+003,1.443329e+000
1.740349e+003,1.704437e+000
1.741313e+003,2.730591e+000
1.742277e+003,3.098450e+000
1.743241e+003,3.177216e+000
1.744206e+003,2.320160e+000
1.745170e+003,-1.305542e+000
1.746134e+003,-4.012604e+000
1.747098e+003,-3.090637e+000
1.748063e+003,-6.936646e-001
1.749027e+003,1.149933e+000
1.749991e+003,1.991882e+000
1.750955e+003,1.465668e+000
1.751919e+003,-2.514648e-001
1.752884e+003,-1.494965e+000
1.753848e+003,-8.683167e-001
1.754812e+003,6.461182e-001
1.755776e+003,1.213684e+000
1.756741e+003,9.657288e-001
1.757705e+003,1.349487e-001
1.758669e+003,-2.104736e+000
1.759633e+003,-2.776733e+000
1.760598e+003,-5.032349e-002
1.761562e+003,1.856445e+000
1.762526e+003,1.489166e+000
1.763490e+003,3.703918e-001
1.764455e+003,-6.359253e-001
1.765419e+003,-1.518982e+000
1.766383e+003,-2.965149e+000
1.767347e+003,-4.668396e+000
1.768312e+003,-4.520721e+000
1.769276e+003,-1.512177e+000
1.770240e+003,1.257141e+000
1.771204e+003,1.635437e-001
1.772168e+003,-2.652740e+000
1.773133e+003,-1.945953e+000
1.774097e+003,1.764191e+000
1.775061e+003,2.850159e+000
1.776025e+003,1.741333e-001
1.776990e+003,-1.610840e+000
1.777954e+003,-5.320435e-001
1.778918e+003,1.284851e+000
1.779882e+003,2.811462e+000
1.780846e+003,3.553650e+000
1.781811e+003,2.480804e+000
1.782775e+003,3.012085e-001
1.783739e+003,-5.573425e-001
1.784703e+003,4.299011e-001
1.785668e+003,1.047394e+000
1.786632e+003,6.082153e-002
1.787596e+003,-1.462006e+000
1.788560e+003,-2.973419e+000
1.789525e+003,-4.036224e+000
1.790489e+003,-4.333435e+000
1.791453e+003,-3.849915e+000
1.792417e+003,-1.895447e+000
1.793382e+003,1.367584e+000
1.794346e+003,3.080444e+000
1.795310e+003,1.593506e+000
1.796274e+003,-4.190063e-001
1.797239e+003,3.578796e-001
1.798203e+003,2.894135e+000
1.799167e+003,3.290680e+000
1.800131e+003,8.354797e-001
1.801095e+003,-8.937683e-001
1.802060e+003,-1.747101e+000
1.803024e+003,-1.665771e+000
1.803988e+003,1.388550e-001
1.804952e+003,1.724854e+000
1.805917e+003,1.911102e+000
1.806881e+003,1.653015e+000
1.807845e+003,2.169312e+000
1.808809e+003,3.077576e+000
1.809773e+003,3.282593e+000
1.810738e+003,2.594971e+000
1.811702e+003,1.745911e+000
1.812666e+003,1.174072e+000
1.813630e+003,3.512878e-001
1.814595e+003,-1.682495e+000
1.815559e+003,-4.268463e+000
1.816523e+003,-4.131805e+000
1.817487e+003,-8.914795e-001
1.818452e+003,1.119690e+000
1.819416e+003,1.667938e+000
1.820380e+003,1.395813e+000
1.821344e+003,-3.392334e-001
1.822309e+003,-1.965302e+000
1.823273e+003,-2.842072e+000
1.824237e+003,-2.769775e+000
1.825201e+003,-9.196777e-001
1.826166e+003,1.830017e+000
1.827130e+003,3.366547e+000
1.828094e+003,3.278625e+000
1.829058e+003,2.302002e+000
1.830022e+003,3.791809e-001
1.830987e+003,-1.241180e+000
1.831951e+003,-1.152405e+000
1.832915e+003,-3.995056e-001
1.833879e+003,-6.377869e-001
1.834844e+003,-1.541687e+000
1.835808e+003,-1.979523e+000
1.836772e+003,-1.735321e+000
1.837736e+003,-7.794800e-001
1.838700e+003,8.921204e-001
1.839665e+003,1.784607e+000
1.840629e+003,3.532410e-001
1.841593e+003,-2.002838e+000
1.842557e+003,-2.309265e+000
1.843522e+003,-6.105042e-001
1.844486e+003,1.685181e-001
1.845450e+003,-5.830383e-001
1.846414e+003,-7.510986e-001
1.847379e+003,1.891479e-001
1.848343e+003,5.438843e-001
1.849307e+003,-4.744568e-001
1.850271e+003,-1.783142e+000
1.851236e+003,-2.844818e+000
1.852200e+003,-3.419220e+000
1.853164e+003,-3.178192e+000
1.854128e+003,-2.519287e+000
1.855093e+003,-2.358948e+000
1.856057e+003,-2.886475e+000
1.857021e+003,-3.423889e+000
1.857985e+003,-3.513062e+000
1.858949e+003,-3.218750e+000
1.859914e+003,-2.403168e+000
1.860878e+003,-1.191864e+000
1.861842e+003,-7.287598e-001
1.862806e+003,-1.102020e+000
1.863771e+003,-2.188416e-001
1.864735e+003,2.770050e+000
1.865699e+003,4.330231e+000
1.866663e+003,2.393311e+000
1.867627e+003,-1.539307e-001
1.868592e+003,-6.892700e-001
1.869556e+003,-4.676208e-001
1.870520e+003,-2.121796e+000
1.871484e+003,-5.185913e+000
1.872449e+003,-6.238220e+000
1.873413e+003,-4.060791e+000
1.874377e+003,-1.859894e+000
1.875341e+003,-1.067047e+000
1.876306e+003,-4.264832e-001
1.877270e+003,7.962036e-001
1.878234e+003,2.037140e+000
1.879198e+003,3.041992e+000
1.880163e+003,3.560730e+000
1.881127e+003,3.021179e+000
1.882091e+003,1.642456e+000
1.883055e+003,2.855530e-001
1.884020e+003,-6.502686e-001
1.884984e+003,-1.095520e+000
1.885948e+003,-9.636230e-001
1.886912e+003,-5.565186e-001
1.887876e+003,-5.104370e-001
1.888841e+003,-7.468872e-001
1.889805e+003,-3.220520e-001
1.890769e+003,1.060944e+000
1.891733e+003,1.409271e+000
1.892698e+003,-8.691406e-002
1.893662e+003,-1.368347e+000
1.894626e+003,-1.791931e+000
1.895590e+003,-1.628662e+000
1.896554e+003,-3.832703e-001
1.897519e+003,9.877930e-001
1.898483e+003,8.106384e-001
1.899447e+003,-4.513245e-001
1.900411e+003,-3.728027e-001
1.901376e+003,1.623352e+000
1.902340e+003,2.375305e+000
1.903304e+003,-4.680786e-001
1.904268e+003,-3.052551e+000
1.905233e+003,-2.406525e+000
1.906197e+003,-8.647156e-001
1.907161e+003,-9.971008e-001
1.908125e+003,-1.877747e+000
1.909090e+003,-1.525696e+000
1.910054e+003,-1.448059e-001
1.911018e+003,6.644287e-001
1.911982e+003,4.525452e-001
1.912947e+003,1.855469e-002
1.913911e+003,-8.840942e-002
1.914875e+003,-4.699707e-003
1.915839e+003,1.229858e-002
1.916803e+003,-9.182739e-002
1.917768e+003,-8.569336e-002
1.918732e+003,1.199646e-001
1.919696e+003,4.824219e-001
1.920660e+003,1.187012e+000
1.921625e+003,1.747101e+000
1.922589e+003,1.983582e+000
1.923553e+003,1.992920e+000
1.924517e+003,1.550842e+000
1.925481e+003,1.182190e+000
1.926446e+003,1.588776e+000
1.927410e+003,2.325012e+000
1.928374e+003,2.428192e+000
1.929338e+003,1.794800e+000
1.930303e+003,1.056061e+000
1.931267e+003,4.358826e-001
1.932231e+003,1.522217e-001
1.933195e+003,2.815247e-001
1.934160e+003,5.153809e-001
1.935124e+003,8.701782e-001
1.936088e+003,9.355164e-001
1.937052e+003,-8.325195e-002
1.938017e+003,-1.458374e+000
1.938981e+003,-1.593872e+000
1.939945e+003,-4.656677e-001
1.940909e+003,6.420593e-001
1.941874e+003,1.105865e+000
1.942838e+003,1.418579e+000
1.943802e+003,2.182281e+000
1.944766e+003,3.016296e+000
1.945730e+003,2.769836e+000
1.946695e+003,1.546021e+000
1.947659e+003,9.336853e-001
1.948623e+003,9.244080e-001
1.949587e+003,1.307861e+000
1.950552e+003,2.294739e+000
1.951516e+003,2.997833e+000
1.952480e+003,2.990479e+000
1.953444e+003,2.904236e+000
1.954408e+003,3.160767e+000
1.955373e+003,3.435333e+000
1.956337e+003,3.506592e+000
1.957301e+003,3.471313e+000
1.958265e+003,3.161377e+000
1.959230e+003,2.570526e+000
1.960194e+003,1.885315e+000
1.961158e+003,8.480225e-001
1.962122e+003,-2.885437e-001
1.963087e+003,-2.325409e+000
1.964051e+003,-3.316437e+000
1.965015e+003,-9.872131e-001
1.965979e+003,2.141541e+000
1.966944e+003,3.572510e+000
1.967908e+003,3.531067e+000
1.968872e+003,2.990570e+000
1.969836e+003,2.251099e+000
1.970801e+003,1.154724e+000
1.971765e+003,-3.132935e-001
1.972729e+003,-1.558563e+000
1.973693e+003,-2.120117e+000
1.974657e+003,-2.128387e+000
1.975622e+003,-1.789429e+000
1.976586e+003,-1.135590e+000
1.977550e+003,2.173767e-001
1.978514e+003,2.048279e+000
1.979479e+003,2.613983e+000
1.980443e+003,1.742523e+000
1.981407e+003,1.880707e+000
1.982371e+003,4.089691e+000
1.983335e+003,5.357758e+000
1.984300e+003,3.115204e+000
1.985264e+003,-2.620239e-001
1.986228e+003,-1.017303e+000
1.987192e+003,3.745117e-001
1.988157e+003,1.488312e+000
1.989121e+003,2.288269e+000
1.990085e+003,3.288177e+000
1.991049e+003,5.121918e+000
1.992014e+003,6.032043e+000
1.992978e+003,5.542328e+000
1.993942e+003,4.297607e+000
1.994906e+003,1.453796e+000
1.995871e+003,-9.598999e-001
1.996835e+003,-1.385406e+000
1.997799e+003,-3.908081e-001
1.998763e+003,1.960815e+000
1.999728e+003,4.795593e+000
